Frequency(Hz)	Magnitude(dB)
1.000000e+01	-1.672110e-05
1.005776e+01	-1.691482e-05
1.011585e+01	-1.711078e-05
1.017428e+01	-1.730901e-05
1.023305e+01	-1.750954e-05
1.029215e+01	-1.771239e-05
1.035160e+01	-1.791760e-05
1.041139e+01	-1.812518e-05
1.047153e+01	-1.833516e-05
1.053201e+01	-1.854758e-05
1.059284e+01	-1.876246e-05
1.065403e+01	-1.897983e-05
1.071556e+01	-1.919971e-05
1.077746e+01	-1.942215e-05
1.083971e+01	-1.964716e-05
1.090232e+01	-1.987477e-05
1.096529e+01	-2.010503e-05
1.102862e+01	-2.033795e-05
1.109232e+01	-2.057357e-05
1.115639e+01	-2.081192e-05
1.122083e+01	-2.105303e-05
1.128564e+01	-2.129694e-05
1.135083e+01	-2.154367e-05
1.141639e+01	-2.179325e-05
1.148233e+01	-2.204573e-05
1.154865e+01	-2.230114e-05
1.161536e+01	-2.255950e-05
1.168245e+01	-2.282086e-05
1.174992e+01	-2.308525e-05
1.181779e+01	-2.335270e-05
1.188605e+01	-2.362324e-05
1.195470e+01	-2.389692e-05
1.202375e+01	-2.417377e-05
1.209320e+01	-2.445383e-05
1.216305e+01	-2.473714e-05
1.223330e+01	-2.502372e-05
1.230396e+01	-2.531363e-05
1.237503e+01	-2.560689e-05
1.244651e+01	-2.590356e-05
1.251840e+01	-2.620366e-05
1.259070e+01	-2.650723e-05
1.266343e+01	-2.681432e-05
1.273657e+01	-2.712497e-05
1.281014e+01	-2.743922e-05
1.288413e+01	-2.775711e-05
1.295855e+01	-2.807869e-05
1.303339e+01	-2.840399e-05
1.310867e+01	-2.873305e-05
1.318439e+01	-2.906593e-05
1.326054e+01	-2.940267e-05
1.333713e+01	-2.974330e-05
1.341417e+01	-3.008789e-05
1.349165e+01	-3.043646e-05
1.356958e+01	-3.078908e-05
1.364795e+01	-3.114578e-05
1.372678e+01	-3.150661e-05
1.380607e+01	-3.187162e-05
1.388581e+01	-3.224086e-05
1.396602e+01	-3.261438e-05
1.404668e+01	-3.299222e-05
1.412782e+01	-3.337444e-05
1.420942e+01	-3.376110e-05
1.429149e+01	-3.415223e-05
1.437404e+01	-3.454789e-05
1.445706e+01	-3.494813e-05
1.454057e+01	-3.535302e-05
1.462455e+01	-3.576259e-05
1.470902e+01	-3.617691e-05
1.479398e+01	-3.659602e-05
1.487943e+01	-3.702000e-05
1.496537e+01	-3.744888e-05
1.505181e+01	-3.788274e-05
1.513875e+01	-3.832162e-05
1.522619e+01	-3.876558e-05
1.531414e+01	-3.921469e-05
1.540259e+01	-3.966900e-05
1.549156e+01	-4.012857e-05
1.558103e+01	-4.059347e-05
1.567103e+01	-4.106376e-05
1.576155e+01	-4.153949e-05
1.585258e+01	-4.202073e-05
1.594415e+01	-4.250755e-05
1.603624e+01	-4.300001e-05
1.612886e+01	-4.349818e-05
1.622202e+01	-4.400211e-05
1.631572e+01	-4.451189e-05
1.640996e+01	-4.502757e-05
1.650474e+01	-4.554922e-05
1.660008e+01	-4.607692e-05
1.669596e+01	-4.661073e-05
1.679239e+01	-4.715073e-05
1.688938e+01	-4.769698e-05
1.698694e+01	-4.824956e-05
1.708505e+01	-4.880854e-05
1.718373e+01	-4.937400e-05
1.728299e+01	-4.994601e-05
1.738281e+01	-5.052464e-05
1.748322e+01	-5.110998e-05
1.758420e+01	-5.170210e-05
1.768576e+01	-5.230108e-05
1.778792e+01	-5.290700e-05
1.789066e+01	-5.351994e-05
1.799399e+01	-5.413998e-05
1.809793e+01	-5.476720e-05
1.820246e+01	-5.540169e-05
1.830760e+01	-5.604353e-05
1.841334e+01	-5.669280e-05
1.851969e+01	-5.734960e-05
1.862666e+01	-5.801401e-05
1.873425e+01	-5.868611e-05
1.884246e+01	-5.936600e-05
1.895129e+01	-6.005377e-05
1.906075e+01	-6.074950e-05
1.917085e+01	-6.145330e-05
1.928158e+01	-6.216525e-05
1.939295e+01	-6.288544e-05
1.950496e+01	-6.361398e-05
1.961762e+01	-6.435097e-05
1.973093e+01	-6.509648e-05
1.984490e+01	-6.585064e-05
1.995952e+01	-6.661353e-05
2.007480e+01	-6.738526e-05
2.019076e+01	-6.816593e-05
2.030738e+01	-6.895565e-05
2.042467e+01	-6.975451e-05
2.054264e+01	-7.056263e-05
2.066130e+01	-7.138011e-05
2.078064e+01	-7.220706e-05
2.090066e+01	-7.304360e-05
2.102139e+01	-7.388982e-05
2.114280e+01	-7.474585e-05
2.126492e+01	-7.561179e-05
2.138775e+01	-7.648777e-05
2.151128e+01	-7.737389e-05
2.163553e+01	-7.827028e-05
2.176050e+01	-7.917705e-05
2.188619e+01	-8.009433e-05
2.201260e+01	-8.102224e-05
2.213974e+01	-8.196090e-05
2.226762e+01	-8.291043e-05
2.239624e+01	-8.387096e-05
2.252560e+01	-8.484262e-05
2.265571e+01	-8.582553e-05
2.278656e+01	-8.681984e-05
2.291818e+01	-8.782566e-05
2.305055e+01	-8.884313e-05
2.318369e+01	-8.987240e-05
2.331760e+01	-9.091358e-05
2.345228e+01	-9.196683e-05
2.358774e+01	-9.303228e-05
2.372398e+01	-9.411007e-05
2.386101e+01	-9.520035e-05
2.399883e+01	-9.630326e-05
2.413745e+01	-9.741895e-05
2.427686e+01	-9.854756e-05
2.441709e+01	-9.968925e-05
2.455812e+01	-1.008442e-04
2.469997e+01	-1.020125e-04
2.484263e+01	-1.031943e-04
2.498612e+01	-1.043898e-04
2.513044e+01	-1.055992e-04
2.527559e+01	-1.068226e-04
2.542158e+01	-1.080601e-04
2.556842e+01	-1.093120e-04
2.571610e+01	-1.105784e-04
2.586463e+01	-1.118595e-04
2.601403e+01	-1.131554e-04
2.616428e+01	-1.144663e-04
2.631541e+01	-1.157924e-04
2.646740e+01	-1.171339e-04
2.662028e+01	-1.184909e-04
2.677404e+01	-1.198636e-04
2.692868e+01	-1.212522e-04
2.708422e+01	-1.226570e-04
2.724066e+01	-1.240780e-04
2.739800e+01	-1.255154e-04
2.755625e+01	-1.269695e-04
2.771541e+01	-1.284405e-04
2.787550e+01	-1.299285e-04
2.803650e+01	-1.314337e-04
2.819844e+01	-1.329564e-04
2.836131e+01	-1.344967e-04
2.852513e+01	-1.360549e-04
2.868989e+01	-1.376311e-04
2.885560e+01	-1.392255e-04
2.902227e+01	-1.408385e-04
2.918990e+01	-1.424701e-04
2.935850e+01	-1.441206e-04
2.952807e+01	-1.457903e-04
2.969863e+01	-1.474793e-04
2.987016e+01	-1.491878e-04
3.004269e+01	-1.509162e-04
3.021622e+01	-1.526646e-04
3.039075e+01	-1.544332e-04
3.056628e+01	-1.562223e-04
3.074283e+01	-1.580322e-04
3.092040e+01	-1.598630e-04
3.109900e+01	-1.617150e-04
3.127862e+01	-1.635885e-04
3.145929e+01	-1.654836e-04
3.164099e+01	-1.674008e-04
3.182375e+01	-1.693401e-04
3.200756e+01	-1.713019e-04
3.219244e+01	-1.732865e-04
3.237838e+01	-1.752940e-04
3.256540e+01	-1.773248e-04
3.275349e+01	-1.793791e-04
3.294268e+01	-1.814572e-04
3.313295e+01	-1.835594e-04
3.332433e+01	-1.856860e-04
3.351681e+01	-1.878371e-04
3.371040e+01	-1.900132e-04
3.390511e+01	-1.922145e-04
3.410094e+01	-1.944414e-04
3.429791e+01	-1.966940e-04
3.449601e+01	-1.989727e-04
3.469526e+01	-2.012778e-04
3.489566e+01	-2.036096e-04
3.509721e+01	-2.059684e-04
3.529993e+01	-2.083545e-04
3.550382e+01	-2.107683e-04
3.570889e+01	-2.132101e-04
3.591515e+01	-2.156801e-04
3.612259e+01	-2.181788e-04
3.633123e+01	-2.207064e-04
3.654108e+01	-2.232632e-04
3.675214e+01	-2.258497e-04
3.696442e+01	-2.284662e-04
3.717792e+01	-2.311130e-04
3.739266e+01	-2.337904e-04
3.760864e+01	-2.364989e-04
3.782587e+01	-2.392387e-04
3.804435e+01	-2.420103e-04
3.826409e+01	-2.448139e-04
3.848510e+01	-2.476501e-04
3.870739e+01	-2.505191e-04
3.893096e+01	-2.534214e-04
3.915583e+01	-2.563572e-04
3.938199e+01	-2.593271e-04
3.960946e+01	-2.623314e-04
3.983824e+01	-2.653705e-04
4.006834e+01	-2.684448e-04
4.029978e+01	-2.715547e-04
4.053255e+01	-2.747006e-04
4.076666e+01	-2.778830e-04
4.100213e+01	-2.811022e-04
4.123896e+01	-2.843588e-04
4.147715e+01	-2.876531e-04
4.171672e+01	-2.909855e-04
4.195767e+01	-2.943565e-04
4.220002e+01	-2.977666e-04
4.244377e+01	-3.012162e-04
4.268892e+01	-3.047057e-04
4.293549e+01	-3.082357e-04
4.318348e+01	-3.118066e-04
4.343291e+01	-3.154188e-04
4.368377e+01	-3.190729e-04
4.393609e+01	-3.227693e-04
4.418986e+01	-3.265085e-04
4.444510e+01	-3.302911e-04
4.470182e+01	-3.341175e-04
4.496001e+01	-3.379882e-04
4.521970e+01	-3.419037e-04
4.548089e+01	-3.458646e-04
4.574358e+01	-3.498714e-04
4.600779e+01	-3.539245e-04
4.627353e+01	-3.580247e-04
4.654081e+01	-3.621723e-04
4.680963e+01	-3.663680e-04
4.708000e+01	-3.706123e-04
4.735193e+01	-3.749058e-04
4.762543e+01	-3.792490e-04
4.790051e+01	-3.836425e-04
4.817719e+01	-3.880869e-04
4.845545e+01	-3.925828e-04
4.873533e+01	-3.971308e-04
4.901682e+01	-4.017314e-04
4.929994e+01	-4.063854e-04
4.958470e+01	-4.110932e-04
4.987110e+01	-4.158556e-04
5.015915e+01	-4.206732e-04
5.044887e+01	-4.255466e-04
5.074026e+01	-4.304764e-04
5.103333e+01	-4.354633e-04
5.132810e+01	-4.405081e-04
5.162457e+01	-4.456112e-04
5.192275e+01	-4.507735e-04
5.222265e+01	-4.559955e-04
5.252429e+01	-4.612781e-04
5.282767e+01	-4.666218e-04
5.313280e+01	-4.720275e-04
5.343969e+01	-4.774957e-04
5.374836e+01	-4.830274e-04
5.405880e+01	-4.886230e-04
5.437105e+01	-4.942836e-04
5.468509e+01	-5.000096e-04
5.500095e+01	-5.058020e-04
5.531863e+01	-5.116616e-04
5.563815e+01	-5.175889e-04
5.595951e+01	-5.235850e-04
5.628273e+01	-5.296505e-04
5.660782e+01	-5.357863e-04
5.693479e+01	-5.419931e-04
5.726364e+01	-5.482719e-04
5.759439e+01	-5.546233e-04
5.792705e+01	-5.610484e-04
5.826164e+01	-5.675479e-04
5.859815e+01	-5.741226e-04
5.893662e+01	-5.807735e-04
5.927703e+01	-5.875015e-04
5.961941e+01	-5.943074e-04
5.996377e+01	-6.011922e-04
6.031012e+01	-6.081566e-04
6.065847e+01	-6.152018e-04
6.100883e+01	-6.223286e-04
6.136121e+01	-6.295379e-04
6.171563e+01	-6.368307e-04
6.207210e+01	-6.442080e-04
6.243063e+01	-6.516708e-04
6.279122e+01	-6.592200e-04
6.315390e+01	-6.668567e-04
6.351868e+01	-6.745818e-04
6.388556e+01	-6.823964e-04
6.425456e+01	-6.903015e-04
6.462569e+01	-6.982982e-04
6.499897e+01	-7.063875e-04
6.537440e+01	-7.145706e-04
6.575200e+01	-7.228484e-04
6.613178e+01	-7.312221e-04
6.651375e+01	-7.396927e-04
6.689793e+01	-7.482615e-04
6.728433e+01	-7.569296e-04
6.767297e+01	-7.656981e-04
6.806384e+01	-7.745681e-04
6.845698e+01	-7.835409e-04
6.885238e+01	-7.926176e-04
6.925007e+01	-8.017994e-04
6.965005e+01	-8.110876e-04
7.005235e+01	-8.204834e-04
7.045697e+01	-8.299880e-04
7.086393e+01	-8.396027e-04
7.127323e+01	-8.493288e-04
7.168490e+01	-8.591675e-04
7.209895e+01	-8.691202e-04
7.251539e+01	-8.791882e-04
7.293424e+01	-8.893728e-04
7.335551e+01	-8.996754e-04
7.377920e+01	-9.100973e-04
7.420535e+01	-9.206399e-04
7.463396e+01	-9.313046e-04
7.506504e+01	-9.420928e-04
7.549861e+01	-9.530060e-04
7.593469e+01	-9.640457e-04
7.637328e+01	-9.752131e-04
7.681441e+01	-9.865100e-04
7.725809e+01	-9.979376e-04
7.770433e+01	-1.009498e-03
7.815315e+01	-1.021192e-03
7.860456e+01	-1.033021e-03
7.905857e+01	-1.044987e-03
7.951521e+01	-1.057092e-03
7.997449e+01	-1.069338e-03
8.043642e+01	-1.081725e-03
8.090102e+01	-1.094255e-03
8.136830e+01	-1.106931e-03
8.183828e+01	-1.119753e-03
8.231097e+01	-1.132724e-03
8.278640e+01	-1.145845e-03
8.326457e+01	-1.159118e-03
8.374550e+01	-1.172545e-03
8.422921e+01	-1.186128e-03
8.471572e+01	-1.199867e-03
8.520503e+01	-1.213766e-03
8.569717e+01	-1.227826e-03
8.619215e+01	-1.242049e-03
8.669000e+01	-1.256436e-03
8.719071e+01	-1.270990e-03
8.769432e+01	-1.285713e-03
8.820084e+01	-1.300606e-03
8.871029e+01	-1.315671e-03
8.922267e+01	-1.330912e-03
8.973802e+01	-1.346328e-03
9.025634e+01	-1.361923e-03
9.077766e+01	-1.377699e-03
9.130199e+01	-1.393657e-03
9.182935e+01	-1.409801e-03
9.235975e+01	-1.426131e-03
9.289321e+01	-1.442650e-03
9.342976e+01	-1.459361e-03
9.396941e+01	-1.476265e-03
9.451217e+01	-1.493365e-03
9.505807e+01	-1.510663e-03
9.560712e+01	-1.528162e-03
9.615934e+01	-1.545863e-03
9.671476e+01	-1.563769e-03
9.727338e+01	-1.581882e-03
9.783522e+01	-1.600205e-03
9.840032e+01	-1.618740e-03
9.896867e+01	-1.637490e-03
9.954031e+01	-1.656458e-03
1.001153e+02	-1.675644e-03
1.006935e+02	-1.695053e-03
1.012751e+02	-1.714687e-03
1.018601e+02	-1.734548e-03
1.024484e+02	-1.754639e-03
1.030402e+02	-1.774963e-03
1.036353e+02	-1.795522e-03
1.042339e+02	-1.816320e-03
1.048360e+02	-1.837358e-03
1.054415e+02	-1.858640e-03
1.060505e+02	-1.880168e-03
1.066631e+02	-1.901945e-03
1.072791e+02	-1.923975e-03
1.078988e+02	-1.946260e-03
1.085220e+02	-1.968802e-03
1.091488e+02	-1.991606e-03
1.097793e+02	-2.014674e-03
1.104133e+02	-2.038009e-03
1.110511e+02	-2.061615e-03
1.116925e+02	-2.085493e-03
1.123376e+02	-2.109648e-03
1.129865e+02	-2.134083e-03
1.136391e+02	-2.158801e-03
1.142955e+02	-2.183805e-03
1.149556e+02	-2.209098e-03
1.156196e+02	-2.234685e-03
1.162874e+02	-2.260567e-03
1.169591e+02	-2.286750e-03
1.176347e+02	-2.313235e-03
1.183141e+02	-2.340028e-03
1.189975e+02	-2.367130e-03
1.196848e+02	-2.394546e-03
1.203761e+02	-2.422280e-03
1.210714e+02	-2.450335e-03
1.217707e+02	-2.478715e-03
1.224740e+02	-2.507423e-03
1.231814e+02	-2.536463e-03
1.238929e+02	-2.565840e-03
1.246085e+02	-2.595557e-03
1.253283e+02	-2.625619e-03
1.260522e+02	-2.656028e-03
1.267802e+02	-2.686789e-03
1.275125e+02	-2.717906e-03
1.282490e+02	-2.749384e-03
1.289898e+02	-2.781226e-03
1.297348e+02	-2.813437e-03
1.304842e+02	-2.846021e-03
1.312378e+02	-2.878982e-03
1.319959e+02	-2.912324e-03
1.327583e+02	-2.946053e-03
1.335251e+02	-2.980172e-03
1.342963e+02	-3.014686e-03
1.350720e+02	-3.049600e-03
1.358522e+02	-3.084917e-03
1.366368e+02	-3.120644e-03
1.374260e+02	-3.156784e-03
1.382198e+02	-3.193343e-03
1.390182e+02	-3.230325e-03
1.398211e+02	-3.267735e-03
1.406287e+02	-3.305578e-03
1.414410e+02	-3.343859e-03
1.422579e+02	-3.382584e-03
1.430796e+02	-3.421757e-03
1.439060e+02	-3.461383e-03
1.447372e+02	-3.501467e-03
1.455732e+02	-3.542016e-03
1.464141e+02	-3.583035e-03
1.472597e+02	-3.624528e-03
1.481103e+02	-3.666501e-03
1.489658e+02	-3.708960e-03
1.498262e+02	-3.751911e-03
1.506916e+02	-3.795359e-03
1.515620e+02	-3.839309e-03
1.524374e+02	-3.883769e-03
1.533179e+02	-3.928743e-03
1.542034e+02	-3.974238e-03
1.550941e+02	-4.020259e-03
1.559899e+02	-4.066813e-03
1.568909e+02	-4.113905e-03
1.577971e+02	-4.161543e-03
1.587085e+02	-4.209732e-03
1.596252e+02	-4.258479e-03
1.605472e+02	-4.307790e-03
1.614745e+02	-4.357672e-03
1.624072e+02	-4.408131e-03
1.633453e+02	-4.459174e-03
1.642887e+02	-4.510808e-03
1.652377e+02	-4.563039e-03
1.661921e+02	-4.615875e-03
1.671520e+02	-4.669323e-03
1.681175e+02	-4.723388e-03
1.690885e+02	-4.778080e-03
1.700651e+02	-4.833404e-03
1.710474e+02	-4.889369e-03
1.720354e+02	-4.945981e-03
1.730291e+02	-5.003249e-03
1.740285e+02	-5.061179e-03
1.750337e+02	-5.119779e-03
1.760446e+02	-5.179058e-03
1.770615e+02	-5.239022e-03
1.780842e+02	-5.299680e-03
1.791128e+02	-5.361041e-03
1.801473e+02	-5.423111e-03
1.811878e+02	-5.485899e-03
1.822344e+02	-5.549414e-03
1.832870e+02	-5.613664e-03
1.843456e+02	-5.678657e-03
1.854104e+02	-5.744402e-03
1.864813e+02	-5.810908e-03
1.875584e+02	-5.878183e-03
1.886418e+02	-5.946236e-03
1.897313e+02	-6.015077e-03
1.908272e+02	-6.084714e-03
1.919294e+02	-6.155157e-03
1.930380e+02	-6.226415e-03
1.941530e+02	-6.298497e-03
1.952744e+02	-6.371413e-03
1.964023e+02	-6.445173e-03
1.975367e+02	-6.519786e-03
1.986777e+02	-6.595261e-03
1.998252e+02	-6.671610e-03
2.009794e+02	-6.748842e-03
2.021403e+02	-6.826968e-03
2.033078e+02	-6.905997e-03
2.044821e+02	-6.985940e-03
2.056632e+02	-7.066808e-03
2.068511e+02	-7.148611e-03
2.080459e+02	-7.231361e-03
2.092475e+02	-7.315067e-03
2.104561e+02	-7.399742e-03
2.116717e+02	-7.485395e-03
2.128943e+02	-7.572040e-03
2.141240e+02	-7.659686e-03
2.153608e+02	-7.748346e-03
2.166047e+02	-7.838031e-03
2.178558e+02	-7.928754e-03
2.191141e+02	-8.020525e-03
2.203797e+02	-8.113358e-03
2.216526e+02	-8.207264e-03
2.229329e+02	-8.302257e-03
2.242205e+02	-8.398347e-03
2.255156e+02	-8.495549e-03
2.268182e+02	-8.593874e-03
2.281283e+02	-8.693336e-03
2.294459e+02	-8.793948e-03
2.307712e+02	-8.895724e-03
2.321041e+02	-8.998676e-03
2.334447e+02	-9.102818e-03
2.347931e+02	-9.208165e-03
2.361493e+02	-9.314729e-03
2.375133e+02	-9.422525e-03
2.388851e+02	-9.531567e-03
2.402649e+02	-9.641870e-03
2.416527e+02	-9.753447e-03
2.430484e+02	-9.866315e-03
2.444523e+02	-9.980487e-03
2.458642e+02	-1.009598e-02
2.472843e+02	-1.021280e-02
2.487126e+02	-1.033098e-02
2.501492e+02	-1.045052e-02
2.515940e+02	-1.057145e-02
2.530472e+02	-1.069377e-02
2.545088e+02	-1.081751e-02
2.559789e+02	-1.094267e-02
2.574574e+02	-1.106928e-02
2.589444e+02	-1.119736e-02
2.604401e+02	-1.132691e-02
2.619444e+02	-1.145796e-02
2.634574e+02	-1.159053e-02
2.649791e+02	-1.172463e-02
2.665096e+02	-1.186027e-02
2.680489e+02	-1.199749e-02
2.695972e+02	-1.213628e-02
2.711544e+02	-1.227669e-02
2.727205e+02	-1.241871e-02
2.742958e+02	-1.256238e-02
2.758801e+02	-1.270770e-02
2.774736e+02	-1.285470e-02
2.790762e+02	-1.300341e-02
2.806882e+02	-1.315383e-02
2.823094e+02	-1.330598e-02
2.839400e+02	-1.345989e-02
2.855800e+02	-1.361559e-02
2.872295e+02	-1.377307e-02
2.888886e+02	-1.393238e-02
2.905572e+02	-1.409353e-02
2.922354e+02	-1.425654e-02
2.939234e+02	-1.442143e-02
2.956211e+02	-1.458822e-02
2.973286e+02	-1.475694e-02
2.990459e+02	-1.492761e-02
3.007732e+02	-1.510025e-02
3.025104e+02	-1.527488e-02
3.042577e+02	-1.545153e-02
3.060151e+02	-1.563021e-02
3.077826e+02	-1.581096e-02
3.095604e+02	-1.599380e-02
3.113484e+02	-1.617875e-02
3.131467e+02	-1.636583e-02
3.149554e+02	-1.655507e-02
3.167746e+02	-1.674649e-02
3.186043e+02	-1.694012e-02
3.204445e+02	-1.713599e-02
3.222954e+02	-1.733412e-02
3.241570e+02	-1.753453e-02
3.260293e+02	-1.773725e-02
3.279124e+02	-1.794232e-02
3.298064e+02	-1.814975e-02
3.317114e+02	-1.835957e-02
3.336273e+02	-1.857182e-02
3.355544e+02	-1.878651e-02
3.374925e+02	-1.900368e-02
3.394418e+02	-1.922335e-02
3.414024e+02	-1.944556e-02
3.433744e+02	-1.967033e-02
3.453577e+02	-1.989769e-02
3.473525e+02	-2.012767e-02
3.493588e+02	-2.036031e-02
3.513766e+02	-2.059563e-02
3.534062e+02	-2.083366e-02
3.554474e+02	-2.107443e-02
3.575005e+02	-2.131799e-02
3.595654e+02	-2.156434e-02
3.616422e+02	-2.181354e-02
3.637311e+02	-2.206562e-02
3.658320e+02	-2.232059e-02
3.679450e+02	-2.257851e-02
3.700702e+02	-2.283939e-02
3.722077e+02	-2.310329e-02
3.743576e+02	-2.337022e-02
3.765199e+02	-2.364023e-02
3.786946e+02	-2.391336e-02
3.808820e+02	-2.418962e-02
3.830819e+02	-2.446907e-02
3.852946e+02	-2.475174e-02
3.875200e+02	-2.503767e-02
3.897583e+02	-2.532689e-02
3.920096e+02	-2.561944e-02
3.942738e+02	-2.591536e-02
3.965511e+02	-2.621469e-02
3.988416e+02	-2.651746e-02
4.011452e+02	-2.682372e-02
4.034622e+02	-2.713350e-02
4.057926e+02	-2.744686e-02
4.081365e+02	-2.776382e-02
4.104938e+02	-2.808442e-02
4.128648e+02	-2.840872e-02
4.152495e+02	-2.873675e-02
4.176480e+02	-2.906856e-02
4.200603e+02	-2.940418e-02
4.224866e+02	-2.974366e-02
4.249268e+02	-3.008705e-02
4.273812e+02	-3.043440e-02
4.298497e+02	-3.078573e-02
4.323325e+02	-3.114111e-02
4.348297e+02	-3.150058e-02
4.373412e+02	-3.186417e-02
4.398673e+02	-3.223196e-02
4.424079e+02	-3.260397e-02
4.449633e+02	-3.298025e-02
4.475334e+02	-3.336086e-02
4.501183e+02	-3.374585e-02
4.527182e+02	-3.413527e-02
4.553330e+02	-3.452916e-02
4.579630e+02	-3.492757e-02
4.606082e+02	-3.533057e-02
4.632687e+02	-3.573819e-02
4.659445e+02	-3.615050e-02
4.686358e+02	-3.656754e-02
4.713426e+02	-3.698938e-02
4.740650e+02	-3.741606e-02
4.768032e+02	-3.784764e-02
4.795572e+02	-3.828418e-02
4.823271e+02	-3.872573e-02
4.851130e+02	-3.917235e-02
4.879150e+02	-3.962409e-02
4.907332e+02	-4.008102e-02
4.935676e+02	-4.054320e-02
4.964185e+02	-4.101068e-02
4.992858e+02	-4.148352e-02
5.021696e+02	-4.196179e-02
5.050701e+02	-4.244555e-02
5.079874e+02	-4.293486e-02
5.109215e+02	-4.342978e-02
5.138726e+02	-4.393037e-02
5.168407e+02	-4.443671e-02
5.198259e+02	-4.494885e-02
5.228284e+02	-4.546686e-02
5.258482e+02	-4.599081e-02
5.288855e+02	-4.652076e-02
5.319403e+02	-4.705679e-02
5.350128e+02	-4.759896e-02
5.381030e+02	-4.814735e-02
5.412111e+02	-4.870201e-02
5.443371e+02	-4.926303e-02
5.474812e+02	-4.983048e-02
5.506434e+02	-5.040442e-02
5.538239e+02	-5.098493e-02
5.570228e+02	-5.157209e-02
5.602401e+02	-5.216598e-02
5.634760e+02	-5.276666e-02
5.667306e+02	-5.337421e-02
5.700040e+02	-5.398871e-02
5.732964e+02	-5.461025e-02
5.766077e+02	-5.523889e-02
5.799382e+02	-5.587472e-02
5.832879e+02	-5.651783e-02
5.866569e+02	-5.716829e-02
5.900454e+02	-5.782618e-02
5.934535e+02	-5.849160e-02
5.968813e+02	-5.916462e-02
6.003288e+02	-5.984532e-02
6.037963e+02	-6.053381e-02
6.072838e+02	-6.123016e-02
6.107914e+02	-6.193447e-02
6.143194e+02	-6.264681e-02
6.178676e+02	-6.336729e-02
6.214364e+02	-6.409600e-02
6.250258e+02	-6.483302e-02
6.286359e+02	-6.557845e-02
6.322669e+02	-6.633239e-02
6.359189e+02	-6.709492e-02
6.395919e+02	-6.786616e-02
6.432862e+02	-6.864619e-02
6.470017e+02	-6.943511e-02
6.507388e+02	-7.023303e-02
6.544974e+02	-7.104004e-02
6.582778e+02	-7.185624e-02
6.620800e+02	-7.268175e-02
6.659041e+02	-7.351666e-02
6.697504e+02	-7.436108e-02
6.736188e+02	-7.521511e-02
6.775096e+02	-7.607886e-02
6.814229e+02	-7.695245e-02
6.853587e+02	-7.783597e-02
6.893173e+02	-7.872955e-02
6.932988e+02	-7.963329e-02
6.973033e+02	-8.054731e-02
7.013309e+02	-8.147172e-02
