Frequency(Hz)	Magnitude(dB)
1.000000e+01	-2.269183e+00
1.005776e+01	-2.289545e+00
1.011585e+01	-2.310081e+00
1.017428e+01	-2.330607e+00
1.023305e+01	-2.351375e+00
1.029215e+01	-2.372600e+00
1.035160e+01	-2.393723e+00
1.041139e+01	-2.415124e+00
1.047153e+01	-2.436396e+00
1.053201e+01	-2.458068e+00
1.059284e+01	-2.479623e+00
1.065403e+01	-2.501470e+00
1.071556e+01	-2.523572e+00
1.077746e+01	-2.545482e+00
1.083971e+01	-2.567946e+00
1.090232e+01	-2.590265e+00
1.096529e+01	-2.612649e+00
1.102862e+01	-2.635381e+00
1.109232e+01	-2.658210e+00
1.115639e+01	-2.681302e+00
1.122083e+01	-2.704236e+00
1.128564e+01	-2.727675e+00
1.135083e+01	-2.751050e+00
1.141639e+01	-2.774664e+00
1.148233e+01	-2.798374e+00
1.154865e+01	-2.821933e+00
1.161536e+01	-2.846167e+00
1.168245e+01	-2.870111e+00
1.174992e+01	-2.894543e+00
1.181779e+01	-2.918914e+00
1.188605e+01	-2.943581e+00
1.195470e+01	-2.968337e+00
1.202375e+01	-2.993181e+00
1.209320e+01	-3.018019e+00
1.216305e+01	-3.043091e+00
1.223330e+01	-3.068223e+00
1.230396e+01	-3.093604e+00
1.237503e+01	-3.119353e+00
1.244651e+01	-3.144955e+00
1.251840e+01	-3.170878e+00
1.259070e+01	-3.196813e+00
1.266343e+01	-3.223214e+00
1.273657e+01	-3.249237e+00
1.281014e+01	-3.275541e+00
1.288413e+01	-3.302236e+00
1.295855e+01	-3.329091e+00
1.303339e+01	-3.355625e+00
1.310867e+01	-3.382767e+00
1.318439e+01	-3.409912e+00
1.326054e+01	-3.437393e+00
1.333713e+01	-3.464744e+00
1.341417e+01	-3.492353e+00
1.349165e+01	-3.519849e+00
1.356958e+01	-3.547748e+00
1.364795e+01	-3.575715e+00
1.372678e+01	-3.603809e+00
1.380607e+01	-3.632170e+00
1.388581e+01	-3.660720e+00
1.396602e+01	-3.689274e+00
1.404668e+01	-3.717950e+00
1.412782e+01	-3.746802e+00
1.420942e+01	-3.775567e+00
1.429149e+01	-3.805000e+00
1.437404e+01	-3.834042e+00
1.445706e+01	-3.863584e+00
1.454057e+01	-3.893262e+00
1.462455e+01	-3.922650e+00
1.470902e+01	-3.952594e+00
1.479398e+01	-3.982494e+00
1.487943e+01	-4.012463e+00
1.496537e+01	-4.042817e+00
1.505181e+01	-4.073349e+00
1.513875e+01	-4.103675e+00
1.522619e+01	-4.134444e+00
1.531414e+01	-4.165308e+00
1.540259e+01	-4.196151e+00
1.549156e+01	-4.227261e+00
1.558103e+01	-4.258164e+00
1.567103e+01	-4.289959e+00
1.576155e+01	-4.321135e+00
1.585258e+01	-4.352855e+00
1.594415e+01	-4.384908e+00
1.603624e+01	-4.416281e+00
1.612886e+01	-4.448448e+00
1.622202e+01	-4.480527e+00
1.631572e+01	-4.512993e+00
1.640996e+01	-4.545264e+00
1.650474e+01	-4.577676e+00
1.660008e+01	-4.610367e+00
1.669596e+01	-4.643202e+00
1.679239e+01	-4.675875e+00
1.688938e+01	-4.709015e+00
1.698694e+01	-4.742376e+00
1.708505e+01	-4.775285e+00
1.718373e+01	-4.808868e+00
1.728299e+01	-4.842627e+00
1.738281e+01	-4.876257e+00
1.748322e+01	-4.910035e+00
1.758420e+01	-4.943958e+00
1.768576e+01	-4.978008e+00
1.778792e+01	-5.012117e+00
1.789066e+01	-5.046463e+00
1.799399e+01	-5.081024e+00
1.809793e+01	-5.115592e+00
1.820246e+01	-5.150391e+00
1.830760e+01	-5.185091e+00
1.841334e+01	-5.220104e+00
1.851969e+01	-5.255234e+00
1.862666e+01	-5.290217e+00
1.873425e+01	-5.325210e+00
1.884246e+01	-5.360776e+00
1.895129e+01	-5.396443e+00
1.906075e+01	-5.431978e+00
1.917085e+01	-5.467882e+00
1.928158e+01	-5.503756e+00
1.939295e+01	-5.539889e+00
1.950496e+01	-5.575641e+00
1.961762e+01	-5.612040e+00
1.973093e+01	-5.648405e+00
1.984490e+01	-5.684701e+00
1.995952e+01	-5.721352e+00
2.007480e+01	-5.758101e+00
2.019076e+01	-5.794693e+00
2.030738e+01	-5.832001e+00
2.042467e+01	-5.869154e+00
2.054264e+01	-5.906088e+00
2.066130e+01	-5.942985e+00
2.078064e+01	-5.980372e+00
2.090066e+01	-6.018094e+00
2.102139e+01	-6.055616e+00
2.114280e+01	-6.093212e+00
2.126492e+01	-6.131183e+00
2.138775e+01	-6.168981e+00
2.151128e+01	-6.206709e+00
2.163553e+01	-6.244938e+00
2.176050e+01	-6.283335e+00
2.188619e+01	-6.321417e+00
2.201260e+01	-6.359845e+00
2.213974e+01	-6.398322e+00
2.226762e+01	-6.436743e+00
2.239624e+01	-6.475684e+00
2.252560e+01	-6.514428e+00
2.265571e+01	-6.553476e+00
2.278656e+01	-6.592488e+00
2.291818e+01	-6.631400e+00
2.305055e+01	-6.670926e+00
2.318369e+01	-6.710150e+00
2.331760e+01	-6.749357e+00
2.345228e+01	-6.788954e+00
2.358774e+01	-6.828430e+00
2.372398e+01	-6.867862e+00
2.386101e+01	-6.908237e+00
2.399883e+01	-6.947917e+00
2.413745e+01	-6.987853e+00
2.427686e+01	-7.027801e+00
2.441709e+01	-7.067823e+00
2.455812e+01	-7.108479e+00
2.469997e+01	-7.148692e+00
2.484263e+01	-7.189190e+00
2.498612e+01	-7.229471e+00
2.513044e+01	-7.270391e+00
2.527559e+01	-7.311390e+00
2.542158e+01	-7.351411e+00
2.556842e+01	-7.392298e+00
2.571610e+01	-7.433396e+00
2.586463e+01	-7.474179e+00
2.601403e+01	-7.515760e+00
2.616428e+01	-7.557008e+00
2.631541e+01	-7.597909e+00
2.646740e+01	-7.639531e+00
2.662028e+01	-7.680611e+00
2.677404e+01	-7.722468e+00
2.692868e+01	-7.764345e+00
2.708422e+01	-7.805943e+00
2.724066e+01	-7.847599e+00
2.739800e+01	-7.889653e+00
2.755625e+01	-7.930992e+00
2.771541e+01	-7.973473e+00
2.787550e+01	-8.015404e+00
2.803650e+01	-8.057533e+00
2.819844e+01	-8.099987e+00
2.836131e+01	-8.141956e+00
2.852513e+01	-8.184424e+00
2.868989e+01	-8.227210e+00
2.885560e+01	-8.269554e+00
2.902227e+01	-8.312226e+00
2.918990e+01	-8.355015e+00
2.935850e+01	-8.397879e+00
2.952807e+01	-8.440196e+00
2.969863e+01	-8.483440e+00
2.987016e+01	-8.526532e+00
3.004269e+01	-8.569077e+00
3.021622e+01	-8.612486e+00
3.039075e+01	-8.655599e+00
3.056628e+01	-8.698815e+00
3.074283e+01	-8.742636e+00
3.092040e+01	-8.785889e+00
3.109900e+01	-8.828881e+00
3.127862e+01	-8.872877e+00
3.145929e+01	-8.915919e+00
3.164099e+01	-8.960076e+00
3.182375e+01	-9.003393e+00
3.200756e+01	-9.047028e+00
3.219244e+01	-9.091179e+00
3.237838e+01	-9.134694e+00
3.256540e+01	-9.178935e+00
3.275349e+01	-9.222640e+00
3.294268e+01	-9.266894e+00
3.313295e+01	-9.311134e+00
3.332433e+01	-9.355067e+00
3.351681e+01	-9.399446e+00
3.371040e+01	-9.443474e+00
3.390511e+01	-9.487887e+00
3.410094e+01	-9.532058e+00
3.429791e+01	-9.577048e+00
3.449601e+01	-9.621531e+00
3.469526e+01	-9.665964e+00
3.489566e+01	-9.711230e+00
3.509721e+01	-9.755558e+00
3.529993e+01	-9.799938e+00
3.550382e+01	-9.844972e+00
3.570889e+01	-9.889864e+00
3.591515e+01	-9.935479e+00
3.612259e+01	-9.979978e+00
3.633123e+01	-1.002478e+01
3.654108e+01	-1.006969e+01
3.675214e+01	-1.011520e+01
3.696442e+01	-1.016042e+01
3.717792e+01	-1.020543e+01
3.739266e+01	-1.025088e+01
3.760864e+01	-1.029635e+01
3.782587e+01	-1.034167e+01
3.804435e+01	-1.038689e+01
3.826409e+01	-1.043257e+01
3.848510e+01	-1.047835e+01
3.870739e+01	-1.052374e+01
3.893096e+01	-1.056891e+01
3.915583e+01	-1.061484e+01
3.938199e+01	-1.066052e+01
3.960946e+01	-1.070625e+01
3.983824e+01	-1.075203e+01
4.006834e+01	-1.079776e+01
4.029978e+01	-1.084384e+01
4.053255e+01	-1.088966e+01
4.076666e+01	-1.093600e+01
4.100213e+01	-1.098145e+01
4.123896e+01	-1.102786e+01
4.147715e+01	-1.107373e+01
4.171672e+01	-1.111966e+01
4.195767e+01	-1.116552e+01
4.220002e+01	-1.121253e+01
4.244377e+01	-1.125896e+01
4.268892e+01	-1.130475e+01
4.293549e+01	-1.135077e+01
4.318348e+01	-1.139803e+01
4.343291e+01	-1.144389e+01
4.368377e+01	-1.149081e+01
4.393609e+01	-1.153747e+01
4.418986e+01	-1.158363e+01
4.444510e+01	-1.163015e+01
4.470182e+01	-1.167689e+01
4.496001e+01	-1.172341e+01
4.521970e+01	-1.176968e+01
4.548089e+01	-1.181750e+01
4.574358e+01	-1.186326e+01
4.600779e+01	-1.191059e+01
4.627353e+01	-1.195703e+01
4.654081e+01	-1.200372e+01
4.680963e+01	-1.205038e+01
4.708000e+01	-1.209788e+01
4.735193e+01	-1.214436e+01
4.762543e+01	-1.219190e+01
4.790051e+01	-1.223852e+01
4.817719e+01	-1.228563e+01
4.845545e+01	-1.233392e+01
4.873533e+01	-1.238026e+01
4.901682e+01	-1.242733e+01
4.929994e+01	-1.247452e+01
4.958470e+01	-1.252196e+01
4.987110e+01	-1.256933e+01
5.015915e+01	-1.261582e+01
5.044887e+01	-1.266435e+01
5.074026e+01	-1.271064e+01
5.103333e+01	-1.275799e+01
5.132810e+01	-1.280557e+01
5.162457e+01	-1.285374e+01
5.192275e+01	-1.290052e+01
5.222265e+01	-1.294768e+01
5.252429e+01	-1.299484e+01
5.282767e+01	-1.304315e+01
5.313280e+01	-1.309044e+01
5.343969e+01	-1.313806e+01
5.374836e+01	-1.318527e+01
5.405880e+01	-1.323334e+01
5.437105e+01	-1.328117e+01
5.468509e+01	-1.332879e+01
5.500095e+01	-1.337686e+01
5.531863e+01	-1.342469e+01
5.563815e+01	-1.347238e+01
5.595951e+01	-1.351938e+01
5.628273e+01	-1.356742e+01
5.660782e+01	-1.361453e+01
5.693479e+01	-1.366330e+01
5.726364e+01	-1.371086e+01
5.759439e+01	-1.375959e+01
5.792705e+01	-1.380674e+01
5.826164e+01	-1.385520e+01
5.859815e+01	-1.390357e+01
5.893662e+01	-1.395107e+01
5.927703e+01	-1.399851e+01
5.961941e+01	-1.404649e+01
5.996377e+01	-1.409424e+01
6.031012e+01	-1.414277e+01
6.065847e+01	-1.419110e+01
6.100883e+01	-1.423899e+01
6.136121e+01	-1.428703e+01
6.171563e+01	-1.433481e+01
6.207210e+01	-1.438455e+01
6.243063e+01	-1.443189e+01
6.279122e+01	-1.447913e+01
6.315390e+01	-1.452800e+01
6.351868e+01	-1.457626e+01
6.388556e+01	-1.462489e+01
6.425456e+01	-1.467392e+01
6.462569e+01	-1.472093e+01
6.499897e+01	-1.476909e+01
6.537440e+01	-1.481819e+01
6.575200e+01	-1.486757e+01
6.613178e+01	-1.491523e+01
6.651375e+01	-1.496361e+01
6.689793e+01	-1.501073e+01
6.728433e+01	-1.506079e+01
6.767297e+01	-1.510949e+01
6.806384e+01	-1.515780e+01
6.845698e+01	-1.520636e+01
6.885238e+01	-1.525514e+01
6.925007e+01	-1.530388e+01
6.965005e+01	-1.535263e+01
7.005235e+01	-1.539970e+01
7.045697e+01	-1.544965e+01
7.086393e+01	-1.549837e+01
7.127323e+01	-1.554606e+01
7.168490e+01	-1.559463e+01
7.209895e+01	-1.564419e+01
7.251539e+01	-1.569202e+01
7.293424e+01	-1.574093e+01
7.335551e+01	-1.578973e+01
7.377920e+01	-1.583742e+01
7.420535e+01	-1.588632e+01
7.463396e+01	-1.593470e+01
7.506504e+01	-1.598442e+01
7.549861e+01	-1.603315e+01
7.593469e+01	-1.608255e+01
7.637328e+01	-1.613122e+01
7.681441e+01	-1.617928e+01
7.725809e+01	-1.622908e+01
7.770433e+01	-1.627629e+01
7.815315e+01	-1.632665e+01
7.860456e+01	-1.637511e+01
7.905857e+01	-1.642399e+01
7.951521e+01	-1.647293e+01
7.997449e+01	-1.652174e+01
8.043642e+01	-1.657127e+01
8.090102e+01	-1.661912e+01
8.136830e+01	-1.666875e+01
8.183828e+01	-1.671733e+01
8.231097e+01	-1.676621e+01
8.278640e+01	-1.681504e+01
8.326457e+01	-1.686535e+01
8.374550e+01	-1.691308e+01
8.422921e+01	-1.696263e+01
8.471572e+01	-1.701137e+01
8.520503e+01	-1.706009e+01
8.569717e+01	-1.710962e+01
8.619215e+01	-1.715912e+01
8.669000e+01	-1.720727e+01
8.719071e+01	-1.725661e+01
8.769432e+01	-1.730584e+01
8.820084e+01	-1.735567e+01
8.871029e+01	-1.740433e+01
8.922267e+01	-1.745289e+01
8.973802e+01	-1.750265e+01
9.025634e+01	-1.755161e+01
9.077766e+01	-1.760100e+01
9.130199e+01	-1.764925e+01
9.182935e+01	-1.769926e+01
9.235975e+01	-1.774857e+01
9.289321e+01	-1.779677e+01
9.342976e+01	-1.784630e+01
9.396941e+01	-1.789651e+01
9.451217e+01	-1.794461e+01
9.505807e+01	-1.799500e+01
9.560712e+01	-1.804441e+01
9.615934e+01	-1.809307e+01
9.671476e+01	-1.814075e+01
9.727338e+01	-1.819217e+01
9.783522e+01	-1.824040e+01
9.840032e+01	-1.828978e+01
9.896867e+01	-1.833967e+01
9.954031e+01	-1.838782e+01
1.001153e+02	-1.843794e+01
1.006935e+02	-1.848670e+01
1.012751e+02	-1.853741e+01
1.018601e+02	-1.858668e+01
1.024484e+02	-1.863540e+01
1.030402e+02	-1.868258e+01
1.036353e+02	-1.873269e+01
1.042339e+02	-1.878422e+01
1.048360e+02	-1.883178e+01
1.054415e+02	-1.888283e+01
1.060505e+02	-1.893164e+01
1.066631e+02	-1.898076e+01
1.072791e+02	-1.903017e+01
1.078988e+02	-1.907858e+01
1.085220e+02	-1.912884e+01
1.091488e+02	-1.917833e+01
1.097793e+02	-1.922764e+01
1.104133e+02	-1.927685e+01
1.110511e+02	-1.932667e+01
1.116925e+02	-1.937484e+01
1.123376e+02	-1.942543e+01
1.129865e+02	-1.947416e+01
1.136391e+02	-1.952504e+01
1.142955e+02	-1.957523e+01
1.149556e+02	-1.962276e+01
1.156196e+02	-1.967174e+01
1.162874e+02	-1.972313e+01
1.169591e+02	-1.977038e+01
1.176347e+02	-1.982290e+01
1.183141e+02	-1.987206e+01
1.189975e+02	-1.992179e+01
1.196848e+02	-1.997020e+01
1.203761e+02	-2.001971e+01
1.210714e+02	-2.007026e+01
1.217707e+02	-2.011861e+01
1.224740e+02	-2.016727e+01
1.231814e+02	-2.021716e+01
1.238929e+02	-2.026728e+01
1.246085e+02	-2.031724e+01
1.253283e+02	-2.036682e+01
1.260522e+02	-2.041796e+01
1.267802e+02	-2.046483e+01
1.275125e+02	-2.051427e+01
1.282490e+02	-2.056694e+01
1.289898e+02	-2.061588e+01
1.297348e+02	-2.066393e+01
1.304842e+02	-2.071406e+01
1.312378e+02	-2.076297e+01
1.319959e+02	-2.081328e+01
1.327583e+02	-2.086339e+01
1.335251e+02	-2.091039e+01
1.342963e+02	-2.096209e+01
1.350720e+02	-2.101090e+01
1.358522e+02	-2.106123e+01
1.366368e+02	-2.111072e+01
1.374260e+02	-2.115996e+01
1.382198e+02	-2.120877e+01
1.390182e+02	-2.125801e+01
1.398211e+02	-2.131123e+01
1.406287e+02	-2.135827e+01
1.414410e+02	-2.140856e+01
1.422579e+02	-2.145926e+01
1.430796e+02	-2.150799e+01
1.439060e+02	-2.155823e+01
1.447372e+02	-2.160675e+01
1.455732e+02	-2.165834e+01
1.464141e+02	-2.170585e+01
1.472597e+02	-2.175730e+01
1.481103e+02	-2.180619e+01
1.489658e+02	-2.185584e+01
1.498262e+02	-2.190600e+01
1.506916e+02	-2.195472e+01
1.515620e+02	-2.200553e+01
1.524374e+02	-2.205532e+01
1.533179e+02	-2.210463e+01
1.542034e+02	-2.215448e+01
1.550941e+02	-2.220462e+01
1.559899e+02	-2.225257e+01
1.568909e+02	-2.230333e+01
1.577971e+02	-2.235223e+01
1.587085e+02	-2.240345e+01
1.596252e+02	-2.245427e+01
1.605472e+02	-2.250424e+01
1.614745e+02	-2.255132e+01
1.624072e+02	-2.260022e+01
1.633453e+02	-2.265058e+01
1.642887e+02	-2.270048e+01
1.652377e+02	-2.275322e+01
1.661921e+02	-2.280207e+01
1.671520e+02	-2.285157e+01
1.681175e+02	-2.290040e+01
1.690885e+02	-2.295153e+01
1.700651e+02	-2.299821e+01
1.710474e+02	-2.304971e+01
1.720354e+02	-2.309942e+01
1.730291e+02	-2.314894e+01
1.740285e+02	-2.319950e+01
1.750337e+02	-2.325072e+01
1.760446e+02	-2.329893e+01
1.770615e+02	-2.334810e+01
1.780842e+02	-2.339650e+01
1.791128e+02	-2.344796e+01
1.801473e+02	-2.350056e+01
1.811878e+02	-2.354810e+01
1.822344e+02	-2.359752e+01
1.832870e+02	-2.364888e+01
1.843456e+02	-2.369772e+01
1.854104e+02	-2.374904e+01
1.864813e+02	-2.379891e+01
1.875584e+02	-2.384748e+01
1.886418e+02	-2.389747e+01
1.897313e+02	-2.394766e+01
1.908272e+02	-2.399575e+01
1.919294e+02	-2.404570e+01
1.930380e+02	-2.409746e+01
1.941530e+02	-2.414670e+01
1.952744e+02	-2.419716e+01
1.964023e+02	-2.424699e+01
1.975367e+02	-2.429662e+01
1.986777e+02	-2.434714e+01
1.998252e+02	-2.439499e+01
2.009794e+02	-2.444326e+01
2.021403e+02	-2.449331e+01
2.033078e+02	-2.454396e+01
2.044821e+02	-2.459613e+01
2.056632e+02	-2.464428e+01
2.068511e+02	-2.469464e+01
2.080459e+02	-2.474436e+01
2.092475e+02	-2.479805e+01
2.104561e+02	-2.484476e+01
2.116717e+02	-2.489727e+01
2.128943e+02	-2.494560e+01
2.141240e+02	-2.499320e+01
2.153608e+02	-2.504116e+01
2.166047e+02	-2.509126e+01
2.178558e+02	-2.514098e+01
2.191141e+02	-2.519343e+01
2.203797e+02	-2.524560e+01
2.216526e+02	-2.529627e+01
2.229329e+02	-2.534240e+01
2.242205e+02	-2.539243e+01
2.255156e+02	-2.544185e+01
2.268182e+02	-2.549294e+01
2.281283e+02	-2.554605e+01
2.294459e+02	-2.559321e+01
2.307712e+02	-2.564440e+01
2.321041e+02	-2.569244e+01
2.334447e+02	-2.574079e+01
2.347931e+02	-2.579144e+01
2.361493e+02	-2.584217e+01
2.375133e+02	-2.589128e+01
2.388851e+02	-2.594290e+01
2.402649e+02	-2.599399e+01
2.416527e+02	-2.604314e+01
2.430484e+02	-2.609208e+01
2.444523e+02	-2.614429e+01
2.458642e+02	-2.619056e+01
2.472843e+02	-2.624021e+01
2.487126e+02	-2.629375e+01
2.501492e+02	-2.634051e+01
2.515940e+02	-2.639246e+01
2.530472e+02	-2.644093e+01
2.545088e+02	-2.649156e+01
2.559789e+02	-2.654075e+01
2.574574e+02	-2.659388e+01
2.589444e+02	-2.663943e+01
2.604401e+02	-2.669165e+01
2.619444e+02	-2.674275e+01
2.634574e+02	-2.679204e+01
2.649791e+02	-2.684558e+01
2.665096e+02	-2.689026e+01
2.680489e+02	-2.694292e+01
2.695972e+02	-2.699416e+01
2.711544e+02	-2.704409e+01
2.727205e+02	-2.709099e+01
2.742958e+02	-2.714106e+01
2.758801e+02	-2.719223e+01
2.774736e+02	-2.724189e+01
2.790762e+02	-2.729166e+01
2.806882e+02	-2.733964e+01
2.823094e+02	-2.739097e+01
2.839400e+02	-2.744316e+01
2.855800e+02	-2.749054e+01
2.872295e+02	-2.753947e+01
2.888886e+02	-2.759193e+01
2.905572e+02	-2.764435e+01
2.922354e+02	-2.768914e+01
2.939234e+02	-2.773903e+01
2.956211e+02	-2.779168e+01
2.973286e+02	-2.784075e+01
2.990459e+02	-2.788829e+01
3.007732e+02	-2.794688e+01
3.025104e+02	-2.799007e+01
3.042577e+02	-2.804069e+01
3.060151e+02	-2.808919e+01
3.077826e+02	-2.814287e+01
3.095604e+02	-2.818940e+01
3.113484e+02	-2.824225e+01
3.131467e+02	-2.829419e+01
3.149554e+02	-2.834508e+01
3.167746e+02	-2.839276e+01
3.186043e+02	-2.844144e+01
3.204445e+02	-2.848845e+01
3.222954e+02	-2.854278e+01
3.241570e+02	-2.858927e+01
3.260293e+02	-2.863827e+01
3.279124e+02	-2.869279e+01
3.298064e+02	-2.874214e+01
3.317114e+02	-2.879347e+01
3.336273e+02	-2.883910e+01
3.355544e+02	-2.889153e+01
3.374925e+02	-2.894393e+01
3.394418e+02	-2.898954e+01
3.414024e+02	-2.904127e+01
3.433744e+02	-2.908912e+01
3.453577e+02	-2.914495e+01
3.473525e+02	-2.919029e+01
3.493588e+02	-2.924562e+01
3.513766e+02	-2.929209e+01
3.534062e+02	-2.934416e+01
3.554474e+02	-2.939202e+01
3.575005e+02	-2.944255e+01
3.595654e+02	-2.949116e+01
3.616422e+02	-2.954370e+01
3.637311e+02	-2.959299e+01
3.658320e+02	-2.964529e+01
3.679450e+02	-2.969327e+01
3.700702e+02	-2.974631e+01
3.722077e+02	-2.979271e+01
3.743576e+02	-2.984408e+01
3.765199e+02	-2.989171e+01
3.786946e+02	-2.994118e+01
3.808820e+02	-2.998679e+01
3.830819e+02	-3.003919e+01
3.852946e+02	-3.009436e+01
3.875200e+02	-3.014016e+01
3.897583e+02	-3.019518e+01
3.920096e+02	-3.024279e+01
3.942738e+02	-3.028987e+01
3.965511e+02	-3.034408e+01
3.988416e+02	-3.039236e+01
4.011452e+02	-3.044755e+01
4.034622e+02	-3.049598e+01
4.057926e+02	-3.054522e+01
4.081365e+02	-3.059307e+01
4.104938e+02	-3.064460e+01
4.128648e+02	-3.069444e+01
4.152495e+02	-3.074470e+01
4.176480e+02	-3.079222e+01
4.200603e+02	-3.084487e+01
4.224866e+02	-3.089555e+01
4.249268e+02	-3.094066e+01
4.273812e+02	-3.099486e+01
4.298497e+02	-3.105119e+01
4.323325e+02	-3.109621e+01
4.348297e+02	-3.114467e+01
4.373412e+02	-3.120112e+01
4.398673e+02	-3.124494e+01
4.424079e+02	-3.129517e+01
4.449633e+02	-3.134860e+01
4.475334e+02	-3.139066e+01
4.501183e+02	-3.145207e+01
4.527182e+02	-3.149455e+01
4.553330e+02	-3.154787e+01
4.579630e+02	-3.160109e+01
4.606082e+02	-3.164564e+01
4.632687e+02	-3.169614e+01
4.659445e+02	-3.174587e+01
4.686358e+02	-3.179950e+01
4.713426e+02	-3.184326e+01
4.740650e+02	-3.189690e+01
4.768032e+02	-3.194554e+01
4.795572e+02	-3.199510e+01
4.823271e+02	-3.204891e+01
4.851130e+02	-3.210146e+01
4.879150e+02	-3.214366e+01
4.907332e+02	-3.219356e+01
4.935676e+02	-3.225374e+01
4.964185e+02	-3.230316e+01
4.992858e+02	-3.234567e+01
5.021696e+02	-3.239938e+01
5.050701e+02	-3.244736e+01
5.079874e+02	-3.250034e+01
5.109215e+02	-3.254918e+01
5.138726e+02	-3.259973e+01
5.168407e+02	-3.264308e+01
5.198259e+02	-3.270358e+01
5.228284e+02	-3.275077e+01
5.258482e+02	-3.279967e+01
5.288855e+02	-3.284949e+01
5.319403e+02	-3.290848e+01
5.350128e+02	-3.295098e+01
5.381030e+02	-3.300715e+01
5.412111e+02	-3.304910e+01
5.443371e+02	-3.310196e+01
5.474812e+02	-3.315465e+01
5.506434e+02	-3.320584e+01
5.538239e+02	-3.325941e+01
5.570228e+02	-3.330217e+01
5.602401e+02	-3.335141e+01
5.634760e+02	-3.340485e+01
5.667306e+02	-3.345440e+01
5.700040e+02	-3.350653e+01
5.732964e+02	-3.355015e+01
5.766077e+02	-3.360689e+01
5.799382e+02	-3.364843e+01
5.832879e+02	-3.370920e+01
5.866569e+02	-3.375710e+01
5.900454e+02	-3.380050e+01
5.934535e+02	-3.385397e+01
5.968813e+02	-3.390384e+01
6.003288e+02	-3.395639e+01
6.037963e+02	-3.401020e+01
6.072838e+02	-3.405721e+01
6.107914e+02	-3.410515e+01
6.143194e+02	-3.416450e+01
6.178676e+02	-3.421620e+01
6.214364e+02	-3.425995e+01
6.250258e+02	-3.431187e+01
6.286359e+02	-3.435896e+01
6.322669e+02	-3.441179e+01
6.359189e+02	-3.445656e+01
6.395919e+02	-3.450618e+01
6.432862e+02	-3.455995e+01
6.470017e+02	-3.460989e+01
6.507388e+02	-3.466157e+01
6.544974e+02	-3.470801e+01
6.582778e+02	-3.475912e+01
6.620800e+02	-3.481546e+01
6.659041e+02	-3.485466e+01
6.697504e+02	-3.492010e+01
6.736188e+02	-3.495457e+01
6.775096e+02	-3.501141e+01
6.814229e+02	-3.506690e+01
6.853587e+02	-3.511585e+01
6.893173e+02	-3.516940e+01
6.932988e+02	-3.521321e+01
6.973033e+02	-3.527314e+01
7.013309e+02	-3.532007e+01
