Frequency(Hz)	Magnitude(dB)
1.000000e+01	-2.204512e+00
1.005776e+01	-2.224399e+00
1.011585e+01	-2.244653e+00
1.017428e+01	-2.264911e+00
1.023305e+01	-2.285314e+00
1.029215e+01	-2.305883e+00
1.035160e+01	-2.326480e+00
1.041139e+01	-2.347359e+00
1.047153e+01	-2.368150e+00
1.053201e+01	-2.389377e+00
1.059284e+01	-2.410505e+00
1.065403e+01	-2.431966e+00
1.071556e+01	-2.453485e+00
1.077746e+01	-2.475256e+00
1.083971e+01	-2.497166e+00
1.090232e+01	-2.519044e+00
1.096529e+01	-2.541142e+00
1.102862e+01	-2.563329e+00
1.109232e+01	-2.585367e+00
1.115639e+01	-2.608182e+00
1.122083e+01	-2.630816e+00
1.128564e+01	-2.653663e+00
1.135083e+01	-2.676320e+00
1.141639e+01	-2.699821e+00
1.148233e+01	-2.722861e+00
1.154865e+01	-2.746254e+00
1.161536e+01	-2.769641e+00
1.168245e+01	-2.793600e+00
1.174992e+01	-2.817307e+00
1.181779e+01	-2.841378e+00
1.188605e+01	-2.865436e+00
1.195470e+01	-2.889319e+00
1.202375e+01	-2.913993e+00
1.209320e+01	-2.938509e+00
1.216305e+01	-2.963179e+00
1.223330e+01	-2.987724e+00
1.230396e+01	-3.012633e+00
1.237503e+01	-3.038004e+00
1.244651e+01	-3.063029e+00
1.251840e+01	-3.088611e+00
1.259070e+01	-3.114265e+00
1.266343e+01	-3.139617e+00
1.273657e+01	-3.165618e+00
1.281014e+01	-3.191589e+00
1.288413e+01	-3.217712e+00
1.295855e+01	-3.243832e+00
1.303339e+01	-3.270234e+00
1.310867e+01	-3.296822e+00
1.318439e+01	-3.323718e+00
1.326054e+01	-3.350518e+00
1.333713e+01	-3.377357e+00
1.341417e+01	-3.404503e+00
1.349165e+01	-3.431793e+00
1.356958e+01	-3.459167e+00
1.364795e+01	-3.486463e+00
1.372678e+01	-3.514243e+00
1.380607e+01	-3.542065e+00
1.388581e+01	-3.569869e+00
1.396602e+01	-3.598154e+00
1.404668e+01	-3.626338e+00
1.412782e+01	-3.654868e+00
1.420942e+01	-3.683427e+00
1.429149e+01	-3.712200e+00
1.437404e+01	-3.740857e+00
1.445706e+01	-3.769836e+00
1.454057e+01	-3.798897e+00
1.462455e+01	-3.828083e+00
1.470902e+01	-3.857515e+00
1.479398e+01	-3.887019e+00
1.487943e+01	-3.916545e+00
1.496537e+01	-3.946499e+00
1.505181e+01	-3.976788e+00
1.513875e+01	-4.006571e+00
1.522619e+01	-4.036477e+00
1.531414e+01	-4.067043e+00
1.540259e+01	-4.097717e+00
1.549156e+01	-4.127986e+00
1.558103e+01	-4.159051e+00
1.567103e+01	-4.189532e+00
1.576155e+01	-4.220982e+00
1.585258e+01	-4.252130e+00
1.594415e+01	-4.283526e+00
1.603624e+01	-4.314518e+00
1.612886e+01	-4.346278e+00
1.622202e+01	-4.377990e+00
1.631572e+01	-4.409633e+00
1.640996e+01	-4.441844e+00
1.650474e+01	-4.473817e+00
1.660008e+01	-4.506125e+00
1.669596e+01	-4.538460e+00
1.679239e+01	-4.570871e+00
1.688938e+01	-4.603446e+00
1.698694e+01	-4.636337e+00
1.708505e+01	-4.669492e+00
1.718373e+01	-4.702141e+00
1.728299e+01	-4.735534e+00
1.738281e+01	-4.768960e+00
1.748322e+01	-4.802159e+00
1.758420e+01	-4.836010e+00
1.768576e+01	-4.869418e+00
1.778792e+01	-4.903261e+00
1.789066e+01	-4.937096e+00
1.799399e+01	-4.970988e+00
1.809793e+01	-5.005425e+00
1.820246e+01	-5.039344e+00
1.830760e+01	-5.073956e+00
1.841334e+01	-5.108437e+00
1.851969e+01	-5.143080e+00
1.862666e+01	-5.178109e+00
1.873425e+01	-5.212779e+00
1.884246e+01	-5.247976e+00
1.895129e+01	-5.282976e+00
1.906075e+01	-5.318525e+00
1.917085e+01	-5.353587e+00
1.928158e+01	-5.389167e+00
1.939295e+01	-5.424861e+00
1.950496e+01	-5.460509e+00
1.961762e+01	-5.496446e+00
1.973093e+01	-5.532529e+00
1.984490e+01	-5.568422e+00
1.995952e+01	-5.604678e+00
2.007480e+01	-5.640772e+00
2.019076e+01	-5.677368e+00
2.030738e+01	-5.713871e+00
2.042467e+01	-5.750419e+00
2.054264e+01	-5.787049e+00
2.066130e+01	-5.824271e+00
2.078064e+01	-5.861592e+00
2.090066e+01	-5.898507e+00
2.102139e+01	-5.935291e+00
2.114280e+01	-5.972979e+00
2.126492e+01	-6.010087e+00
2.138775e+01	-6.047677e+00
2.151128e+01	-6.085670e+00
2.163553e+01	-6.123484e+00
2.176050e+01	-6.161387e+00
2.188619e+01	-6.199193e+00
2.201260e+01	-6.237188e+00
2.213974e+01	-6.275510e+00
2.226762e+01	-6.313903e+00
2.239624e+01	-6.352133e+00
2.252560e+01	-6.390613e+00
2.265571e+01	-6.429021e+00
2.278656e+01	-6.467770e+00
2.291818e+01	-6.506571e+00
2.305055e+01	-6.545416e+00
2.318369e+01	-6.584571e+00
2.331760e+01	-6.623893e+00
2.345228e+01	-6.662537e+00
2.358774e+01	-6.701930e+00
2.372398e+01	-6.741261e+00
2.386101e+01	-6.781212e+00
2.399883e+01	-6.820382e+00
2.413745e+01	-6.860431e+00
2.427686e+01	-6.899974e+00
2.441709e+01	-6.940117e+00
2.455812e+01	-6.979988e+00
2.469997e+01	-7.019713e+00
2.484263e+01	-7.060073e+00
2.498612e+01	-7.099956e+00
2.513044e+01	-7.140352e+00
2.527559e+01	-7.180949e+00
2.542158e+01	-7.221183e+00
2.556842e+01	-7.261590e+00
2.571610e+01	-7.302613e+00
2.586463e+01	-7.343640e+00
2.601403e+01	-7.383962e+00
2.616428e+01	-7.425183e+00
2.631541e+01	-7.466036e+00
2.646740e+01	-7.507386e+00
2.662028e+01	-7.548507e+00
2.677404e+01	-7.589898e+00
2.692868e+01	-7.631478e+00
2.708422e+01	-7.672207e+00
2.724066e+01	-7.713924e+00
2.739800e+01	-7.755825e+00
2.755625e+01	-7.797247e+00
2.771541e+01	-7.838754e+00
2.787550e+01	-7.881063e+00
2.803650e+01	-7.922888e+00
2.819844e+01	-7.965027e+00
2.836131e+01	-8.007244e+00
2.852513e+01	-8.049001e+00
2.868989e+01	-8.091105e+00
2.885560e+01	-8.133207e+00
2.902227e+01	-8.175704e+00
2.918990e+01	-8.218178e+00
2.935850e+01	-8.260964e+00
2.952807e+01	-8.303280e+00
2.969863e+01	-8.345837e+00
2.987016e+01	-8.388915e+00
3.004269e+01	-8.431214e+00
3.021622e+01	-8.474455e+00
3.039075e+01	-8.517437e+00
3.056628e+01	-8.560218e+00
3.074283e+01	-8.603446e+00
3.092040e+01	-8.646956e+00
3.109900e+01	-8.690358e+00
3.127862e+01	-8.733587e+00
3.145929e+01	-8.777318e+00
3.164099e+01	-8.820294e+00
3.182375e+01	-8.863561e+00
3.200756e+01	-8.906657e+00
3.219244e+01	-8.950860e+00
3.237838e+01	-8.994781e+00
3.256540e+01	-9.038932e+00
3.275349e+01	-9.081947e+00
3.294268e+01	-9.125980e+00
3.313295e+01	-9.169653e+00
3.332433e+01	-9.213539e+00
3.351681e+01	-9.258233e+00
3.371040e+01	-9.301915e+00
3.390511e+01	-9.346443e+00
3.410094e+01	-9.390366e+00
3.429791e+01	-9.434968e+00
3.449601e+01	-9.478854e+00
3.469526e+01	-9.523404e+00
3.489566e+01	-9.568108e+00
3.509721e+01	-9.612555e+00
3.529993e+01	-9.657024e+00
3.550382e+01	-9.701523e+00
3.570889e+01	-9.746077e+00
3.591515e+01	-9.790877e+00
3.612259e+01	-9.835690e+00
3.633123e+01	-9.880690e+00
3.654108e+01	-9.926006e+00
3.675214e+01	-9.970597e+00
3.696442e+01	-1.001552e+01
3.717792e+01	-1.006063e+01
3.739266e+01	-1.010610e+01
3.760864e+01	-1.015121e+01
3.782587e+01	-1.019649e+01
3.804435e+01	-1.024147e+01
3.826409e+01	-1.028722e+01
3.848510e+01	-1.033231e+01
3.870739e+01	-1.037723e+01
3.893096e+01	-1.042333e+01
3.915583e+01	-1.046894e+01
3.938199e+01	-1.051470e+01
3.960946e+01	-1.056000e+01
3.983824e+01	-1.060555e+01
4.006834e+01	-1.065128e+01
4.029978e+01	-1.069676e+01
4.053255e+01	-1.074241e+01
4.076666e+01	-1.078847e+01
4.100213e+01	-1.083463e+01
4.123896e+01	-1.088020e+01
4.147715e+01	-1.092673e+01
4.171672e+01	-1.097200e+01
4.195767e+01	-1.101832e+01
4.220002e+01	-1.106475e+01
4.244377e+01	-1.111072e+01
4.268892e+01	-1.115677e+01
4.293549e+01	-1.120293e+01
4.318348e+01	-1.124934e+01
4.343291e+01	-1.129559e+01
4.368377e+01	-1.134174e+01
4.393609e+01	-1.138830e+01
4.418986e+01	-1.143466e+01
4.444510e+01	-1.148022e+01
4.470182e+01	-1.152723e+01
4.496001e+01	-1.157416e+01
4.521970e+01	-1.162128e+01
4.548089e+01	-1.166690e+01
4.574358e+01	-1.171389e+01
4.600779e+01	-1.176017e+01
4.627353e+01	-1.180773e+01
4.654081e+01	-1.185420e+01
4.680963e+01	-1.190081e+01
4.708000e+01	-1.194809e+01
4.735193e+01	-1.199470e+01
4.762543e+01	-1.204143e+01
4.790051e+01	-1.208819e+01
4.817719e+01	-1.213554e+01
4.845545e+01	-1.218156e+01
4.873533e+01	-1.222944e+01
4.901682e+01	-1.227613e+01
4.929994e+01	-1.232264e+01
4.958470e+01	-1.237062e+01
4.987110e+01	-1.241776e+01
5.015915e+01	-1.246460e+01
5.044887e+01	-1.251212e+01
5.074026e+01	-1.255901e+01
5.103333e+01	-1.260619e+01
5.132810e+01	-1.265383e+01
5.162457e+01	-1.270079e+01
5.192275e+01	-1.274866e+01
5.222265e+01	-1.279503e+01
5.252429e+01	-1.284320e+01
5.282767e+01	-1.289073e+01
5.313280e+01	-1.293856e+01
5.343969e+01	-1.298597e+01
5.374836e+01	-1.303296e+01
5.405880e+01	-1.308072e+01
5.437105e+01	-1.312830e+01
5.468509e+01	-1.317527e+01
5.500095e+01	-1.322349e+01
5.531863e+01	-1.327110e+01
5.563815e+01	-1.331937e+01
5.595951e+01	-1.336655e+01
5.628273e+01	-1.341447e+01
5.660782e+01	-1.346256e+01
5.693479e+01	-1.350971e+01
5.726364e+01	-1.355715e+01
5.759439e+01	-1.360512e+01
5.792705e+01	-1.365351e+01
5.826164e+01	-1.370123e+01
5.859815e+01	-1.374934e+01
5.893662e+01	-1.379694e+01
5.927703e+01	-1.384433e+01
5.961941e+01	-1.389267e+01
5.996377e+01	-1.394224e+01
6.031012e+01	-1.398928e+01
6.065847e+01	-1.403687e+01
6.100883e+01	-1.408523e+01
6.136121e+01	-1.413212e+01
6.171563e+01	-1.418163e+01
6.207210e+01	-1.422976e+01
6.243063e+01	-1.427702e+01
6.279122e+01	-1.432587e+01
6.315390e+01	-1.437450e+01
6.351868e+01	-1.442239e+01
6.388556e+01	-1.447041e+01
6.425456e+01	-1.451980e+01
6.462569e+01	-1.456572e+01
6.499897e+01	-1.461613e+01
6.537440e+01	-1.466308e+01
6.575200e+01	-1.471251e+01
6.613178e+01	-1.476121e+01
6.651375e+01	-1.480890e+01
6.689793e+01	-1.485728e+01
6.728433e+01	-1.490486e+01
6.767297e+01	-1.495384e+01
6.806384e+01	-1.500199e+01
6.845698e+01	-1.505128e+01
6.885238e+01	-1.509962e+01
6.925007e+01	-1.514741e+01
6.965005e+01	-1.519641e+01
7.005235e+01	-1.524497e+01
7.045697e+01	-1.529419e+01
7.086393e+01	-1.534175e+01
7.127323e+01	-1.539051e+01
7.168490e+01	-1.543893e+01
7.209895e+01	-1.548749e+01
7.251539e+01	-1.553648e+01
7.293424e+01	-1.558372e+01
7.335551e+01	-1.563358e+01
7.377920e+01	-1.568179e+01
7.420535e+01	-1.573127e+01
7.463396e+01	-1.577936e+01
7.506504e+01	-1.582845e+01
7.549861e+01	-1.587696e+01
7.593469e+01	-1.592628e+01
7.637328e+01	-1.597489e+01
7.681441e+01	-1.602414e+01
7.725809e+01	-1.607195e+01
7.770433e+01	-1.612138e+01
7.815315e+01	-1.616943e+01
7.860456e+01	-1.621934e+01
7.905857e+01	-1.626763e+01
7.951521e+01	-1.631717e+01
7.997449e+01	-1.636410e+01
8.043642e+01	-1.641420e+01
8.090102e+01	-1.646314e+01
8.136830e+01	-1.651232e+01
8.183828e+01	-1.656011e+01
8.231097e+01	-1.660959e+01
8.278640e+01	-1.665959e+01
8.326457e+01	-1.670772e+01
8.374550e+01	-1.675734e+01
8.422921e+01	-1.680590e+01
8.471572e+01	-1.685490e+01
8.520503e+01	-1.690396e+01
8.569717e+01	-1.695331e+01
8.619215e+01	-1.700179e+01
8.669000e+01	-1.705106e+01
8.719071e+01	-1.710031e+01
8.769432e+01	-1.714884e+01
8.820084e+01	-1.719795e+01
8.871029e+01	-1.724624e+01
8.922267e+01	-1.729731e+01
8.973802e+01	-1.734404e+01
9.025634e+01	-1.739379e+01
9.077766e+01	-1.744342e+01
9.130199e+01	-1.749205e+01
9.182935e+01	-1.754131e+01
9.235975e+01	-1.759033e+01
9.289321e+01	-1.764007e+01
9.342976e+01	-1.769006e+01
9.396941e+01	-1.773673e+01
9.451217e+01	-1.778797e+01
9.505807e+01	-1.783769e+01
9.560712e+01	-1.788569e+01
9.615934e+01	-1.793438e+01
9.671476e+01	-1.798462e+01
9.727338e+01	-1.803433e+01
9.783522e+01	-1.808259e+01
9.840032e+01	-1.813238e+01
9.896867e+01	-1.818177e+01
9.954031e+01	-1.823093e+01
1.001153e+02	-1.827953e+01
1.006935e+02	-1.832874e+01
1.012751e+02	-1.837870e+01
1.018601e+02	-1.842783e+01
1.024484e+02	-1.847693e+01
1.030402e+02	-1.852659e+01
1.036353e+02	-1.857612e+01
1.042339e+02	-1.862599e+01
1.048360e+02	-1.867426e+01
1.054415e+02	-1.872402e+01
1.060505e+02	-1.877218e+01
1.066631e+02	-1.882265e+01
1.072791e+02	-1.887129e+01
1.078988e+02	-1.892129e+01
1.085220e+02	-1.897108e+01
1.091488e+02	-1.902117e+01
1.097793e+02	-1.906956e+01
1.104133e+02	-1.911985e+01
1.110511e+02	-1.916881e+01
1.116925e+02	-1.921699e+01
1.123376e+02	-1.926752e+01
1.129865e+02	-1.931667e+01
1.136391e+02	-1.936670e+01
1.142955e+02	-1.941595e+01
1.149556e+02	-1.946630e+01
1.156196e+02	-1.951355e+01
1.162874e+02	-1.956470e+01
1.169591e+02	-1.961398e+01
1.176347e+02	-1.966349e+01
1.183141e+02	-1.971220e+01
1.189975e+02	-1.976254e+01
1.196848e+02	-1.981263e+01
1.203761e+02	-1.986056e+01
1.210714e+02	-1.991020e+01
1.217707e+02	-1.996053e+01
1.224740e+02	-2.000834e+01
1.231814e+02	-2.005911e+01
1.238929e+02	-2.010838e+01
1.246085e+02	-2.015855e+01
1.253283e+02	-2.020777e+01
1.260522e+02	-2.025759e+01
1.267802e+02	-2.030675e+01
1.275125e+02	-2.035686e+01
1.282490e+02	-2.040409e+01
1.289898e+02	-2.045567e+01
1.297348e+02	-2.050468e+01
1.304842e+02	-2.055508e+01
1.312378e+02	-2.060425e+01
1.319959e+02	-2.065365e+01
1.327583e+02	-2.070323e+01
1.335251e+02	-2.075326e+01
1.342963e+02	-2.080521e+01
1.350720e+02	-2.085365e+01
1.358522e+02	-2.090086e+01
1.366368e+02	-2.095114e+01
1.374260e+02	-2.100142e+01
1.382198e+02	-2.105117e+01
1.390182e+02	-2.110056e+01
1.398211e+02	-2.115067e+01
1.406287e+02	-2.120156e+01
1.414410e+02	-2.124996e+01
1.422579e+02	-2.129901e+01
1.430796e+02	-2.134879e+01
1.439060e+02	-2.139977e+01
1.447372e+02	-2.144966e+01
1.455732e+02	-2.150125e+01
1.464141e+02	-2.154832e+01
1.472597e+02	-2.159774e+01
1.481103e+02	-2.164529e+01
1.489658e+02	-2.169915e+01
1.498262e+02	-2.174454e+01
1.506916e+02	-2.179574e+01
1.515620e+02	-2.184412e+01
1.524374e+02	-2.189446e+01
1.533179e+02	-2.194676e+01
1.542034e+02	-2.199605e+01
1.550941e+02	-2.204511e+01
1.559899e+02	-2.209370e+01
1.568909e+02	-2.214502e+01
1.577971e+02	-2.219573e+01
1.587085e+02	-2.224339e+01
1.596252e+02	-2.229550e+01
1.605472e+02	-2.234252e+01
1.614745e+02	-2.239381e+01
1.624072e+02	-2.244183e+01
1.633453e+02	-2.249338e+01
1.642887e+02	-2.254191e+01
1.652377e+02	-2.259276e+01
1.661921e+02	-2.264184e+01
1.671520e+02	-2.269086e+01
1.681175e+02	-2.274183e+01
1.690885e+02	-2.279135e+01
1.700651e+02	-2.284196e+01
1.710474e+02	-2.289113e+01
1.720354e+02	-2.293998e+01
1.730291e+02	-2.299235e+01
1.740285e+02	-2.303794e+01
1.750337e+02	-2.309113e+01
1.760446e+02	-2.313985e+01
1.770615e+02	-2.318925e+01
1.780842e+02	-2.323869e+01
1.791128e+02	-2.328851e+01
1.801473e+02	-2.333875e+01
1.811878e+02	-2.339130e+01
1.822344e+02	-2.343864e+01
1.832870e+02	-2.348682e+01
1.843456e+02	-2.353765e+01
1.854104e+02	-2.359178e+01
1.864813e+02	-2.363769e+01
1.875584e+02	-2.368859e+01
1.886418e+02	-2.373966e+01
1.897313e+02	-2.378784e+01
1.908272e+02	-2.383817e+01
1.919294e+02	-2.388891e+01
1.930380e+02	-2.393828e+01
1.941530e+02	-2.398658e+01
1.952744e+02	-2.403672e+01
1.964023e+02	-2.408848e+01
1.975367e+02	-2.413836e+01
1.986777e+02	-2.418588e+01
1.998252e+02	-2.423507e+01
2.009794e+02	-2.428779e+01
2.021403e+02	-2.433723e+01
2.033078e+02	-2.438507e+01
2.044821e+02	-2.443552e+01
2.056632e+02	-2.448649e+01
2.068511e+02	-2.453421e+01
2.080459e+02	-2.458792e+01
2.092475e+02	-2.463545e+01
2.104561e+02	-2.468511e+01
2.116717e+02	-2.473464e+01
2.128943e+02	-2.478664e+01
2.141240e+02	-2.483593e+01
2.153608e+02	-2.488599e+01
2.166047e+02	-2.493385e+01
2.178558e+02	-2.498423e+01
2.191141e+02	-2.503564e+01
2.203797e+02	-2.508545e+01
2.216526e+02	-2.513703e+01
2.229329e+02	-2.518544e+01
2.242205e+02	-2.523547e+01
2.255156e+02	-2.528643e+01
2.268182e+02	-2.533251e+01
2.281283e+02	-2.538036e+01
2.294459e+02	-2.543408e+01
2.307712e+02	-2.548556e+01
2.321041e+02	-2.553491e+01
2.334447e+02	-2.558041e+01
2.347931e+02	-2.563527e+01
2.361493e+02	-2.568590e+01
2.375133e+02	-2.573499e+01
2.388851e+02	-2.578331e+01
2.402649e+02	-2.583126e+01
2.416527e+02	-2.588514e+01
2.430484e+02	-2.593389e+01
2.444523e+02	-2.598311e+01
2.458642e+02	-2.603742e+01
2.472843e+02	-2.608273e+01
2.487126e+02	-2.613536e+01
2.501492e+02	-2.618130e+01
2.515940e+02	-2.623196e+01
2.530472e+02	-2.628202e+01
2.545088e+02	-2.633291e+01
2.559789e+02	-2.638460e+01
2.574574e+02	-2.643278e+01
2.589444e+02	-2.647858e+01
2.604401e+02	-2.653087e+01
2.619444e+02	-2.658155e+01
2.634574e+02	-2.663346e+01
2.649791e+02	-2.668387e+01
2.665096e+02	-2.673577e+01
2.680489e+02	-2.678061e+01
2.695972e+02	-2.683016e+01
2.711544e+02	-2.688378e+01
2.727205e+02	-2.693391e+01
2.742958e+02	-2.698659e+01
2.758801e+02	-2.703300e+01
2.774736e+02	-2.708271e+01
2.790762e+02	-2.712876e+01
2.806882e+02	-2.718306e+01
2.823094e+02	-2.722734e+01
2.839400e+02	-2.728594e+01
2.855800e+02	-2.733549e+01
2.872295e+02	-2.737815e+01
2.888886e+02	-2.743242e+01
2.905572e+02	-2.748131e+01
2.922354e+02	-2.753161e+01
2.939234e+02	-2.758469e+01
2.956211e+02	-2.763161e+01
2.973286e+02	-2.768653e+01
2.990459e+02	-2.773297e+01
3.007732e+02	-2.778132e+01
3.025104e+02	-2.783514e+01
3.042577e+02	-2.788375e+01
3.060151e+02	-2.792979e+01
3.077826e+02	-2.798363e+01
3.095604e+02	-2.802964e+01
3.113484e+02	-2.808457e+01
3.131467e+02	-2.812946e+01
3.149554e+02	-2.817989e+01
3.167746e+02	-2.823062e+01
3.186043e+02	-2.828027e+01
3.204445e+02	-2.833231e+01
3.222954e+02	-2.838373e+01
3.241570e+02	-2.843321e+01
3.260293e+02	-2.848344e+01
3.279124e+02	-2.853162e+01
3.298064e+02	-2.858374e+01
3.317114e+02	-2.863080e+01
3.336273e+02	-2.868655e+01
3.355544e+02	-2.873914e+01
3.374925e+02	-2.878551e+01
3.394418e+02	-2.883604e+01
3.414024e+02	-2.888296e+01
3.433744e+02	-2.893853e+01
3.453577e+02	-2.898589e+01
3.473525e+02	-2.903215e+01
3.493588e+02	-2.908689e+01
3.513766e+02	-2.913204e+01
3.534062e+02	-2.918240e+01
3.554474e+02	-2.923556e+01
3.575005e+02	-2.928473e+01
3.595654e+02	-2.933315e+01
3.616422e+02	-2.938333e+01
3.637311e+02	-2.943606e+01
3.658320e+02	-2.948080e+01
3.679450e+02	-2.953612e+01
3.700702e+02	-2.958410e+01
3.722077e+02	-2.963334e+01
3.743576e+02	-2.968351e+01
3.765199e+02	-2.973596e+01
3.786946e+02	-2.978323e+01
3.808820e+02	-2.983314e+01
3.830819e+02	-2.988404e+01
3.852946e+02	-2.993645e+01
3.875200e+02	-2.998491e+01
3.897583e+02	-3.003858e+01
3.920096e+02	-3.008644e+01
3.942738e+02	-3.013419e+01
3.965511e+02	-3.018816e+01
3.988416e+02	-3.023157e+01
4.011452e+02	-3.028150e+01
4.034622e+02	-3.033767e+01
4.057926e+02	-3.038273e+01
4.081365e+02	-3.043800e+01
4.104938e+02	-3.048698e+01
4.128648e+02	-3.053827e+01
4.152495e+02	-3.058548e+01
4.176480e+02	-3.063774e+01
4.200603e+02	-3.069183e+01
4.224866e+02	-3.073753e+01
4.249268e+02	-3.078149e+01
4.273812e+02	-3.083865e+01
4.298497e+02	-3.088538e+01
4.323325e+02	-3.093917e+01
4.348297e+02	-3.098685e+01
4.373412e+02	-3.104031e+01
4.398673e+02	-3.109442e+01
4.424079e+02	-3.113584e+01
4.449633e+02	-3.119091e+01
4.475334e+02	-3.123692e+01
4.501183e+02	-3.128887e+01
4.527182e+02	-3.133966e+01
4.553330e+02	-3.139627e+01
4.579630e+02	-3.144256e+01
4.606082e+02	-3.149315e+01
4.632687e+02	-3.154248e+01
4.659445e+02	-3.159815e+01
4.686358e+02	-3.163762e+01
4.713426e+02	-3.168986e+01
4.740650e+02	-3.173737e+01
4.768032e+02	-3.179065e+01
4.795572e+02	-3.183583e+01
4.823271e+02	-3.189122e+01
4.851130e+02	-3.194294e+01
4.879150e+02	-3.198833e+01
4.907332e+02	-3.203829e+01
4.935676e+02	-3.209540e+01
4.964185e+02	-3.214697e+01
4.992858e+02	-3.219026e+01
5.021696e+02	-3.224309e+01
5.050701e+02	-3.229401e+01
5.079874e+02	-3.234316e+01
5.109215e+02	-3.239951e+01
5.138726e+02	-3.244722e+01
5.168407e+02	-3.249403e+01
5.198259e+02	-3.254118e+01
5.228284e+02	-3.258367e+01
5.258482e+02	-3.264146e+01
5.288855e+02	-3.268468e+01
5.319403e+02	-3.274331e+01
5.350128e+02	-3.279474e+01
5.381030e+02	-3.284743e+01
5.412111e+02	-3.289858e+01
5.443371e+02	-3.294645e+01
5.474812e+02	-3.299803e+01
5.506434e+02	-3.304290e+01
5.538239e+02	-3.309082e+01
5.570228e+02	-3.314564e+01
5.602401e+02	-3.319761e+01
5.634760e+02	-3.324740e+01
5.667306e+02	-3.329932e+01
5.700040e+02	-3.333962e+01
5.732964e+02	-3.339395e+01
5.766077e+02	-3.343783e+01
5.799382e+02	-3.349644e+01
5.832879e+02	-3.354319e+01
5.866569e+02	-3.359728e+01
5.900454e+02	-3.364769e+01
5.934535e+02	-3.369288e+01
5.968813e+02	-3.375268e+01
6.003288e+02	-3.380629e+01
6.037963e+02	-3.385038e+01
6.072838e+02	-3.389832e+01
6.107914e+02	-3.394891e+01
6.143194e+02	-3.399894e+01
6.178676e+02	-3.405690e+01
6.214364e+02	-3.411256e+01
6.250258e+02	-3.414979e+01
6.286359e+02	-3.420015e+01
6.322669e+02	-3.425565e+01
6.359189e+02	-3.429533e+01
6.395919e+02	-3.435030e+01
6.432862e+02	-3.440666e+01
6.470017e+02	-3.445472e+01
6.507388e+02	-3.450281e+01
6.544974e+02	-3.455698e+01
6.582778e+02	-3.460428e+01
6.620800e+02	-3.465163e+01
6.659041e+02	-3.470288e+01
6.697504e+02	-3.475682e+01
6.736188e+02	-3.481063e+01
6.775096e+02	-3.486998e+01
6.814229e+02	-3.490289e+01
6.853587e+02	-3.495543e+01
6.893173e+02	-3.500854e+01
6.932988e+02	-3.507200e+01
6.973033e+02	-3.510566e+01
7.013309e+02	-3.515838e+01
