Frequency(Hz)	Magnitude(dB)
1.000000e+01	-1.951162e-05
1.005776e+01	-1.973767e-05
1.011585e+01	-1.996633e-05
1.017428e+01	-2.019765e-05
1.023305e+01	-2.043164e-05
1.029215e+01	-2.066835e-05
1.035160e+01	-2.090780e-05
1.041139e+01	-2.115002e-05
1.047153e+01	-2.139505e-05
1.053201e+01	-2.164291e-05
1.059284e+01	-2.189365e-05
1.065403e+01	-2.214730e-05
1.071556e+01	-2.240388e-05
1.077746e+01	-2.266343e-05
1.083971e+01	-2.292599e-05
1.090232e+01	-2.319160e-05
1.096529e+01	-2.346028e-05
1.102862e+01	-2.373207e-05
1.109232e+01	-2.400701e-05
1.115639e+01	-2.428514e-05
1.122083e+01	-2.456649e-05
1.128564e+01	-2.485110e-05
1.135083e+01	-2.513900e-05
1.141639e+01	-2.543025e-05
1.148233e+01	-2.572486e-05
1.154865e+01	-2.602289e-05
1.161536e+01	-2.632437e-05
1.168245e+01	-2.662935e-05
1.174992e+01	-2.693785e-05
1.181779e+01	-2.724994e-05
1.188605e+01	-2.756563e-05
1.195470e+01	-2.788499e-05
1.202375e+01	-2.820804e-05
1.209320e+01	-2.853484e-05
1.216305e+01	-2.886542e-05
1.223330e+01	-2.919983e-05
1.230396e+01	-2.953812e-05
1.237503e+01	-2.988033e-05
1.244651e+01	-3.022650e-05
1.251840e+01	-3.057668e-05
1.259070e+01	-3.093092e-05
1.266343e+01	-3.128926e-05
1.273657e+01	-3.165175e-05
1.281014e+01	-3.201845e-05
1.288413e+01	-3.238939e-05
1.295855e+01	-3.276463e-05
1.303339e+01	-3.314421e-05
1.310867e+01	-3.352820e-05
1.318439e+01	-3.391663e-05
1.326054e+01	-3.430956e-05
1.333713e+01	-3.470704e-05
1.341417e+01	-3.510913e-05
1.349165e+01	-3.551588e-05
1.356958e+01	-3.592734e-05
1.364795e+01	-3.634357e-05
1.372678e+01	-3.676462e-05
1.380607e+01	-3.719054e-05
1.388581e+01	-3.762140e-05
1.396602e+01	-3.805726e-05
1.404668e+01	-3.849816e-05
1.412782e+01	-3.894417e-05
1.420942e+01	-3.939534e-05
1.429149e+01	-3.985175e-05
1.437404e+01	-4.031344e-05
1.445706e+01	-4.078048e-05
1.454057e+01	-4.125293e-05
1.462455e+01	-4.173086e-05
1.470902e+01	-4.221432e-05
1.479398e+01	-4.270338e-05
1.487943e+01	-4.319811e-05
1.496537e+01	-4.369857e-05
1.505181e+01	-4.420482e-05
1.513875e+01	-4.471695e-05
1.522619e+01	-4.523500e-05
1.531414e+01	-4.575906e-05
1.540259e+01	-4.628919e-05
1.549156e+01	-4.682546e-05
1.558103e+01	-4.736794e-05
1.567103e+01	-4.791671e-05
1.576155e+01	-4.847184e-05
1.585258e+01	-4.903339e-05
1.594415e+01	-4.960145e-05
1.603624e+01	-5.017610e-05
1.612886e+01	-5.075740e-05
1.622202e+01	-5.134543e-05
1.631572e+01	-5.194028e-05
1.640996e+01	-5.254202e-05
1.650474e+01	-5.315073e-05
1.660008e+01	-5.376649e-05
1.669596e+01	-5.438939e-05
1.679239e+01	-5.501950e-05
1.688938e+01	-5.565691e-05
1.698694e+01	-5.630171e-05
1.708505e+01	-5.695398e-05
1.718373e+01	-5.761380e-05
1.728299e+01	-5.828127e-05
1.738281e+01	-5.895647e-05
1.748322e+01	-5.963949e-05
1.758420e+01	-6.033043e-05
1.768576e+01	-6.102937e-05
1.778792e+01	-6.173640e-05
1.789066e+01	-6.245163e-05
1.799399e+01	-6.317515e-05
1.809793e+01	-6.390704e-05
1.820246e+01	-6.464742e-05
1.830760e+01	-6.539637e-05
1.841334e+01	-6.615400e-05
1.851969e+01	-6.692041e-05
1.862666e+01	-6.769569e-05
1.873425e+01	-6.847996e-05
1.884246e+01	-6.927331e-05
1.895129e+01	-7.007586e-05
1.906075e+01	-7.088770e-05
1.917085e+01	-7.170895e-05
1.928158e+01	-7.253971e-05
1.939295e+01	-7.338009e-05
1.950496e+01	-7.423022e-05
1.961762e+01	-7.509019e-05
1.973093e+01	-7.596012e-05
1.984490e+01	-7.684013e-05
1.995952e+01	-7.773034e-05
2.007480e+01	-7.863086e-05
2.019076e+01	-7.954181e-05
2.030738e+01	-8.046331e-05
2.042467e+01	-8.139550e-05
2.054264e+01	-8.233848e-05
2.066130e+01	-8.329238e-05
2.078064e+01	-8.425734e-05
2.090066e+01	-8.523347e-05
2.102139e+01	-8.622092e-05
2.114280e+01	-8.721980e-05
2.126492e+01	-8.823026e-05
2.138775e+01	-8.925242e-05
2.151128e+01	-9.028642e-05
2.163553e+01	-9.133240e-05
2.176050e+01	-9.239050e-05
2.188619e+01	-9.346086e-05
2.201260e+01	-9.454362e-05
2.213974e+01	-9.563892e-05
2.226762e+01	-9.674691e-05
2.239624e+01	-9.786774e-05
2.252560e+01	-9.900155e-05
2.265571e+01	-1.001485e-04
2.278656e+01	-1.013087e-04
2.291818e+01	-1.024824e-04
2.305055e+01	-1.036697e-04
2.318369e+01	-1.048707e-04
2.331760e+01	-1.060857e-04
2.345228e+01	-1.073147e-04
2.358774e+01	-1.085579e-04
2.372398e+01	-1.098156e-04
2.386101e+01	-1.110878e-04
2.399883e+01	-1.123748e-04
2.413745e+01	-1.136767e-04
2.427686e+01	-1.149936e-04
2.441709e+01	-1.163258e-04
2.455812e+01	-1.176735e-04
2.469997e+01	-1.190367e-04
2.484263e+01	-1.204158e-04
2.498612e+01	-1.218108e-04
2.513044e+01	-1.232220e-04
2.527559e+01	-1.246496e-04
2.542158e+01	-1.260936e-04
2.556842e+01	-1.275544e-04
2.571610e+01	-1.290322e-04
2.586463e+01	-1.305270e-04
2.601403e+01	-1.320392e-04
2.616428e+01	-1.335689e-04
2.631541e+01	-1.351163e-04
2.646740e+01	-1.366816e-04
2.662028e+01	-1.382651e-04
2.677404e+01	-1.398669e-04
2.692868e+01	-1.414873e-04
2.708422e+01	-1.431264e-04
2.724066e+01	-1.447846e-04
2.739800e+01	-1.464619e-04
2.755625e+01	-1.481587e-04
2.771541e+01	-1.498751e-04
2.787550e+01	-1.516114e-04
2.803650e+01	-1.533678e-04
2.819844e+01	-1.551446e-04
2.836131e+01	-1.569420e-04
2.852513e+01	-1.587602e-04
2.868989e+01	-1.605994e-04
2.885560e+01	-1.624600e-04
2.902227e+01	-1.643421e-04
2.918990e+01	-1.662460e-04
2.935850e+01	-1.681720e-04
2.952807e+01	-1.701202e-04
2.969863e+01	-1.720911e-04
2.987016e+01	-1.740848e-04
3.004269e+01	-1.761016e-04
3.021622e+01	-1.781417e-04
3.039075e+01	-1.802055e-04
3.056628e+01	-1.822932e-04
3.074283e+01	-1.844050e-04
3.092040e+01	-1.865414e-04
3.109900e+01	-1.887025e-04
3.127862e+01	-1.908886e-04
3.145929e+01	-1.931000e-04
3.164099e+01	-1.953371e-04
3.182375e+01	-1.976001e-04
3.200756e+01	-1.998893e-04
3.219244e+01	-2.022050e-04
3.237838e+01	-2.045475e-04
3.256540e+01	-2.069172e-04
3.275349e+01	-2.093144e-04
3.294268e+01	-2.117393e-04
3.313295e+01	-2.141923e-04
3.332433e+01	-2.166737e-04
3.351681e+01	-2.191838e-04
3.371040e+01	-2.217231e-04
3.390511e+01	-2.242917e-04
3.410094e+01	-2.268902e-04
3.429791e+01	-2.295187e-04
3.449601e+01	-2.321776e-04
3.469526e+01	-2.348674e-04
3.489566e+01	-2.375883e-04
3.509721e+01	-2.403408e-04
3.529993e+01	-2.431251e-04
3.550382e+01	-2.459417e-04
3.570889e+01	-2.487909e-04
3.591515e+01	-2.516732e-04
3.612259e+01	-2.545888e-04
3.633123e+01	-2.575382e-04
3.654108e+01	-2.605218e-04
3.675214e+01	-2.635399e-04
3.696442e+01	-2.665930e-04
3.717792e+01	-2.696814e-04
3.739266e+01	-2.728057e-04
3.760864e+01	-2.759661e-04
3.782587e+01	-2.791631e-04
3.804435e+01	-2.823972e-04
3.826409e+01	-2.856688e-04
3.848510e+01	-2.889782e-04
3.870739e+01	-2.923260e-04
3.893096e+01	-2.957125e-04
3.915583e+01	-2.991383e-04
3.938199e+01	-3.026038e-04
3.960946e+01	-3.061094e-04
3.983824e+01	-3.096557e-04
4.006834e+01	-3.132430e-04
4.029978e+01	-3.168719e-04
4.053255e+01	-3.205428e-04
4.076666e+01	-3.242562e-04
4.100213e+01	-3.280127e-04
4.123896e+01	-3.318126e-04
4.147715e+01	-3.356566e-04
4.171672e+01	-3.395452e-04
4.195767e+01	-3.434787e-04
4.220002e+01	-3.474579e-04
4.244377e+01	-3.514831e-04
4.268892e+01	-3.555550e-04
4.293549e+01	-3.596740e-04
4.318348e+01	-3.638407e-04
4.343291e+01	-3.680558e-04
4.368377e+01	-3.723196e-04
4.393609e+01	-3.766328e-04
4.418986e+01	-3.809961e-04
4.444510e+01	-3.854098e-04
4.470182e+01	-3.898747e-04
4.496001e+01	-3.943913e-04
4.521970e+01	-3.989602e-04
4.548089e+01	-4.035821e-04
4.574358e+01	-4.082574e-04
4.600779e+01	-4.129870e-04
4.627353e+01	-4.177713e-04
4.654081e+01	-4.226111e-04
4.680963e+01	-4.275069e-04
4.708000e+01	-4.324595e-04
4.735193e+01	-4.374694e-04
4.762543e+01	-4.425373e-04
4.790051e+01	-4.476640e-04
4.817719e+01	-4.528500e-04
4.845545e+01	-4.580961e-04
4.873533e+01	-4.634030e-04
4.901682e+01	-4.687714e-04
4.929994e+01	-4.742019e-04
4.958470e+01	-4.796954e-04
4.987110e+01	-4.852525e-04
5.015915e+01	-4.908739e-04
5.044887e+01	-4.965605e-04
5.074026e+01	-5.023130e-04
5.103333e+01	-5.081321e-04
5.132810e+01	-5.140186e-04
5.162457e+01	-5.199733e-04
5.192275e+01	-5.259969e-04
5.222265e+01	-5.320904e-04
5.252429e+01	-5.382544e-04
5.282767e+01	-5.444899e-04
5.313280e+01	-5.507975e-04
5.343969e+01	-5.571783e-04
5.374836e+01	-5.636329e-04
5.405880e+01	-5.701623e-04
5.437105e+01	-5.767674e-04
5.468509e+01	-5.834489e-04
5.500095e+01	-5.902079e-04
5.531863e+01	-5.970451e-04
5.563815e+01	-6.039616e-04
5.595951e+01	-6.109582e-04
5.628273e+01	-6.180358e-04
5.660782e+01	-6.251954e-04
5.693479e+01	-6.324379e-04
5.726364e+01	-6.397643e-04
5.759439e+01	-6.471756e-04
5.792705e+01	-6.546728e-04
5.826164e+01	-6.622567e-04
5.859815e+01	-6.699286e-04
5.893662e+01	-6.776893e-04
5.927703e+01	-6.855399e-04
5.961941e+01	-6.934814e-04
5.996377e+01	-7.015149e-04
6.031012e+01	-7.096415e-04
6.065847e+01	-7.178622e-04
6.100883e+01	-7.261782e-04
6.136121e+01	-7.345904e-04
6.171563e+01	-7.431001e-04
6.207210e+01	-7.517084e-04
6.243063e+01	-7.604164e-04
6.279122e+01	-7.692252e-04
6.315390e+01	-7.781361e-04
6.351868e+01	-7.871502e-04
6.388556e+01	-7.962688e-04
6.425456e+01	-8.054929e-04
6.462569e+01	-8.148239e-04
6.499897e+01	-8.242629e-04
6.537440e+01	-8.338113e-04
6.575200e+01	-8.434703e-04
6.613178e+01	-8.532412e-04
6.651375e+01	-8.631253e-04
6.689793e+01	-8.731238e-04
6.728433e+01	-8.832381e-04
6.767297e+01	-8.934696e-04
6.806384e+01	-9.038197e-04
6.845698e+01	-9.142895e-04
6.885238e+01	-9.248807e-04
6.925007e+01	-9.355946e-04
6.965005e+01	-9.464325e-04
7.005235e+01	-9.573960e-04
7.045697e+01	-9.684864e-04
7.086393e+01	-9.797053e-04
7.127323e+01	-9.910542e-04
7.168490e+01	-1.002535e-03
7.209895e+01	-1.014148e-03
7.251539e+01	-1.025896e-03
7.293424e+01	-1.037779e-03
7.335551e+01	-1.049801e-03
7.377920e+01	-1.061962e-03
7.420535e+01	-1.074263e-03
7.463396e+01	-1.086707e-03
7.506504e+01	-1.099296e-03
7.549861e+01	-1.112030e-03
7.593469e+01	-1.124911e-03
7.637328e+01	-1.137942e-03
7.681441e+01	-1.151123e-03
7.725809e+01	-1.164458e-03
7.770433e+01	-1.177946e-03
7.815315e+01	-1.191591e-03
7.860456e+01	-1.205394e-03
7.905857e+01	-1.219357e-03
7.951521e+01	-1.233482e-03
7.997449e+01	-1.247770e-03
8.043642e+01	-1.262224e-03
8.090102e+01	-1.276845e-03
8.136830e+01	-1.291635e-03
8.183828e+01	-1.306597e-03
8.231097e+01	-1.321732e-03
8.278640e+01	-1.337042e-03
8.326457e+01	-1.352530e-03
8.374550e+01	-1.368197e-03
8.422921e+01	-1.384045e-03
8.471572e+01	-1.400077e-03
8.520503e+01	-1.416294e-03
8.569717e+01	-1.432700e-03
8.619215e+01	-1.449295e-03
8.669000e+01	-1.466083e-03
8.719071e+01	-1.483065e-03
8.769432e+01	-1.500244e-03
8.820084e+01	-1.517622e-03
8.871029e+01	-1.535200e-03
8.922267e+01	-1.552983e-03
8.973802e+01	-1.570971e-03
9.025634e+01	-1.589168e-03
9.077766e+01	-1.607576e-03
9.130199e+01	-1.626197e-03
9.182935e+01	-1.645033e-03
9.235975e+01	-1.664087e-03
9.289321e+01	-1.683363e-03
9.342976e+01	-1.702861e-03
9.396941e+01	-1.722585e-03
9.451217e+01	-1.742538e-03
9.505807e+01	-1.762721e-03
9.560712e+01	-1.783139e-03
9.615934e+01	-1.803793e-03
9.671476e+01	-1.824686e-03
9.727338e+01	-1.845821e-03
9.783522e+01	-1.867200e-03
9.840032e+01	-1.888828e-03
9.896867e+01	-1.910705e-03
9.954031e+01	-1.932837e-03
1.001153e+02	-1.955224e-03
1.006935e+02	-1.977871e-03
1.012751e+02	-2.000779e-03
1.018601e+02	-2.023954e-03
1.024484e+02	-2.047396e-03
1.030402e+02	-2.071110e-03
1.036353e+02	-2.095099e-03
1.042339e+02	-2.119365e-03
1.048360e+02	-2.143912e-03
1.054415e+02	-2.168744e-03
1.060505e+02	-2.193863e-03
1.066631e+02	-2.219273e-03
1.072791e+02	-2.244977e-03
1.078988e+02	-2.270979e-03
1.085220e+02	-2.297282e-03
1.091488e+02	-2.323890e-03
1.097793e+02	-2.350805e-03
1.104133e+02	-2.378032e-03
1.110511e+02	-2.405575e-03
1.116925e+02	-2.433436e-03
1.123376e+02	-2.461620e-03
1.129865e+02	-2.490131e-03
1.136391e+02	-2.518971e-03
1.142955e+02	-2.548145e-03
1.149556e+02	-2.577658e-03
1.156196e+02	-2.607511e-03
1.162874e+02	-2.637711e-03
1.169591e+02	-2.668260e-03
1.176347e+02	-2.699163e-03
1.183141e+02	-2.730424e-03
1.189975e+02	-2.762046e-03
1.196848e+02	-2.794035e-03
1.203761e+02	-2.826394e-03
1.210714e+02	-2.859128e-03
1.217707e+02	-2.892241e-03
1.224740e+02	-2.925737e-03
1.231814e+02	-2.959621e-03
1.238929e+02	-2.993897e-03
1.246085e+02	-3.028570e-03
1.253283e+02	-3.063644e-03
1.260522e+02	-3.099125e-03
1.267802e+02	-3.135016e-03
1.275125e+02	-3.171322e-03
1.282490e+02	-3.208049e-03
1.289898e+02	-3.245202e-03
1.297348e+02	-3.282784e-03
1.304842e+02	-3.320801e-03
1.312378e+02	-3.359259e-03
1.319959e+02	-3.398161e-03
1.327583e+02	-3.437514e-03
1.335251e+02	-3.477323e-03
1.342963e+02	-3.517592e-03
1.350720e+02	-3.558328e-03
1.358522e+02	-3.599535e-03
1.366368e+02	-3.641219e-03
1.374260e+02	-3.683385e-03
1.382198e+02	-3.726040e-03
1.390182e+02	-3.769188e-03
1.398211e+02	-3.812836e-03
1.406287e+02	-3.856989e-03
1.414410e+02	-3.901654e-03
1.422579e+02	-3.946835e-03
1.430796e+02	-3.992539e-03
1.439060e+02	-4.038772e-03
1.447372e+02	-4.085540e-03
1.455732e+02	-4.132849e-03
1.464141e+02	-4.180706e-03
1.472597e+02	-4.229117e-03
1.481103e+02	-4.278089e-03
1.489658e+02	-4.327627e-03
1.498262e+02	-4.377738e-03
1.506916e+02	-4.428429e-03
1.515620e+02	-4.479707e-03
1.524374e+02	-4.531579e-03
1.533179e+02	-4.584051e-03
1.542034e+02	-4.637130e-03
1.550941e+02	-4.690823e-03
1.559899e+02	-4.745138e-03
1.568909e+02	-4.800081e-03
1.577971e+02	-4.855660e-03
1.587085e+02	-4.911882e-03
1.596252e+02	-4.968755e-03
1.605472e+02	-5.026286e-03
1.614745e+02	-5.084482e-03
1.624072e+02	-5.143352e-03
1.633453e+02	-5.202904e-03
1.642887e+02	-5.263144e-03
1.652377e+02	-5.324082e-03
1.661921e+02	-5.385724e-03
1.671520e+02	-5.448080e-03
1.681175e+02	-5.511157e-03
1.690885e+02	-5.574964e-03
1.700651e+02	-5.639510e-03
1.710474e+02	-5.704802e-03
1.720354e+02	-5.770849e-03
1.730291e+02	-5.837661e-03
1.740285e+02	-5.905246e-03
1.750337e+02	-5.973613e-03
1.760446e+02	-6.042770e-03
1.770615e+02	-6.112728e-03
1.780842e+02	-6.183495e-03
1.791128e+02	-6.255080e-03
1.801473e+02	-6.327494e-03
1.811878e+02	-6.400746e-03
1.822344e+02	-6.474845e-03
1.832870e+02	-6.549801e-03
1.843456e+02	-6.625624e-03
1.854104e+02	-6.702324e-03
1.864813e+02	-6.779911e-03
1.875584e+02	-6.858396e-03
1.886418e+02	-6.937789e-03
1.897313e+02	-7.018100e-03
1.908272e+02	-7.099340e-03
1.919294e+02	-7.181519e-03
1.930380e+02	-7.264649e-03
1.941530e+02	-7.348741e-03
1.952744e+02	-7.433805e-03
1.964023e+02	-7.519852e-03
1.975367e+02	-7.606895e-03
1.986777e+02	-7.694945e-03
1.998252e+02	-7.784013e-03
2.009794e+02	-7.874110e-03
2.021403e+02	-7.965250e-03
2.033078e+02	-8.057444e-03
2.044821e+02	-8.150703e-03
2.056632e+02	-8.245042e-03
2.068511e+02	-8.340471e-03
2.080459e+02	-8.437003e-03
2.092475e+02	-8.534651e-03
2.104561e+02	-8.633429e-03
2.116717e+02	-8.733349e-03
2.128943e+02	-8.834423e-03
2.141240e+02	-8.936667e-03
2.153608e+02	-9.040092e-03
2.166047e+02	-9.144714e-03
2.178558e+02	-9.250544e-03
2.191141e+02	-9.357598e-03
2.203797e+02	-9.465890e-03
2.216526e+02	-9.575434e-03
2.229329e+02	-9.686243e-03
2.242205e+02	-9.798334e-03
2.255156e+02	-9.911720e-03
2.268182e+02	-1.002642e-02
2.281283e+02	-1.014244e-02
2.294459e+02	-1.025980e-02
2.307712e+02	-1.037852e-02
2.321041e+02	-1.049862e-02
2.334447e+02	-1.062010e-02
2.347931e+02	-1.074298e-02
2.361493e+02	-1.086728e-02
2.375133e+02	-1.099302e-02
2.388851e+02	-1.112022e-02
2.402649e+02	-1.124888e-02
2.416527e+02	-1.137903e-02
2.430484e+02	-1.151068e-02
2.444523e+02	-1.164386e-02
2.458642e+02	-1.177857e-02
2.472843e+02	-1.191484e-02
2.487126e+02	-1.205269e-02
2.501492e+02	-1.219212e-02
2.515940e+02	-1.233317e-02
2.530472e+02	-1.247585e-02
2.545088e+02	-1.262017e-02
2.559789e+02	-1.276617e-02
2.574574e+02	-1.291384e-02
2.589444e+02	-1.306323e-02
2.604401e+02	-1.321434e-02
2.619444e+02	-1.336719e-02
2.634574e+02	-1.352181e-02
2.649791e+02	-1.367822e-02
2.665096e+02	-1.383643e-02
2.680489e+02	-1.399647e-02
2.695972e+02	-1.415836e-02
2.711544e+02	-1.432212e-02
2.727205e+02	-1.448777e-02
2.742958e+02	-1.465533e-02
2.758801e+02	-1.482482e-02
2.774736e+02	-1.499627e-02
2.790762e+02	-1.516970e-02
2.806882e+02	-1.534514e-02
2.823094e+02	-1.552260e-02
2.839400e+02	-1.570210e-02
2.855800e+02	-1.588368e-02
2.872295e+02	-1.606736e-02
2.888886e+02	-1.625315e-02
2.905572e+02	-1.644109e-02
2.922354e+02	-1.663120e-02
2.939234e+02	-1.682350e-02
2.956211e+02	-1.701802e-02
2.973286e+02	-1.721479e-02
2.990459e+02	-1.741383e-02
3.007732e+02	-1.761516e-02
3.025104e+02	-1.781882e-02
3.042577e+02	-1.802482e-02
3.060151e+02	-1.823320e-02
3.077826e+02	-1.844399e-02
3.095604e+02	-1.865721e-02
3.113484e+02	-1.887289e-02
3.131467e+02	-1.909105e-02
3.149554e+02	-1.931173e-02
3.167746e+02	-1.953496e-02
3.186043e+02	-1.976076e-02
3.204445e+02	-1.998916e-02
3.222954e+02	-2.022020e-02
3.241570e+02	-2.045391e-02
3.260293e+02	-2.069030e-02
3.279124e+02	-2.092943e-02
3.298064e+02	-2.117131e-02
3.317114e+02	-2.141598e-02
3.336273e+02	-2.166346e-02
3.355544e+02	-2.191381e-02
3.374925e+02	-2.216703e-02
3.394418e+02	-2.242318e-02
3.414024e+02	-2.268228e-02
3.433744e+02	-2.294436e-02
3.453577e+02	-2.320946e-02
3.473525e+02	-2.347762e-02
3.493588e+02	-2.374887e-02
3.513766e+02	-2.402324e-02
3.534062e+02	-2.430078e-02
3.554474e+02	-2.458151e-02
3.575005e+02	-2.486548e-02
3.595654e+02	-2.515271e-02
3.616422e+02	-2.544326e-02
3.637311e+02	-2.573715e-02
3.658320e+02	-2.603442e-02
3.679450e+02	-2.633512e-02
3.700702e+02	-2.663928e-02
3.722077e+02	-2.694694e-02
3.743576e+02	-2.725815e-02
3.765199e+02	-2.757294e-02
3.786946e+02	-2.789135e-02
3.808820e+02	-2.821342e-02
3.830819e+02	-2.853921e-02
3.852946e+02	-2.886874e-02
3.875200e+02	-2.920206e-02
3.897583e+02	-2.953922e-02
3.920096e+02	-2.988026e-02
3.942738e+02	-3.022522e-02
3.965511e+02	-3.057415e-02
3.988416e+02	-3.092710e-02
4.011452e+02	-3.128410e-02
4.034622e+02	-3.164521e-02
4.057926e+02	-3.201048e-02
4.081365e+02	-3.237994e-02
4.104938e+02	-3.275365e-02
4.128648e+02	-3.313166e-02
4.152495e+02	-3.351402e-02
4.176480e+02	-3.390077e-02
4.200603e+02	-3.429196e-02
4.224866e+02	-3.468765e-02
4.249268e+02	-3.508789e-02
4.273812e+02	-3.549273e-02
4.298497e+02	-3.590221e-02
4.323325e+02	-3.631641e-02
4.348297e+02	-3.673536e-02
4.373412e+02	-3.715912e-02
4.398673e+02	-3.758775e-02
4.424079e+02	-3.802131e-02
4.449633e+02	-3.845984e-02
4.475334e+02	-3.890341e-02
4.501183e+02	-3.935207e-02
4.527182e+02	-3.980588e-02
4.553330e+02	-4.026490e-02
4.579630e+02	-4.072918e-02
4.606082e+02	-4.119880e-02
4.632687e+02	-4.167380e-02
4.659445e+02	-4.215426e-02
4.686358e+02	-4.264022e-02
4.713426e+02	-4.313176e-02
4.740650e+02	-4.362894e-02
4.768032e+02	-4.413182e-02
4.795572e+02	-4.464047e-02
4.823271e+02	-4.515494e-02
4.851130e+02	-4.567532e-02
4.879150e+02	-4.620166e-02
4.907332e+02	-4.673403e-02
4.935676e+02	-4.727251e-02
4.964185e+02	-4.781715e-02
4.992858e+02	-4.836804e-02
5.021696e+02	-4.892523e-02
5.050701e+02	-4.948881e-02
5.079874e+02	-5.005884e-02
5.109215e+02	-5.063540e-02
5.138726e+02	-5.121856e-02
5.168407e+02	-5.180840e-02
5.198259e+02	-5.240498e-02
5.228284e+02	-5.300840e-02
5.258482e+02	-5.361872e-02
5.288855e+02	-5.423602e-02
5.319403e+02	-5.486039e-02
5.350128e+02	-5.549190e-02
5.381030e+02	-5.613063e-02
5.412111e+02	-5.677666e-02
5.443371e+02	-5.743008e-02
5.474812e+02	-5.809097e-02
5.506434e+02	-5.875941e-02
5.538239e+02	-5.943549e-02
5.570228e+02	-6.011930e-02
5.602401e+02	-6.081091e-02
5.634760e+02	-6.151043e-02
5.667306e+02	-6.221794e-02
5.700040e+02	-6.293352e-02
5.732964e+02	-6.365728e-02
5.766077e+02	-6.438930e-02
5.799382e+02	-6.512967e-02
5.832879e+02	-6.587849e-02
5.866569e+02	-6.663585e-02
5.900454e+02	-6.740185e-02
5.934535e+02	-6.817659e-02
5.968813e+02	-6.896016e-02
6.003288e+02	-6.975267e-02
6.037963e+02	-7.055421e-02
6.072838e+02	-7.136488e-02
6.107914e+02	-7.218479e-02
6.143194e+02	-7.301404e-02
6.178676e+02	-7.385274e-02
6.214364e+02	-7.470098e-02
6.250258e+02	-7.555889e-02
6.286359e+02	-7.642656e-02
6.322669e+02	-7.730410e-02
6.359189e+02	-7.819163e-02
6.395919e+02	-7.908926e-02
6.432862e+02	-7.999710e-02
6.470017e+02	-8.091526e-02
6.507388e+02	-8.184386e-02
6.544974e+02	-8.278301e-02
6.582778e+02	-8.373284e-02
6.620800e+02	-8.469345e-02
6.659041e+02	-8.566498e-02
6.697504e+02	-8.664755e-02
6.736188e+02	-8.764126e-02
6.775096e+02	-8.864626e-02
6.814229e+02	-8.966267e-02
6.853587e+02	-9.069060e-02
6.893173e+02	-9.173020e-02
6.932988e+02	-9.278158e-02
6.973033e+02	-9.384489e-02
7.013309e+02	-9.492025e-02
