Frequency(Hz)	Magnitude(dB)
1.000000e+01	-2.313767e+00
1.005776e+01	-2.334871e+00
1.011585e+01	-2.355586e+00
1.017428e+01	-2.376786e+00
1.023305e+01	-2.397772e+00
1.029215e+01	-2.419068e+00
1.035160e+01	-2.440409e+00
1.041139e+01	-2.462207e+00
1.047153e+01	-2.483704e+00
1.053201e+01	-2.505702e+00
1.059284e+01	-2.527492e+00
1.065403e+01	-2.549980e+00
1.071556e+01	-2.571791e+00
1.077746e+01	-2.594414e+00
1.083971e+01	-2.616982e+00
1.090232e+01	-2.639767e+00
1.096529e+01	-2.662379e+00
1.102862e+01	-2.685648e+00
1.109232e+01	-2.708684e+00
1.115639e+01	-2.732005e+00
1.122083e+01	-2.755416e+00
1.128564e+01	-2.778980e+00
1.135083e+01	-2.802859e+00
1.141639e+01	-2.826577e+00
1.148233e+01	-2.850749e+00
1.154865e+01	-2.874586e+00
1.161536e+01	-2.899148e+00
1.168245e+01	-2.923484e+00
1.174992e+01	-2.948233e+00
1.181779e+01	-2.972551e+00
1.188605e+01	-2.997667e+00
1.195470e+01	-3.022674e+00
1.202375e+01	-3.047768e+00
1.209320e+01	-3.073126e+00
1.216305e+01	-3.098477e+00
1.223330e+01	-3.124352e+00
1.230396e+01	-3.149992e+00
1.237503e+01	-3.175621e+00
1.244651e+01	-3.201725e+00
1.251840e+01	-3.227714e+00
1.259070e+01	-3.254217e+00
1.266343e+01	-3.280639e+00
1.273657e+01	-3.307186e+00
1.281014e+01	-3.334193e+00
1.288413e+01	-3.360854e+00
1.295855e+01	-3.388034e+00
1.303339e+01	-3.415363e+00
1.310867e+01	-3.442476e+00
1.318439e+01	-3.469946e+00
1.326054e+01	-3.497523e+00
1.333713e+01	-3.525219e+00
1.341417e+01	-3.552940e+00
1.349165e+01	-3.581232e+00
1.356958e+01	-3.609100e+00
1.364795e+01	-3.637383e+00
1.372678e+01	-3.666065e+00
1.380607e+01	-3.694640e+00
1.388581e+01	-3.723233e+00
1.396602e+01	-3.752183e+00
1.404668e+01	-3.781309e+00
1.412782e+01	-3.810552e+00
1.420942e+01	-3.839925e+00
1.429149e+01	-3.869190e+00
1.437404e+01	-3.898600e+00
1.445706e+01	-3.928565e+00
1.454057e+01	-3.958470e+00
1.462455e+01	-3.988203e+00
1.470902e+01	-4.018263e+00
1.479398e+01	-4.048951e+00
1.487943e+01	-4.079133e+00
1.496537e+01	-4.109553e+00
1.505181e+01	-4.140430e+00
1.513875e+01	-4.171319e+00
1.522619e+01	-4.202139e+00
1.531414e+01	-4.233134e+00
1.540259e+01	-4.264347e+00
1.549156e+01	-4.295739e+00
1.558103e+01	-4.327191e+00
1.567103e+01	-4.359080e+00
1.576155e+01	-4.390495e+00
1.585258e+01	-4.422483e+00
1.594415e+01	-4.454343e+00
1.603624e+01	-4.486760e+00
1.612886e+01	-4.518899e+00
1.622202e+01	-4.551188e+00
1.631572e+01	-4.583879e+00
1.640996e+01	-4.616284e+00
1.650474e+01	-4.649376e+00
1.660008e+01	-4.682399e+00
1.669596e+01	-4.715429e+00
1.679239e+01	-4.748713e+00
1.688938e+01	-4.781971e+00
1.698694e+01	-4.815191e+00
1.708505e+01	-4.848807e+00
1.718373e+01	-4.882399e+00
1.728299e+01	-4.916582e+00
1.738281e+01	-4.950430e+00
1.748322e+01	-4.984465e+00
1.758420e+01	-5.018647e+00
1.768576e+01	-5.052850e+00
1.778792e+01	-5.087424e+00
1.789066e+01	-5.122097e+00
1.799399e+01	-5.156850e+00
1.809793e+01	-5.191581e+00
1.820246e+01	-5.226748e+00
1.830760e+01	-5.261766e+00
1.841334e+01	-5.296747e+00
1.851969e+01	-5.332162e+00
1.862666e+01	-5.367358e+00
1.873425e+01	-5.403182e+00
1.884246e+01	-5.438716e+00
1.895129e+01	-5.474562e+00
1.906075e+01	-5.510485e+00
1.917085e+01	-5.546454e+00
1.928158e+01	-5.582431e+00
1.939295e+01	-5.618765e+00
1.950496e+01	-5.655186e+00
1.961762e+01	-5.692006e+00
1.973093e+01	-5.728306e+00
1.984490e+01	-5.764885e+00
1.995952e+01	-5.801837e+00
2.007480e+01	-5.838902e+00
2.019076e+01	-5.875770e+00
2.030738e+01	-5.912923e+00
2.042467e+01	-5.950276e+00
2.054264e+01	-5.987427e+00
2.066130e+01	-6.024962e+00
2.078064e+01	-6.062620e+00
2.090066e+01	-6.100573e+00
2.102139e+01	-6.138192e+00
2.114280e+01	-6.175946e+00
2.126492e+01	-6.214024e+00
2.138775e+01	-6.252187e+00
2.151128e+01	-6.290322e+00
2.163553e+01	-6.328628e+00
2.176050e+01	-6.367249e+00
2.188619e+01	-6.405783e+00
2.201260e+01	-6.444272e+00
2.213974e+01	-6.483006e+00
2.226762e+01	-6.521863e+00
2.239624e+01	-6.560722e+00
2.252560e+01	-6.599587e+00
2.265571e+01	-6.639129e+00
2.278656e+01	-6.678385e+00
2.291818e+01	-6.717291e+00
2.305055e+01	-6.756917e+00
2.318369e+01	-6.796513e+00
2.331760e+01	-6.835988e+00
2.345228e+01	-6.875795e+00
2.358774e+01	-6.915750e+00
2.372398e+01	-6.955687e+00
2.386101e+01	-6.995506e+00
2.399883e+01	-7.035602e+00
2.413745e+01	-7.075825e+00
2.427686e+01	-7.116127e+00
2.441709e+01	-7.156195e+00
2.455812e+01	-7.196741e+00
2.469997e+01	-7.237356e+00
2.484263e+01	-7.278337e+00
2.498612e+01	-7.318923e+00
2.513044e+01	-7.359425e+00
2.527559e+01	-7.400111e+00
2.542158e+01	-7.441139e+00
2.556842e+01	-7.482472e+00
2.571610e+01	-7.523432e+00
2.586463e+01	-7.564575e+00
2.601403e+01	-7.606524e+00
2.616428e+01	-7.647105e+00
2.631541e+01	-7.688561e+00
2.646740e+01	-7.730205e+00
2.662028e+01	-7.771406e+00
2.677404e+01	-7.813889e+00
2.692868e+01	-7.855286e+00
2.708422e+01	-7.897016e+00
2.724066e+01	-7.939750e+00
2.739800e+01	-7.981080e+00
2.755625e+01	-8.023726e+00
2.771541e+01	-8.065632e+00
2.787550e+01	-8.108104e+00
2.803650e+01	-8.149800e+00
2.819844e+01	-8.192859e+00
2.836131e+01	-8.235287e+00
2.852513e+01	-8.277665e+00
2.868989e+01	-8.320222e+00
2.885560e+01	-8.362721e+00
2.902227e+01	-8.405526e+00
2.918990e+01	-8.448321e+00
2.935850e+01	-8.491337e+00
2.952807e+01	-8.534198e+00
2.969863e+01	-8.577445e+00
2.987016e+01	-8.620378e+00
3.004269e+01	-8.663762e+00
3.021622e+01	-8.707012e+00
3.039075e+01	-8.750247e+00
3.056628e+01	-8.793514e+00
3.074283e+01	-8.837100e+00
3.092040e+01	-8.881090e+00
3.109900e+01	-8.924536e+00
3.127862e+01	-8.967895e+00
3.145929e+01	-9.011844e+00
3.164099e+01	-9.055597e+00
3.182375e+01	-9.099110e+00
3.200756e+01	-9.143365e+00
3.219244e+01	-9.187178e+00
3.237838e+01	-9.231087e+00
3.256540e+01	-9.275404e+00
3.275349e+01	-9.319402e+00
3.294268e+01	-9.363961e+00
3.313295e+01	-9.408035e+00
3.332433e+01	-9.452458e+00
3.351681e+01	-9.496436e+00
3.371040e+01	-9.540623e+00
3.390511e+01	-9.585290e+00
3.410094e+01	-9.629664e+00
3.429791e+01	-9.674318e+00
3.449601e+01	-9.718924e+00
3.469526e+01	-9.764704e+00
3.489566e+01	-9.808408e+00
3.509721e+01	-9.853517e+00
3.529993e+01	-9.898318e+00
3.550382e+01	-9.942974e+00
3.570889e+01	-9.988251e+00
3.591515e+01	-1.003328e+01
3.612259e+01	-1.007855e+01
3.633123e+01	-1.012331e+01
3.654108e+01	-1.016903e+01
3.675214e+01	-1.021378e+01
3.696442e+01	-1.025948e+01
3.717792e+01	-1.030512e+01
3.739266e+01	-1.035053e+01
3.760864e+01	-1.039520e+01
3.782587e+01	-1.044125e+01
3.804435e+01	-1.048621e+01
3.826409e+01	-1.053245e+01
3.848510e+01	-1.057828e+01
3.870739e+01	-1.062333e+01
3.893096e+01	-1.066937e+01
3.915583e+01	-1.071449e+01
3.938199e+01	-1.076057e+01
3.960946e+01	-1.080591e+01
3.983824e+01	-1.085261e+01
4.006834e+01	-1.089850e+01
4.029978e+01	-1.094439e+01
4.053255e+01	-1.099068e+01
4.076666e+01	-1.103698e+01
4.100213e+01	-1.108251e+01
4.123896e+01	-1.112923e+01
4.147715e+01	-1.117512e+01
4.171672e+01	-1.122143e+01
4.195767e+01	-1.126729e+01
4.220002e+01	-1.131365e+01
4.244377e+01	-1.135968e+01
4.268892e+01	-1.140687e+01
4.293549e+01	-1.145276e+01
4.318348e+01	-1.149930e+01
4.343291e+01	-1.154572e+01
4.368377e+01	-1.159259e+01
4.393609e+01	-1.163833e+01
4.418986e+01	-1.168551e+01
4.444510e+01	-1.173228e+01
4.470182e+01	-1.177911e+01
4.496001e+01	-1.182561e+01
4.521970e+01	-1.187243e+01
4.548089e+01	-1.191925e+01
4.574358e+01	-1.196638e+01
4.600779e+01	-1.201327e+01
4.627353e+01	-1.205964e+01
4.654081e+01	-1.210696e+01
4.680963e+01	-1.215359e+01
4.708000e+01	-1.220095e+01
4.735193e+01	-1.224733e+01
4.762543e+01	-1.229424e+01
4.790051e+01	-1.234207e+01
4.817719e+01	-1.238888e+01
4.845545e+01	-1.243651e+01
4.873533e+01	-1.248343e+01
4.901682e+01	-1.253054e+01
4.929994e+01	-1.257791e+01
4.958470e+01	-1.262497e+01
4.987110e+01	-1.267234e+01
5.015915e+01	-1.271935e+01
5.044887e+01	-1.276675e+01
5.074026e+01	-1.281427e+01
5.103333e+01	-1.286138e+01
5.132810e+01	-1.290897e+01
5.162457e+01	-1.295718e+01
5.192275e+01	-1.300479e+01
5.222265e+01	-1.305181e+01
5.252429e+01	-1.309946e+01
5.282767e+01	-1.314707e+01
5.313280e+01	-1.319538e+01
5.343969e+01	-1.324197e+01
5.374836e+01	-1.329083e+01
5.405880e+01	-1.333790e+01
5.437105e+01	-1.338514e+01
5.468509e+01	-1.343316e+01
5.500095e+01	-1.348140e+01
5.531863e+01	-1.352867e+01
5.563815e+01	-1.357631e+01
5.595951e+01	-1.362476e+01
5.628273e+01	-1.367189e+01
5.660782e+01	-1.372092e+01
5.693479e+01	-1.376818e+01
5.726364e+01	-1.381575e+01
5.759439e+01	-1.386392e+01
5.792705e+01	-1.391207e+01
5.826164e+01	-1.395951e+01
5.859815e+01	-1.400845e+01
5.893662e+01	-1.405647e+01
5.927703e+01	-1.410384e+01
5.961941e+01	-1.415181e+01
5.996377e+01	-1.419994e+01
6.031012e+01	-1.424840e+01
6.065847e+01	-1.429660e+01
6.100883e+01	-1.434428e+01
6.136121e+01	-1.439373e+01
6.171563e+01	-1.444095e+01
6.207210e+01	-1.448886e+01
6.243063e+01	-1.453781e+01
6.279122e+01	-1.458606e+01
6.315390e+01	-1.463459e+01
6.351868e+01	-1.468357e+01
6.388556e+01	-1.473122e+01
6.425456e+01	-1.477932e+01
6.462569e+01	-1.482801e+01
6.499897e+01	-1.487531e+01
6.537440e+01	-1.492387e+01
6.575200e+01	-1.497210e+01
6.613178e+01	-1.502101e+01
6.651375e+01	-1.507028e+01
6.689793e+01	-1.511777e+01
6.728433e+01	-1.516660e+01
6.767297e+01	-1.521598e+01
6.806384e+01	-1.526407e+01
6.845698e+01	-1.531313e+01
6.885238e+01	-1.536142e+01
6.925007e+01	-1.540882e+01
6.965005e+01	-1.545904e+01
7.005235e+01	-1.550658e+01
7.045697e+01	-1.555517e+01
7.086393e+01	-1.560395e+01
7.127323e+01	-1.565301e+01
7.168490e+01	-1.570143e+01
7.209895e+01	-1.575012e+01
7.251539e+01	-1.579827e+01
7.293424e+01	-1.584779e+01
7.335551e+01	-1.589633e+01
7.377920e+01	-1.594491e+01
7.420535e+01	-1.599302e+01
7.463396e+01	-1.604258e+01
7.506504e+01	-1.609107e+01
7.549861e+01	-1.614001e+01
7.593469e+01	-1.618874e+01
7.637328e+01	-1.623727e+01
7.681441e+01	-1.628640e+01
7.725809e+01	-1.633527e+01
7.770433e+01	-1.638447e+01
7.815315e+01	-1.643250e+01
7.860456e+01	-1.648249e+01
7.905857e+01	-1.653037e+01
7.951521e+01	-1.657940e+01
7.997449e+01	-1.662828e+01
8.043642e+01	-1.667729e+01
8.090102e+01	-1.672825e+01
8.136830e+01	-1.677545e+01
8.183828e+01	-1.682533e+01
8.231097e+01	-1.687432e+01
8.278640e+01	-1.692270e+01
8.326457e+01	-1.697244e+01
8.374550e+01	-1.702059e+01
8.422921e+01	-1.706976e+01
8.471572e+01	-1.711846e+01
8.520503e+01	-1.716821e+01
8.569717e+01	-1.721865e+01
8.619215e+01	-1.726580e+01
8.669000e+01	-1.731614e+01
8.719071e+01	-1.736401e+01
8.769432e+01	-1.741359e+01
8.820084e+01	-1.746245e+01
8.871029e+01	-1.751065e+01
8.922267e+01	-1.756036e+01
8.973802e+01	-1.760993e+01
9.025634e+01	-1.766012e+01
9.077766e+01	-1.770990e+01
9.130199e+01	-1.775716e+01
9.182935e+01	-1.780802e+01
9.235975e+01	-1.785657e+01
9.289321e+01	-1.790464e+01
9.342976e+01	-1.795386e+01
9.396941e+01	-1.800347e+01
9.451217e+01	-1.805370e+01
9.505807e+01	-1.810303e+01
9.560712e+01	-1.815197e+01
9.615934e+01	-1.820047e+01
9.671476e+01	-1.825033e+01
9.727338e+01	-1.830012e+01
9.783522e+01	-1.834765e+01
9.840032e+01	-1.839804e+01
9.896867e+01	-1.844620e+01
9.954031e+01	-1.849673e+01
1.001153e+02	-1.854509e+01
1.006935e+02	-1.859496e+01
1.012751e+02	-1.864547e+01
1.018601e+02	-1.869419e+01
1.024484e+02	-1.874272e+01
1.030402e+02	-1.879175e+01
1.036353e+02	-1.884263e+01
1.042339e+02	-1.889105e+01
1.048360e+02	-1.894198e+01
1.054415e+02	-1.898908e+01
1.060505e+02	-1.904019e+01
1.066631e+02	-1.908905e+01
1.072791e+02	-1.913853e+01
1.078988e+02	-1.918849e+01
1.085220e+02	-1.923781e+01
1.091488e+02	-1.928716e+01
1.097793e+02	-1.933687e+01
1.104133e+02	-1.938512e+01
1.110511e+02	-1.943454e+01
1.116925e+02	-1.948594e+01
1.123376e+02	-1.953371e+01
1.129865e+02	-1.958226e+01
1.136391e+02	-1.963295e+01
1.142955e+02	-1.968260e+01
1.149556e+02	-1.973175e+01
1.156196e+02	-1.978150e+01
1.162874e+02	-1.983043e+01
1.169591e+02	-1.988007e+01
1.176347e+02	-1.992933e+01
1.183141e+02	-1.998007e+01
1.189975e+02	-2.002904e+01
1.196848e+02	-2.007828e+01
1.203761e+02	-2.012869e+01
1.210714e+02	-2.017681e+01
1.217707e+02	-2.022709e+01
1.224740e+02	-2.027614e+01
1.231814e+02	-2.032630e+01
1.238929e+02	-2.037531e+01
1.246085e+02	-2.042602e+01
1.253283e+02	-2.047615e+01
1.260522e+02	-2.052368e+01
1.267802e+02	-2.057309e+01
1.275125e+02	-2.062278e+01
1.282490e+02	-2.067220e+01
1.289898e+02	-2.072400e+01
1.297348e+02	-2.077306e+01
1.304842e+02	-2.082049e+01
1.312378e+02	-2.087163e+01
1.319959e+02	-2.092261e+01
1.327583e+02	-2.097110e+01
1.335251e+02	-2.101897e+01
1.342963e+02	-2.106988e+01
1.350720e+02	-2.111834e+01
1.358522e+02	-2.116931e+01
1.366368e+02	-2.121995e+01
1.374260e+02	-2.126843e+01
1.382198e+02	-2.131808e+01
1.390182e+02	-2.136780e+01
1.398211e+02	-2.141903e+01
1.406287e+02	-2.146716e+01
1.414410e+02	-2.151498e+01
1.422579e+02	-2.156774e+01
1.430796e+02	-2.161807e+01
1.439060e+02	-2.166511e+01
1.447372e+02	-2.171547e+01
1.455732e+02	-2.176697e+01
1.464141e+02	-2.181558e+01
1.472597e+02	-2.186559e+01
1.481103e+02	-2.191659e+01
1.489658e+02	-2.196581e+01
1.498262e+02	-2.201556e+01
1.506916e+02	-2.206614e+01
1.515620e+02	-2.211541e+01
1.524374e+02	-2.216573e+01
1.533179e+02	-2.221321e+01
1.542034e+02	-2.226443e+01
1.550941e+02	-2.231312e+01
1.559899e+02	-2.236254e+01
1.568909e+02	-2.241287e+01
1.577971e+02	-2.246196e+01
1.587085e+02	-2.251209e+01
1.596252e+02	-2.256285e+01
1.605472e+02	-2.260981e+01
1.614745e+02	-2.266052e+01
1.624072e+02	-2.271087e+01
1.633453e+02	-2.276342e+01
1.642887e+02	-2.280969e+01
1.652377e+02	-2.286305e+01
1.661921e+02	-2.291023e+01
1.671520e+02	-2.296224e+01
1.681175e+02	-2.301061e+01
1.690885e+02	-2.305959e+01
1.700651e+02	-2.310918e+01
1.710474e+02	-2.315973e+01
1.720354e+02	-2.321175e+01
1.730291e+02	-2.325955e+01
1.740285e+02	-2.330906e+01
1.750337e+02	-2.335694e+01
1.760446e+02	-2.340768e+01
1.770615e+02	-2.345720e+01
1.780842e+02	-2.350957e+01
1.791128e+02	-2.355911e+01
1.801473e+02	-2.360543e+01
1.811878e+02	-2.365790e+01
1.822344e+02	-2.370787e+01
1.832870e+02	-2.375839e+01
1.843456e+02	-2.381185e+01
1.854104e+02	-2.385643e+01
1.864813e+02	-2.390577e+01
1.875584e+02	-2.395801e+01
1.886418e+02	-2.400720e+01
1.897313e+02	-2.405520e+01
1.908272e+02	-2.410784e+01
1.919294e+02	-2.415650e+01
1.930380e+02	-2.420638e+01
1.941530e+02	-2.425484e+01
1.952744e+02	-2.430652e+01
1.964023e+02	-2.435513e+01
1.975367e+02	-2.440436e+01
1.986777e+02	-2.445200e+01
1.998252e+02	-2.450594e+01
2.009794e+02	-2.455650e+01
2.021403e+02	-2.460387e+01
2.033078e+02	-2.465459e+01
2.044821e+02	-2.470285e+01
2.056632e+02	-2.475615e+01
2.068511e+02	-2.480355e+01
2.080459e+02	-2.485501e+01
2.092475e+02	-2.490604e+01
2.104561e+02	-2.495249e+01
2.116717e+02	-2.500523e+01
2.128943e+02	-2.505359e+01
2.141240e+02	-2.510433e+01
2.153608e+02	-2.515183e+01
2.166047e+02	-2.520408e+01
2.178558e+02	-2.525339e+01
2.191141e+02	-2.530306e+01
2.203797e+02	-2.535176e+01
2.216526e+02	-2.540416e+01
2.229329e+02	-2.545177e+01
2.242205e+02	-2.550441e+01
2.255156e+02	-2.555414e+01
2.268182e+02	-2.560176e+01
2.281283e+02	-2.565395e+01
2.294459e+02	-2.570200e+01
2.307712e+02	-2.575165e+01
2.321041e+02	-2.580097e+01
2.334447e+02	-2.585261e+01
2.347931e+02	-2.589829e+01
2.361493e+02	-2.595388e+01
2.375133e+02	-2.600038e+01
2.388851e+02	-2.605140e+01
2.402649e+02	-2.610028e+01
2.416527e+02	-2.615253e+01
2.430484e+02	-2.620072e+01
2.444523e+02	-2.625188e+01
2.458642e+02	-2.630205e+01
2.472843e+02	-2.634958e+01
2.487126e+02	-2.640190e+01
2.501492e+02	-2.645479e+01
2.515940e+02	-2.650235e+01
2.530472e+02	-2.655022e+01
2.545088e+02	-2.660448e+01
2.559789e+02	-2.664718e+01
2.574574e+02	-2.669971e+01
2.589444e+02	-2.675493e+01
2.604401e+02	-2.680266e+01
2.619444e+02	-2.685433e+01
2.634574e+02	-2.690262e+01
2.649791e+02	-2.695186e+01
2.665096e+02	-2.700202e+01
2.680489e+02	-2.705019e+01
2.695972e+02	-2.710374e+01
2.711544e+02	-2.715103e+01
2.727205e+02	-2.720001e+01
2.742958e+02	-2.725032e+01
2.758801e+02	-2.730189e+01
2.774736e+02	-2.735310e+01
2.790762e+02	-2.740310e+01
2.806882e+02	-2.745013e+01
2.823094e+02	-2.750186e+01
2.839400e+02	-2.754917e+01
2.855800e+02	-2.760094e+01
2.872295e+02	-2.764907e+01
2.888886e+02	-2.770384e+01
2.905572e+02	-2.775193e+01
2.922354e+02	-2.780391e+01
2.939234e+02	-2.785108e+01
2.956211e+02	-2.790359e+01
2.973286e+02	-2.795146e+01
2.990459e+02	-2.800468e+01
3.007732e+02	-2.804846e+01
3.025104e+02	-2.810308e+01
3.042577e+02	-2.814781e+01
3.060151e+02	-2.820131e+01
3.077826e+02	-2.824763e+01
3.095604e+02	-2.830453e+01
3.113484e+02	-2.835234e+01
3.131467e+02	-2.840479e+01
3.149554e+02	-2.845075e+01
3.167746e+02	-2.850338e+01
3.186043e+02	-2.855596e+01
3.204445e+02	-2.860156e+01
3.222954e+02	-2.865381e+01
3.241570e+02	-2.870019e+01
3.260293e+02	-2.875396e+01
3.279124e+02	-2.880353e+01
3.298064e+02	-2.885473e+01
3.317114e+02	-2.890266e+01
3.336273e+02	-2.895715e+01
3.355544e+02	-2.899880e+01
3.374925e+02	-2.905470e+01
3.394418e+02	-2.910346e+01
3.414024e+02	-2.914962e+01
3.433744e+02	-2.919851e+01
3.453577e+02	-2.924920e+01
3.473525e+02	-2.930707e+01
3.493588e+02	-2.935371e+01
3.513766e+02	-2.939811e+01
3.534062e+02	-2.945203e+01
3.554474e+02	-2.950205e+01
3.575005e+02	-2.955409e+01
3.595654e+02	-2.960399e+01
3.616422e+02	-2.965088e+01
3.637311e+02	-2.970388e+01
3.658320e+02	-2.975265e+01
3.679450e+02	-2.979883e+01
3.700702e+02	-2.985695e+01
3.722077e+02	-2.990272e+01
3.743576e+02	-2.995019e+01
3.765199e+02	-3.000322e+01
3.786946e+02	-3.005477e+01
3.808820e+02	-3.010247e+01
3.830819e+02	-3.015146e+01
3.852946e+02	-3.020552e+01
3.875200e+02	-3.025405e+01
3.897583e+02	-3.030046e+01
3.920096e+02	-3.035014e+01
3.942738e+02	-3.040653e+01
3.965511e+02	-3.045746e+01
3.988416e+02	-3.050366e+01
4.011452e+02	-3.055540e+01
4.034622e+02	-3.060991e+01
4.057926e+02	-3.065397e+01
4.081365e+02	-3.070874e+01
4.104938e+02	-3.075731e+01
4.128648e+02	-3.080747e+01
4.152495e+02	-3.085850e+01
4.176480e+02	-3.090697e+01
4.200603e+02	-3.095786e+01
4.224866e+02	-3.100501e+01
4.249268e+02	-3.105506e+01
4.273812e+02	-3.110252e+01
4.298497e+02	-3.115286e+01
4.323325e+02	-3.120926e+01
4.348297e+02	-3.125725e+01
4.373412e+02	-3.130880e+01
4.398673e+02	-3.135230e+01
4.424079e+02	-3.140594e+01
4.449633e+02	-3.145331e+01
4.475334e+02	-3.150262e+01
4.501183e+02	-3.155295e+01
4.527182e+02	-3.160652e+01
4.553330e+02	-3.165461e+01
4.579630e+02	-3.170921e+01
4.606082e+02	-3.175880e+01
4.632687e+02	-3.180020e+01
4.659445e+02	-3.185848e+01
4.686358e+02	-3.190290e+01
4.713426e+02	-3.195650e+01
4.740650e+02	-3.200766e+01
4.768032e+02	-3.205671e+01
4.795572e+02	-3.210218e+01
4.823271e+02	-3.216182e+01
4.851130e+02	-3.220636e+01
4.879150e+02	-3.226299e+01
4.907332e+02	-3.231246e+01
4.935676e+02	-3.235124e+01
4.964185e+02	-3.240926e+01
4.992858e+02	-3.244895e+01
5.021696e+02	-3.251035e+01
5.050701e+02	-3.256416e+01
5.079874e+02	-3.260520e+01
5.109215e+02	-3.266641e+01
5.138726e+02	-3.271381e+01
5.168407e+02	-3.275953e+01
5.198259e+02	-3.281652e+01
5.228284e+02	-3.286473e+01
5.258482e+02	-3.291577e+01
5.288855e+02	-3.296431e+01
5.319403e+02	-3.301051e+01
5.350128e+02	-3.306014e+01
5.381030e+02	-3.311961e+01
5.412111e+02	-3.316732e+01
5.443371e+02	-3.321234e+01
5.474812e+02	-3.326059e+01
5.506434e+02	-3.331862e+01
5.538239e+02	-3.335746e+01
5.570228e+02	-3.341822e+01
5.602401e+02	-3.345791e+01
5.634760e+02	-3.352181e+01
5.667306e+02	-3.356831e+01
5.700040e+02	-3.361960e+01
5.732964e+02	-3.366019e+01
5.766077e+02	-3.371672e+01
5.799382e+02	-3.376568e+01
5.832879e+02	-3.382100e+01
5.866569e+02	-3.386679e+01
5.900454e+02	-3.392079e+01
5.934535e+02	-3.397909e+01
5.968813e+02	-3.402100e+01
6.003288e+02	-3.406421e+01
6.037963e+02	-3.412341e+01
6.072838e+02	-3.417291e+01
6.107914e+02	-3.422281e+01
6.143194e+02	-3.426872e+01
6.178676e+02	-3.430330e+01
6.214364e+02	-3.436833e+01
6.250258e+02	-3.442141e+01
6.286359e+02	-3.447105e+01
6.322669e+02	-3.452536e+01
6.359189e+02	-3.457197e+01
6.395919e+02	-3.462384e+01
6.432862e+02	-3.467816e+01
6.470017e+02	-3.472536e+01
6.507388e+02	-3.476810e+01
6.544974e+02	-3.481906e+01
6.582778e+02	-3.487401e+01
6.620800e+02	-3.492026e+01
6.659041e+02	-3.497459e+01
6.697504e+02	-3.502617e+01
6.736188e+02	-3.508002e+01
6.775096e+02	-3.513137e+01
6.814229e+02	-3.517521e+01
6.853587e+02	-3.522587e+01
6.893173e+02	-3.528158e+01
6.932988e+02	-3.531730e+01
6.973033e+02	-3.537943e+01
7.013309e+02	-3.542981e+01
