Frequency(Hz)	Magnitude(dB)
1.000000e+01	-2.178244e+00
1.005776e+01	-2.198004e+00
1.011585e+01	-2.218041e+00
1.017428e+01	-2.237892e+00
1.023305e+01	-2.258295e+00
1.029215e+01	-2.278500e+00
1.035160e+01	-2.299113e+00
1.041139e+01	-2.319689e+00
1.047153e+01	-2.340520e+00
1.053201e+01	-2.361475e+00
1.059284e+01	-2.382344e+00
1.065403e+01	-2.403607e+00
1.071556e+01	-2.424978e+00
1.077746e+01	-2.446416e+00
1.083971e+01	-2.467869e+00
1.090232e+01	-2.489851e+00
1.096529e+01	-2.511674e+00
1.102862e+01	-2.533835e+00
1.109232e+01	-2.555897e+00
1.115639e+01	-2.578225e+00
1.122083e+01	-2.600582e+00
1.128564e+01	-2.623317e+00
1.135083e+01	-2.646042e+00
1.141639e+01	-2.669158e+00
1.148233e+01	-2.691941e+00
1.154865e+01	-2.715167e+00
1.161536e+01	-2.738672e+00
1.168245e+01	-2.761866e+00
1.174992e+01	-2.785357e+00
1.181779e+01	-2.809268e+00
1.188605e+01	-2.833333e+00
1.195470e+01	-2.857327e+00
1.202375e+01	-2.881404e+00
1.209320e+01	-2.905838e+00
1.216305e+01	-2.930168e+00
1.223330e+01	-2.955080e+00
1.230396e+01	-2.979538e+00
1.237503e+01	-3.004483e+00
1.244651e+01	-3.029712e+00
1.251840e+01	-3.054594e+00
1.259070e+01	-3.080383e+00
1.266343e+01	-3.105815e+00
1.273657e+01	-3.131463e+00
1.281014e+01	-3.157010e+00
1.288413e+01	-3.183058e+00
1.295855e+01	-3.209024e+00
1.303339e+01	-3.235221e+00
1.310867e+01	-3.261532e+00
1.318439e+01	-3.288099e+00
1.326054e+01	-3.314528e+00
1.333713e+01	-3.341307e+00
1.341417e+01	-3.368424e+00
1.349165e+01	-3.395250e+00
1.356958e+01	-3.422742e+00
1.364795e+01	-3.450194e+00
1.372678e+01	-3.477880e+00
1.380607e+01	-3.504744e+00
1.388581e+01	-3.532794e+00
1.396602e+01	-3.561025e+00
1.404668e+01	-3.588946e+00
1.412782e+01	-3.617331e+00
1.420942e+01	-3.645268e+00
1.429149e+01	-3.673960e+00
1.437404e+01	-3.702758e+00
1.445706e+01	-3.731364e+00
1.454057e+01	-3.760265e+00
1.462455e+01	-3.789236e+00
1.470902e+01	-3.818648e+00
1.479398e+01	-3.847847e+00
1.487943e+01	-3.877420e+00
1.496537e+01	-3.906990e+00
1.505181e+01	-3.936886e+00
1.513875e+01	-3.966369e+00
1.522619e+01	-3.996522e+00
1.531414e+01	-4.026918e+00
1.540259e+01	-4.057235e+00
1.549156e+01	-4.087470e+00
1.558103e+01	-4.117947e+00
1.567103e+01	-4.148999e+00
1.576155e+01	-4.179557e+00
1.585258e+01	-4.210762e+00
1.594415e+01	-4.241621e+00
1.603624e+01	-4.273164e+00
1.612886e+01	-4.304278e+00
1.622202e+01	-4.335691e+00
1.631572e+01	-4.367589e+00
1.640996e+01	-4.399486e+00
1.650474e+01	-4.431304e+00
1.660008e+01	-4.463427e+00
1.669596e+01	-4.495243e+00
1.679239e+01	-4.527525e+00
1.688938e+01	-4.560190e+00
1.698694e+01	-4.592809e+00
1.708505e+01	-4.625804e+00
1.718373e+01	-4.658574e+00
1.728299e+01	-4.691592e+00
1.738281e+01	-4.724674e+00
1.748322e+01	-4.757811e+00
1.758420e+01	-4.791347e+00
1.768576e+01	-4.824786e+00
1.778792e+01	-4.857878e+00
1.789066e+01	-4.891899e+00
1.799399e+01	-4.925795e+00
1.809793e+01	-4.959953e+00
1.820246e+01	-4.994100e+00
1.830760e+01	-5.028223e+00
1.841334e+01	-5.062438e+00
1.851969e+01	-5.097049e+00
1.862666e+01	-5.131561e+00
1.873425e+01	-5.166353e+00
1.884246e+01	-5.201117e+00
1.895129e+01	-5.236191e+00
1.906075e+01	-5.271395e+00
1.917085e+01	-5.306539e+00
1.928158e+01	-5.341730e+00
1.939295e+01	-5.377505e+00
1.950496e+01	-5.412976e+00
1.961762e+01	-5.448881e+00
1.973093e+01	-5.484885e+00
1.984490e+01	-5.520441e+00
1.995952e+01	-5.556526e+00
2.007480e+01	-5.592622e+00
2.019076e+01	-5.628933e+00
2.030738e+01	-5.665400e+00
2.042467e+01	-5.701859e+00
2.054264e+01	-5.738246e+00
2.066130e+01	-5.774946e+00
2.078064e+01	-5.812069e+00
2.090066e+01	-5.849161e+00
2.102139e+01	-5.886035e+00
2.114280e+01	-5.923349e+00
2.126492e+01	-5.960333e+00
2.138775e+01	-5.997799e+00
2.151128e+01	-6.035466e+00
2.163553e+01	-6.073306e+00
2.176050e+01	-6.110907e+00
2.188619e+01	-6.148699e+00
2.201260e+01	-6.186515e+00
2.213974e+01	-6.224390e+00
2.226762e+01	-6.262629e+00
2.239624e+01	-6.301079e+00
2.252560e+01	-6.339178e+00
2.265571e+01	-6.378156e+00
2.278656e+01	-6.415877e+00
2.291818e+01	-6.454914e+00
2.305055e+01	-6.493483e+00
2.318369e+01	-6.532702e+00
2.331760e+01	-6.571686e+00
2.345228e+01	-6.610696e+00
2.358774e+01	-6.649938e+00
2.372398e+01	-6.689363e+00
2.386101e+01	-6.728365e+00
2.399883e+01	-6.767688e+00
2.413745e+01	-6.807508e+00
2.427686e+01	-6.846843e+00
2.441709e+01	-6.886868e+00
2.455812e+01	-6.926822e+00
2.469997e+01	-6.966622e+00
2.484263e+01	-7.006490e+00
2.498612e+01	-7.046466e+00
2.513044e+01	-7.086653e+00
2.527559e+01	-7.127214e+00
2.542158e+01	-7.167544e+00
2.556842e+01	-7.207981e+00
2.571610e+01	-7.248836e+00
2.586463e+01	-7.289072e+00
2.601403e+01	-7.329754e+00
2.616428e+01	-7.370729e+00
2.631541e+01	-7.411687e+00
2.646740e+01	-7.452667e+00
2.662028e+01	-7.493762e+00
2.677404e+01	-7.535198e+00
2.692868e+01	-7.576058e+00
2.708422e+01	-7.617446e+00
2.724066e+01	-7.659093e+00
2.739800e+01	-7.700071e+00
2.755625e+01	-7.741805e+00
2.771541e+01	-7.783712e+00
2.787550e+01	-7.825430e+00
2.803650e+01	-7.867187e+00
2.819844e+01	-7.908940e+00
2.836131e+01	-7.951099e+00
2.852513e+01	-7.993222e+00
2.868989e+01	-8.035386e+00
2.885560e+01	-8.077119e+00
2.902227e+01	-8.119398e+00
2.918990e+01	-8.161980e+00
2.935850e+01	-8.204118e+00
2.952807e+01	-8.246724e+00
2.969863e+01	-8.289742e+00
2.987016e+01	-8.332208e+00
3.004269e+01	-8.374168e+00
3.021622e+01	-8.418094e+00
3.039075e+01	-8.460263e+00
3.056628e+01	-8.503230e+00
3.074283e+01	-8.546422e+00
3.092040e+01	-8.589806e+00
3.109900e+01	-8.632579e+00
3.127862e+01	-8.675836e+00
3.145929e+01	-8.719073e+00
3.164099e+01	-8.762260e+00
3.182375e+01	-8.805857e+00
3.200756e+01	-8.849561e+00
3.219244e+01	-8.892751e+00
3.237838e+01	-8.936628e+00
3.256540e+01	-8.979961e+00
3.275349e+01	-9.024011e+00
3.294268e+01	-9.068055e+00
3.313295e+01	-9.111640e+00
3.332433e+01	-9.155672e+00
3.351681e+01	-9.199066e+00
3.371040e+01	-9.243776e+00
3.390511e+01	-9.287245e+00
3.410094e+01	-9.331505e+00
3.429791e+01	-9.375827e+00
3.449601e+01	-9.420180e+00
3.469526e+01	-9.464270e+00
3.489566e+01	-9.509010e+00
3.509721e+01	-9.553229e+00
3.529993e+01	-9.598035e+00
3.550382e+01	-9.642164e+00
3.570889e+01	-9.687171e+00
3.591515e+01	-9.731755e+00
3.612259e+01	-9.776175e+00
3.633123e+01	-9.820883e+00
3.654108e+01	-9.866018e+00
3.675214e+01	-9.911308e+00
3.696442e+01	-9.955723e+00
3.717792e+01	-1.000098e+01
3.739266e+01	-1.004597e+01
3.760864e+01	-1.009147e+01
3.782587e+01	-1.013602e+01
3.804435e+01	-1.018108e+01
3.826409e+01	-1.022651e+01
3.848510e+01	-1.027191e+01
3.870739e+01	-1.031797e+01
3.893096e+01	-1.036298e+01
3.915583e+01	-1.040875e+01
3.938199e+01	-1.045353e+01
3.960946e+01	-1.049940e+01
3.983824e+01	-1.054564e+01
4.006834e+01	-1.059094e+01
4.029978e+01	-1.063624e+01
4.053255e+01	-1.068194e+01
4.076666e+01	-1.072784e+01
4.100213e+01	-1.077421e+01
4.123896e+01	-1.081949e+01
4.147715e+01	-1.086533e+01
4.171672e+01	-1.091126e+01
4.195767e+01	-1.095734e+01
4.220002e+01	-1.100275e+01
4.244377e+01	-1.104971e+01
4.268892e+01	-1.109552e+01
4.293549e+01	-1.114169e+01
4.318348e+01	-1.118727e+01
4.343291e+01	-1.123424e+01
4.368377e+01	-1.128028e+01
4.393609e+01	-1.132672e+01
4.418986e+01	-1.137255e+01
4.444510e+01	-1.141938e+01
4.470182e+01	-1.146559e+01
4.496001e+01	-1.151238e+01
4.521970e+01	-1.155885e+01
4.548089e+01	-1.160550e+01
4.574358e+01	-1.165126e+01
4.600779e+01	-1.169842e+01
4.627353e+01	-1.174573e+01
4.654081e+01	-1.179195e+01
4.680963e+01	-1.183868e+01
4.708000e+01	-1.188545e+01
4.735193e+01	-1.193279e+01
4.762543e+01	-1.197958e+01
4.790051e+01	-1.202607e+01
4.817719e+01	-1.207359e+01
4.845545e+01	-1.211934e+01
4.873533e+01	-1.216673e+01
4.901682e+01	-1.221357e+01
4.929994e+01	-1.226046e+01
4.958470e+01	-1.230761e+01
4.987110e+01	-1.235474e+01
5.015915e+01	-1.240210e+01
5.044887e+01	-1.244945e+01
5.074026e+01	-1.249654e+01
5.103333e+01	-1.254383e+01
5.132810e+01	-1.259109e+01
5.162457e+01	-1.263756e+01
5.192275e+01	-1.268585e+01
5.222265e+01	-1.273243e+01
5.252429e+01	-1.278069e+01
5.282767e+01	-1.282746e+01
5.313280e+01	-1.287586e+01
5.343969e+01	-1.292251e+01
5.374836e+01	-1.297028e+01
5.405880e+01	-1.301700e+01
5.437105e+01	-1.306511e+01
5.468509e+01	-1.311284e+01
5.500095e+01	-1.316036e+01
5.531863e+01	-1.320807e+01
5.563815e+01	-1.325540e+01
5.595951e+01	-1.330296e+01
5.628273e+01	-1.335144e+01
5.660782e+01	-1.339893e+01
5.693479e+01	-1.344642e+01
5.726364e+01	-1.349442e+01
5.759439e+01	-1.354254e+01
5.792705e+01	-1.358992e+01
5.826164e+01	-1.363792e+01
5.859815e+01	-1.368510e+01
5.893662e+01	-1.373279e+01
5.927703e+01	-1.378087e+01
5.961941e+01	-1.382852e+01
5.996377e+01	-1.387752e+01
6.031012e+01	-1.392482e+01
6.065847e+01	-1.397328e+01
6.100883e+01	-1.402112e+01
6.136121e+01	-1.406969e+01
6.171563e+01	-1.411765e+01
6.207210e+01	-1.416631e+01
6.243063e+01	-1.421388e+01
6.279122e+01	-1.426125e+01
6.315390e+01	-1.430978e+01
6.351868e+01	-1.435747e+01
6.388556e+01	-1.440656e+01
6.425456e+01	-1.445528e+01
6.462569e+01	-1.450355e+01
6.499897e+01	-1.455072e+01
6.537440e+01	-1.460009e+01
6.575200e+01	-1.464796e+01
6.613178e+01	-1.469524e+01
6.651375e+01	-1.474426e+01
6.689793e+01	-1.479294e+01
6.728433e+01	-1.484058e+01
6.767297e+01	-1.489049e+01
6.806384e+01	-1.493836e+01
6.845698e+01	-1.498583e+01
6.885238e+01	-1.503405e+01
6.925007e+01	-1.508350e+01
6.965005e+01	-1.513155e+01
7.005235e+01	-1.518069e+01
7.045697e+01	-1.522904e+01
7.086393e+01	-1.527668e+01
7.127323e+01	-1.532574e+01
7.168490e+01	-1.537467e+01
7.209895e+01	-1.542166e+01
7.251539e+01	-1.547049e+01
7.293424e+01	-1.551965e+01
7.335551e+01	-1.556830e+01
7.377920e+01	-1.561737e+01
7.420535e+01	-1.566603e+01
7.463396e+01	-1.571565e+01
7.506504e+01	-1.576288e+01
7.549861e+01	-1.581143e+01
7.593469e+01	-1.586118e+01
7.637328e+01	-1.591032e+01
7.681441e+01	-1.595778e+01
7.725809e+01	-1.600762e+01
7.770433e+01	-1.605581e+01
7.815315e+01	-1.610453e+01
7.860456e+01	-1.615353e+01
7.905857e+01	-1.620270e+01
7.951521e+01	-1.625119e+01
7.997449e+01	-1.630188e+01
8.043642e+01	-1.634882e+01
8.090102e+01	-1.639733e+01
8.136830e+01	-1.644732e+01
8.183828e+01	-1.649667e+01
8.231097e+01	-1.654478e+01
8.278640e+01	-1.659341e+01
8.326457e+01	-1.664230e+01
8.374550e+01	-1.669142e+01
8.422921e+01	-1.674033e+01
8.471572e+01	-1.679018e+01
8.520503e+01	-1.683787e+01
8.569717e+01	-1.688676e+01
8.619215e+01	-1.693553e+01
8.669000e+01	-1.698527e+01
8.719071e+01	-1.703496e+01
8.769432e+01	-1.708308e+01
8.820084e+01	-1.713322e+01
8.871029e+01	-1.718282e+01
8.922267e+01	-1.723001e+01
8.973802e+01	-1.728014e+01
9.025634e+01	-1.732876e+01
9.077766e+01	-1.737818e+01
9.130199e+01	-1.742673e+01
9.182935e+01	-1.747683e+01
9.235975e+01	-1.752508e+01
9.289321e+01	-1.757347e+01
9.342976e+01	-1.762312e+01
9.396941e+01	-1.767379e+01
9.451217e+01	-1.772176e+01
9.505807e+01	-1.777189e+01
9.560712e+01	-1.781933e+01
9.615934e+01	-1.787020e+01
9.671476e+01	-1.791904e+01
9.727338e+01	-1.796823e+01
9.783522e+01	-1.801730e+01
9.840032e+01	-1.806590e+01
9.896867e+01	-1.811459e+01
9.954031e+01	-1.816702e+01
1.001153e+02	-1.821508e+01
1.006935e+02	-1.826388e+01
1.012751e+02	-1.831310e+01
1.018601e+02	-1.836292e+01
1.024484e+02	-1.841140e+01
1.030402e+02	-1.846154e+01
1.036353e+02	-1.850954e+01
1.042339e+02	-1.855957e+01
1.048360e+02	-1.860976e+01
1.054415e+02	-1.866001e+01
1.060505e+02	-1.870831e+01
1.066631e+02	-1.875804e+01
1.072791e+02	-1.880519e+01
1.078988e+02	-1.885504e+01
1.085220e+02	-1.890567e+01
1.091488e+02	-1.895460e+01
1.097793e+02	-1.900368e+01
1.104133e+02	-1.905351e+01
1.110511e+02	-1.910119e+01
1.116925e+02	-1.915286e+01
1.123376e+02	-1.920183e+01
1.129865e+02	-1.925035e+01
1.136391e+02	-1.930064e+01
1.142955e+02	-1.934989e+01
1.149556e+02	-1.939984e+01
1.156196e+02	-1.944897e+01
1.162874e+02	-1.949747e+01
1.169591e+02	-1.954686e+01
1.176347e+02	-1.959744e+01
1.183141e+02	-1.964677e+01
1.189975e+02	-1.969610e+01
1.196848e+02	-1.974497e+01
1.203761e+02	-1.979552e+01
1.210714e+02	-1.984381e+01
1.217707e+02	-1.989417e+01
1.224740e+02	-1.994526e+01
1.231814e+02	-1.999494e+01
1.238929e+02	-2.004222e+01
1.246085e+02	-2.009422e+01
1.253283e+02	-2.014230e+01
1.260522e+02	-2.019072e+01
1.267802e+02	-2.024056e+01
1.275125e+02	-2.029040e+01
1.282490e+02	-2.034052e+01
1.289898e+02	-2.038936e+01
1.297348e+02	-2.043972e+01
1.304842e+02	-2.048956e+01
1.312378e+02	-2.053712e+01
1.319959e+02	-2.058719e+01
1.327583e+02	-2.063789e+01
1.335251e+02	-2.068835e+01
1.342963e+02	-2.073680e+01
1.350720e+02	-2.078679e+01
1.358522e+02	-2.083675e+01
1.366368e+02	-2.088459e+01
1.374260e+02	-2.093669e+01
1.382198e+02	-2.098736e+01
1.390182e+02	-2.103333e+01
1.398211e+02	-2.108610e+01
1.406287e+02	-2.113300e+01
1.414410e+02	-2.118350e+01
1.422579e+02	-2.123296e+01
1.430796e+02	-2.128357e+01
1.439060e+02	-2.133239e+01
1.447372e+02	-2.138132e+01
1.455732e+02	-2.143217e+01
1.464141e+02	-2.148262e+01
1.472597e+02	-2.153141e+01
1.481103e+02	-2.158247e+01
1.489658e+02	-2.163288e+01
1.498262e+02	-2.168171e+01
1.506916e+02	-2.173035e+01
1.515620e+02	-2.177981e+01
1.524374e+02	-2.182797e+01
1.533179e+02	-2.187923e+01
1.542034e+02	-2.192961e+01
1.550941e+02	-2.198004e+01
1.559899e+02	-2.202814e+01
1.568909e+02	-2.207880e+01
1.577971e+02	-2.212847e+01
1.587085e+02	-2.217679e+01
1.596252e+02	-2.222839e+01
1.605472e+02	-2.227686e+01
1.614745e+02	-2.232700e+01
1.624072e+02	-2.237702e+01
1.633453e+02	-2.242658e+01
1.642887e+02	-2.247860e+01
1.652377e+02	-2.252509e+01
1.661921e+02	-2.257572e+01
1.671520e+02	-2.262561e+01
1.681175e+02	-2.267409e+01
1.690885e+02	-2.272653e+01
1.700651e+02	-2.277588e+01
1.710474e+02	-2.282443e+01
1.720354e+02	-2.287516e+01
1.730291e+02	-2.292477e+01
1.740285e+02	-2.297560e+01
1.750337e+02	-2.302395e+01
1.760446e+02	-2.307666e+01
1.770615e+02	-2.312679e+01
1.780842e+02	-2.317168e+01
1.791128e+02	-2.322170e+01
1.801473e+02	-2.327247e+01
1.811878e+02	-2.332295e+01
1.822344e+02	-2.337317e+01
1.832870e+02	-2.342134e+01
1.843456e+02	-2.347232e+01
1.854104e+02	-2.352156e+01
1.864813e+02	-2.357097e+01
1.875584e+02	-2.362343e+01
1.886418e+02	-2.367136e+01
1.897313e+02	-2.372049e+01
1.908272e+02	-2.377053e+01
1.919294e+02	-2.382081e+01
1.930380e+02	-2.386985e+01
1.941530e+02	-2.392093e+01
1.952744e+02	-2.397040e+01
1.964023e+02	-2.401773e+01
1.975367e+02	-2.407053e+01
1.986777e+02	-2.412044e+01
1.998252e+02	-2.416930e+01
2.009794e+02	-2.422111e+01
2.021403e+02	-2.427185e+01
2.033078e+02	-2.431953e+01
2.044821e+02	-2.437201e+01
2.056632e+02	-2.441749e+01
2.068511e+02	-2.446938e+01
2.080459e+02	-2.451947e+01
2.092475e+02	-2.457063e+01
2.104561e+02	-2.461860e+01
2.116717e+02	-2.466757e+01
2.128943e+02	-2.471923e+01
2.141240e+02	-2.476845e+01
2.153608e+02	-2.481934e+01
2.166047e+02	-2.486955e+01
2.178558e+02	-2.491819e+01
2.191141e+02	-2.496689e+01
2.203797e+02	-2.502064e+01
2.216526e+02	-2.506809e+01
2.229329e+02	-2.511835e+01
2.242205e+02	-2.516798e+01
2.255156e+02	-2.521835e+01
2.268182e+02	-2.526847e+01
2.281283e+02	-2.531970e+01
2.294459e+02	-2.536730e+01
2.307712e+02	-2.541472e+01
2.321041e+02	-2.546741e+01
2.334447e+02	-2.551634e+01
2.347931e+02	-2.556810e+01
2.361493e+02	-2.561795e+01
2.375133e+02	-2.566579e+01
2.388851e+02	-2.571878e+01
2.402649e+02	-2.576460e+01
2.416527e+02	-2.581572e+01
2.430484e+02	-2.586756e+01
2.444523e+02	-2.591669e+01
2.458642e+02	-2.596966e+01
2.472843e+02	-2.601917e+01
2.487126e+02	-2.606667e+01
2.501492e+02	-2.611545e+01
2.515940e+02	-2.616908e+01
2.530472e+02	-2.622064e+01
2.545088e+02	-2.626386e+01
2.559789e+02	-2.631369e+01
2.574574e+02	-2.636628e+01
2.589444e+02	-2.641775e+01
2.604401e+02	-2.646920e+01
2.619444e+02	-2.651385e+01
2.634574e+02	-2.656607e+01
2.649791e+02	-2.662020e+01
2.665096e+02	-2.666547e+01
2.680489e+02	-2.671438e+01
2.695972e+02	-2.676784e+01
2.711544e+02	-2.681875e+01
2.727205e+02	-2.686423e+01
2.742958e+02	-2.691909e+01
2.758801e+02	-2.696383e+01
2.774736e+02	-2.701713e+01
2.790762e+02	-2.706806e+01
2.806882e+02	-2.711495e+01
2.823094e+02	-2.716685e+01
2.839400e+02	-2.721745e+01
2.855800e+02	-2.726719e+01
2.872295e+02	-2.731648e+01
2.888886e+02	-2.736582e+01
2.905572e+02	-2.741667e+01
2.922354e+02	-2.745965e+01
2.939234e+02	-2.751763e+01
2.956211e+02	-2.756613e+01
2.973286e+02	-2.761681e+01
2.990459e+02	-2.766733e+01
3.007732e+02	-2.771726e+01
3.025104e+02	-2.777002e+01
3.042577e+02	-2.781603e+01
3.060151e+02	-2.786493e+01
3.077826e+02	-2.791482e+01
3.095604e+02	-2.796504e+01
3.113484e+02	-2.801543e+01
3.131467e+02	-2.806657e+01
3.149554e+02	-2.811825e+01
3.167746e+02	-2.817046e+01
3.186043e+02	-2.821521e+01
3.204445e+02	-2.826746e+01
3.222954e+02	-2.832339e+01
3.241570e+02	-2.836472e+01
3.260293e+02	-2.842186e+01
3.279124e+02	-2.846488e+01
3.298064e+02	-2.851903e+01
3.317114e+02	-2.856584e+01
3.336273e+02	-2.862114e+01
3.355544e+02	-2.866488e+01
3.374925e+02	-2.871487e+01
3.394418e+02	-2.876859e+01
3.414024e+02	-2.881675e+01
3.433744e+02	-2.886705e+01
3.453577e+02	-2.891515e+01
3.473525e+02	-2.896580e+01
3.493588e+02	-2.901889e+01
3.513766e+02	-2.906689e+01
3.534062e+02	-2.911785e+01
3.554474e+02	-2.916764e+01
3.575005e+02	-2.921537e+01
3.595654e+02	-2.926457e+01
3.616422e+02	-2.931540e+01
3.637311e+02	-2.936633e+01
3.658320e+02	-2.942069e+01
3.679450e+02	-2.946563e+01
3.700702e+02	-2.951862e+01
3.722077e+02	-2.956771e+01
3.743576e+02	-2.961933e+01
3.765199e+02	-2.966891e+01
3.786946e+02	-2.972177e+01
3.808820e+02	-2.977383e+01
3.830819e+02	-2.981282e+01
3.852946e+02	-2.987087e+01
3.875200e+02	-2.991830e+01
3.897583e+02	-2.996919e+01
3.920096e+02	-3.001586e+01
3.942738e+02	-3.006956e+01
3.965511e+02	-3.011924e+01
3.988416e+02	-3.016855e+01
4.011452e+02	-3.021910e+01
4.034622e+02	-3.026679e+01
4.057926e+02	-3.032238e+01
4.081365e+02	-3.036926e+01
4.104938e+02	-3.041831e+01
4.128648e+02	-3.046706e+01
4.152495e+02	-3.051994e+01
4.176480e+02	-3.057732e+01
4.200603e+02	-3.061490e+01
4.224866e+02	-3.066956e+01
4.249268e+02	-3.072031e+01
4.273812e+02	-3.077413e+01
4.298497e+02	-3.082036e+01
4.323325e+02	-3.087266e+01
4.348297e+02	-3.092177e+01
4.373412e+02	-3.097153e+01
4.398673e+02	-3.102002e+01
4.424079e+02	-3.107544e+01
4.449633e+02	-3.111317e+01
4.475334e+02	-3.117278e+01
4.501183e+02	-3.121787e+01
4.527182e+02	-3.127366e+01
4.553330e+02	-3.132011e+01
4.579630e+02	-3.137150e+01
4.606082e+02	-3.142110e+01
4.632687e+02	-3.147426e+01
4.659445e+02	-3.152424e+01
4.686358e+02	-3.157778e+01
4.713426e+02	-3.162374e+01
4.740650e+02	-3.167374e+01
4.768032e+02	-3.172720e+01
4.795572e+02	-3.176936e+01
4.823271e+02	-3.182093e+01
4.851130e+02	-3.186696e+01
4.879150e+02	-3.192884e+01
4.907332e+02	-3.197990e+01
4.935676e+02	-3.201911e+01
4.964185e+02	-3.207442e+01
4.992858e+02	-3.212371e+01
5.021696e+02	-3.217380e+01
5.050701e+02	-3.222682e+01
5.079874e+02	-3.227266e+01
5.109215e+02	-3.232893e+01
5.138726e+02	-3.237857e+01
5.168407e+02	-3.242782e+01
5.198259e+02	-3.247642e+01
5.228284e+02	-3.252690e+01
5.258482e+02	-3.257426e+01
5.288855e+02	-3.263069e+01
5.319403e+02	-3.267508e+01
5.350128e+02	-3.272905e+01
5.381030e+02	-3.276870e+01
5.412111e+02	-3.282841e+01
5.443371e+02	-3.287338e+01
5.474812e+02	-3.293079e+01
5.506434e+02	-3.298115e+01
5.538239e+02	-3.303459e+01
5.570228e+02	-3.307970e+01
5.602401e+02	-3.312898e+01
5.634760e+02	-3.318443e+01
5.667306e+02	-3.323067e+01
5.700040e+02	-3.327778e+01
5.732964e+02	-3.333901e+01
5.766077e+02	-3.338277e+01
5.799382e+02	-3.343038e+01
5.832879e+02	-3.348060e+01
5.866569e+02	-3.353593e+01
5.900454e+02	-3.358313e+01
5.934535e+02	-3.362371e+01
5.968813e+02	-3.368964e+01
6.003288e+02	-3.373171e+01
6.037963e+02	-3.378020e+01
6.072838e+02	-3.383382e+01
6.107914e+02	-3.388068e+01
6.143194e+02	-3.392381e+01
6.178676e+02	-3.398594e+01
6.214364e+02	-3.403514e+01
6.250258e+02	-3.408724e+01
6.286359e+02	-3.413564e+01
6.322669e+02	-3.417767e+01
6.359189e+02	-3.423948e+01
6.395919e+02	-3.428993e+01
6.432862e+02	-3.433944e+01
6.470017e+02	-3.438545e+01
6.507388e+02	-3.443299e+01
6.544974e+02	-3.448778e+01
6.582778e+02	-3.454051e+01
6.620800e+02	-3.458329e+01
6.659041e+02	-3.464653e+01
6.697504e+02	-3.468301e+01
6.736188e+02	-3.474283e+01
6.775096e+02	-3.479975e+01
6.814229e+02	-3.484340e+01
6.853587e+02	-3.489568e+01
6.893173e+02	-3.494110e+01
6.932988e+02	-3.498831e+01
6.973033e+02	-3.504295e+01
7.013309e+02	-3.509849e+01
