Frequency(Hz)	Magnitude(dB)
1.000000e+01	-2.176528e+00
1.005776e+01	-2.196178e+00
1.011585e+01	-2.216035e+00
1.017428e+01	-2.236104e+00
1.023305e+01	-2.256288e+00
1.029215e+01	-2.276663e+00
1.035160e+01	-2.297348e+00
1.041139e+01	-2.317915e+00
1.047153e+01	-2.338510e+00
1.053201e+01	-2.359384e+00
1.059284e+01	-2.380615e+00
1.065403e+01	-2.401814e+00
1.071556e+01	-2.422832e+00
1.077746e+01	-2.444210e+00
1.083971e+01	-2.466067e+00
1.090232e+01	-2.487869e+00
1.096529e+01	-2.509500e+00
1.102862e+01	-2.531830e+00
1.109232e+01	-2.553779e+00
1.115639e+01	-2.576142e+00
1.122083e+01	-2.598457e+00
1.128564e+01	-2.621247e+00
1.135083e+01	-2.644112e+00
1.141639e+01	-2.666660e+00
1.148233e+01	-2.689786e+00
1.154865e+01	-2.713264e+00
1.161536e+01	-2.736250e+00
1.168245e+01	-2.759784e+00
1.174992e+01	-2.783483e+00
1.181779e+01	-2.807159e+00
1.188605e+01	-2.831177e+00
1.195470e+01	-2.854900e+00
1.202375e+01	-2.879293e+00
1.209320e+01	-2.903599e+00
1.216305e+01	-2.928020e+00
1.223330e+01	-2.952748e+00
1.230396e+01	-2.977510e+00
1.237503e+01	-3.002415e+00
1.244651e+01	-3.027030e+00
1.251840e+01	-3.052558e+00
1.259070e+01	-3.078004e+00
1.266343e+01	-3.103221e+00
1.273657e+01	-3.129033e+00
1.281014e+01	-3.154591e+00
1.288413e+01	-3.180410e+00
1.295855e+01	-3.206813e+00
1.303339e+01	-3.232867e+00
1.310867e+01	-3.259133e+00
1.318439e+01	-3.285644e+00
1.326054e+01	-3.312207e+00
1.333713e+01	-3.339233e+00
1.341417e+01	-3.365893e+00
1.349165e+01	-3.392867e+00
1.356958e+01	-3.420178e+00
1.364795e+01	-3.447555e+00
1.372678e+01	-3.474975e+00
1.380607e+01	-3.502566e+00
1.388581e+01	-3.530145e+00
1.396602e+01	-3.558309e+00
1.404668e+01	-3.586625e+00
1.412782e+01	-3.614535e+00
1.420942e+01	-3.642901e+00
1.429149e+01	-3.671432e+00
1.437404e+01	-3.699969e+00
1.445706e+01	-3.728717e+00
1.454057e+01	-3.757492e+00
1.462455e+01	-3.786765e+00
1.470902e+01	-3.815658e+00
1.479398e+01	-3.845084e+00
1.487943e+01	-3.874585e+00
1.496537e+01	-3.904312e+00
1.505181e+01	-3.934193e+00
1.513875e+01	-3.963875e+00
1.522619e+01	-3.993690e+00
1.531414e+01	-4.024067e+00
1.540259e+01	-4.054036e+00
1.549156e+01	-4.084798e+00
1.558103e+01	-4.115217e+00
1.567103e+01	-4.146011e+00
1.576155e+01	-4.176829e+00
1.585258e+01	-4.207598e+00
1.594415e+01	-4.238675e+00
1.603624e+01	-4.270089e+00
1.612886e+01	-4.301666e+00
1.622202e+01	-4.333001e+00
1.631572e+01	-4.364533e+00
1.640996e+01	-4.396605e+00
1.650474e+01	-4.428397e+00
1.660008e+01	-4.460575e+00
1.669596e+01	-4.492547e+00
1.679239e+01	-4.524933e+00
1.688938e+01	-4.557445e+00
1.698694e+01	-4.589808e+00
1.708505e+01	-4.622411e+00
1.718373e+01	-4.655438e+00
1.728299e+01	-4.688440e+00
1.738281e+01	-4.721313e+00
1.748322e+01	-4.754888e+00
1.758420e+01	-4.788045e+00
1.768576e+01	-4.821395e+00
1.778792e+01	-4.855268e+00
1.789066e+01	-4.888900e+00
1.799399e+01	-4.922546e+00
1.809793e+01	-4.956797e+00
1.820246e+01	-4.990942e+00
1.830760e+01	-5.025052e+00
1.841334e+01	-5.059317e+00
1.851969e+01	-5.093864e+00
1.862666e+01	-5.128364e+00
1.873425e+01	-5.163384e+00
1.884246e+01	-5.198114e+00
1.895129e+01	-5.232992e+00
1.906075e+01	-5.268170e+00
1.917085e+01	-5.303292e+00
1.928158e+01	-5.338519e+00
1.939295e+01	-5.374196e+00
1.950496e+01	-5.409427e+00
1.961762e+01	-5.445401e+00
1.973093e+01	-5.481320e+00
1.984490e+01	-5.516959e+00
1.995952e+01	-5.553500e+00
2.007480e+01	-5.589293e+00
2.019076e+01	-5.625395e+00
2.030738e+01	-5.662097e+00
2.042467e+01	-5.698331e+00
2.054264e+01	-5.735107e+00
2.066130e+01	-5.771880e+00
2.078064e+01	-5.808554e+00
2.090066e+01	-5.845485e+00
2.102139e+01	-5.882431e+00
2.114280e+01	-5.919742e+00
2.126492e+01	-5.957181e+00
2.138775e+01	-5.994455e+00
2.151128e+01	-6.031696e+00
2.163553e+01	-6.069079e+00
2.176050e+01	-6.107420e+00
2.188619e+01	-6.145214e+00
2.201260e+01	-6.183128e+00
2.213974e+01	-6.221212e+00
2.226762e+01	-6.258901e+00
2.239624e+01	-6.297290e+00
2.252560e+01	-6.335792e+00
2.265571e+01	-6.374145e+00
2.278656e+01	-6.412818e+00
2.291818e+01	-6.451372e+00
2.305055e+01	-6.490172e+00
2.318369e+01	-6.528884e+00
2.331760e+01	-6.567906e+00
2.345228e+01	-6.607209e+00
2.358774e+01	-6.646457e+00
2.372398e+01	-6.685460e+00
2.386101e+01	-6.724745e+00
2.399883e+01	-6.764465e+00
2.413745e+01	-6.803475e+00
2.427686e+01	-6.843273e+00
2.441709e+01	-6.882817e+00
2.455812e+01	-6.922729e+00
2.469997e+01	-6.962745e+00
2.484263e+01	-7.002601e+00
2.498612e+01	-7.042835e+00
2.513044e+01	-7.082917e+00
2.527559e+01	-7.123550e+00
2.542158e+01	-7.163721e+00
2.556842e+01	-7.204080e+00
2.571610e+01	-7.244546e+00
2.586463e+01	-7.285248e+00
2.601403e+01	-7.326167e+00
2.616428e+01	-7.367261e+00
2.631541e+01	-7.407666e+00
2.646740e+01	-7.448953e+00
2.662028e+01	-7.489686e+00
2.677404e+01	-7.531089e+00
2.692868e+01	-7.572542e+00
2.708422e+01	-7.613694e+00
2.724066e+01	-7.655412e+00
2.739800e+01	-7.696397e+00
2.755625e+01	-7.737950e+00
2.771541e+01	-7.779762e+00
2.787550e+01	-7.821212e+00
2.803650e+01	-7.863062e+00
2.819844e+01	-7.904799e+00
2.836131e+01	-7.947069e+00
2.852513e+01	-7.989240e+00
2.868989e+01	-8.030978e+00
2.885560e+01	-8.073268e+00
2.902227e+01	-8.115825e+00
2.918990e+01	-8.157892e+00
2.935850e+01	-8.200564e+00
2.952807e+01	-8.242571e+00
2.969863e+01	-8.285399e+00
2.987016e+01	-8.327828e+00
3.004269e+01	-8.370782e+00
3.021622e+01	-8.413557e+00
3.039075e+01	-8.456367e+00
3.056628e+01	-8.499431e+00
3.074283e+01	-8.542415e+00
3.092040e+01	-8.585710e+00
3.109900e+01	-8.628547e+00
3.127862e+01	-8.671917e+00
3.145929e+01	-8.714838e+00
3.164099e+01	-8.758129e+00
3.182375e+01	-8.801905e+00
3.200756e+01	-8.845467e+00
3.219244e+01	-8.888673e+00
3.237838e+01	-8.932053e+00
3.256540e+01	-8.975779e+00
3.275349e+01	-9.019670e+00
3.294268e+01	-9.063623e+00
3.313295e+01	-9.106915e+00
3.332433e+01	-9.150945e+00
3.351681e+01	-9.195193e+00
3.371040e+01	-9.239281e+00
3.390511e+01	-9.283164e+00
3.410094e+01	-9.327354e+00
3.429791e+01	-9.372162e+00
3.449601e+01	-9.415815e+00
3.469526e+01	-9.460861e+00
3.489566e+01	-9.504787e+00
3.509721e+01	-9.549304e+00
3.529993e+01	-9.593896e+00
3.550382e+01	-9.638238e+00
3.570889e+01	-9.682441e+00
3.591515e+01	-9.727298e+00
3.612259e+01	-9.772586e+00
3.633123e+01	-9.816685e+00
3.654108e+01	-9.861819e+00
3.675214e+01	-9.906874e+00
3.696442e+01	-9.951897e+00
3.717792e+01	-9.997218e+00
3.739266e+01	-1.004152e+01
3.760864e+01	-1.008648e+01
3.782587e+01	-1.013223e+01
3.804435e+01	-1.017704e+01
3.826409e+01	-1.022263e+01
3.848510e+01	-1.026754e+01
3.870739e+01	-1.031269e+01
3.893096e+01	-1.035842e+01
3.915583e+01	-1.040357e+01
3.938199e+01	-1.044920e+01
3.960946e+01	-1.049558e+01
3.983824e+01	-1.054008e+01
4.006834e+01	-1.058605e+01
4.029978e+01	-1.063254e+01
4.053255e+01	-1.067736e+01
4.076666e+01	-1.072314e+01
4.100213e+01	-1.076917e+01
4.123896e+01	-1.081519e+01
4.147715e+01	-1.086051e+01
4.171672e+01	-1.090673e+01
4.195767e+01	-1.095229e+01
4.220002e+01	-1.099930e+01
4.244377e+01	-1.104495e+01
4.268892e+01	-1.109113e+01
4.293549e+01	-1.113775e+01
4.318348e+01	-1.118367e+01
4.343291e+01	-1.122971e+01
4.368377e+01	-1.127621e+01
4.393609e+01	-1.132168e+01
4.418986e+01	-1.136896e+01
4.444510e+01	-1.141574e+01
4.470182e+01	-1.146163e+01
4.496001e+01	-1.150781e+01
4.521970e+01	-1.155448e+01
4.548089e+01	-1.160090e+01
4.574358e+01	-1.164721e+01
4.600779e+01	-1.169425e+01
4.627353e+01	-1.174115e+01
4.654081e+01	-1.178802e+01
4.680963e+01	-1.183407e+01
4.708000e+01	-1.188122e+01
4.735193e+01	-1.192830e+01
4.762543e+01	-1.197491e+01
4.790051e+01	-1.202104e+01
4.817719e+01	-1.206889e+01
4.845545e+01	-1.211521e+01
4.873533e+01	-1.216250e+01
4.901682e+01	-1.220942e+01
4.929994e+01	-1.225682e+01
4.958470e+01	-1.230412e+01
4.987110e+01	-1.235019e+01
5.015915e+01	-1.239793e+01
5.044887e+01	-1.244447e+01
5.074026e+01	-1.249216e+01
5.103333e+01	-1.253845e+01
5.132810e+01	-1.258667e+01
5.162457e+01	-1.263426e+01
5.192275e+01	-1.268142e+01
5.222265e+01	-1.272917e+01
5.252429e+01	-1.277501e+01
5.282767e+01	-1.282295e+01
5.313280e+01	-1.287050e+01
5.343969e+01	-1.291800e+01
5.374836e+01	-1.296590e+01
5.405880e+01	-1.301295e+01
5.437105e+01	-1.306050e+01
5.468509e+01	-1.310849e+01
5.500095e+01	-1.315618e+01
5.531863e+01	-1.320357e+01
5.563815e+01	-1.325110e+01
5.595951e+01	-1.329860e+01
5.628273e+01	-1.334719e+01
5.660782e+01	-1.339478e+01
5.693479e+01	-1.344215e+01
5.726364e+01	-1.348961e+01
5.759439e+01	-1.353699e+01
5.792705e+01	-1.358565e+01
5.826164e+01	-1.363398e+01
5.859815e+01	-1.368126e+01
5.893662e+01	-1.372834e+01
5.927703e+01	-1.377731e+01
5.961941e+01	-1.382458e+01
5.996377e+01	-1.387317e+01
6.031012e+01	-1.392077e+01
6.065847e+01	-1.396900e+01
6.100883e+01	-1.401692e+01
6.136121e+01	-1.406517e+01
6.171563e+01	-1.411345e+01
6.207210e+01	-1.416116e+01
6.243063e+01	-1.420847e+01
6.279122e+01	-1.425680e+01
6.315390e+01	-1.430488e+01
6.351868e+01	-1.435381e+01
6.388556e+01	-1.440188e+01
6.425456e+01	-1.444994e+01
6.462569e+01	-1.449783e+01
6.499897e+01	-1.454694e+01
6.537440e+01	-1.459461e+01
6.575200e+01	-1.464278e+01
6.613178e+01	-1.469176e+01
6.651375e+01	-1.473955e+01
6.689793e+01	-1.478883e+01
6.728433e+01	-1.483646e+01
6.767297e+01	-1.488485e+01
6.806384e+01	-1.493325e+01
6.845698e+01	-1.498164e+01
6.885238e+01	-1.503029e+01
6.925007e+01	-1.507876e+01
6.965005e+01	-1.512700e+01
7.005235e+01	-1.517625e+01
7.045697e+01	-1.522417e+01
7.086393e+01	-1.527258e+01
7.127323e+01	-1.532093e+01
7.168490e+01	-1.536947e+01
7.209895e+01	-1.541759e+01
7.251539e+01	-1.546675e+01
7.293424e+01	-1.551474e+01
7.335551e+01	-1.556462e+01
7.377920e+01	-1.561225e+01
7.420535e+01	-1.566184e+01
7.463396e+01	-1.571039e+01
7.506504e+01	-1.575949e+01
7.549861e+01	-1.580742e+01
7.593469e+01	-1.585580e+01
7.637328e+01	-1.590555e+01
7.681441e+01	-1.595351e+01
7.725809e+01	-1.600266e+01
7.770433e+01	-1.605104e+01
7.815315e+01	-1.609972e+01
7.860456e+01	-1.614925e+01
7.905857e+01	-1.619857e+01
7.951521e+01	-1.624665e+01
7.997449e+01	-1.629515e+01
8.043642e+01	-1.634365e+01
8.090102e+01	-1.639265e+01
8.136830e+01	-1.644097e+01
8.183828e+01	-1.649120e+01
8.231097e+01	-1.654100e+01
8.278640e+01	-1.658889e+01
8.326457e+01	-1.663778e+01
8.374550e+01	-1.668693e+01
8.422921e+01	-1.673622e+01
8.471572e+01	-1.678374e+01
8.520503e+01	-1.683428e+01
8.569717e+01	-1.688166e+01
8.619215e+01	-1.693232e+01
8.669000e+01	-1.698077e+01
8.719071e+01	-1.703047e+01
8.769432e+01	-1.707810e+01
8.820084e+01	-1.712886e+01
8.871029e+01	-1.717684e+01
8.922267e+01	-1.722652e+01
8.973802e+01	-1.727564e+01
9.025634e+01	-1.732452e+01
9.077766e+01	-1.737284e+01
9.130199e+01	-1.742299e+01
9.182935e+01	-1.747256e+01
9.235975e+01	-1.752073e+01
9.289321e+01	-1.757053e+01
9.342976e+01	-1.761867e+01
9.396941e+01	-1.766720e+01
9.451217e+01	-1.771806e+01
9.505807e+01	-1.776721e+01
9.560712e+01	-1.781464e+01
9.615934e+01	-1.786498e+01
9.671476e+01	-1.791527e+01
9.727338e+01	-1.796292e+01
9.783522e+01	-1.801375e+01
9.840032e+01	-1.806120e+01
9.896867e+01	-1.811056e+01
9.954031e+01	-1.816054e+01
1.001153e+02	-1.820970e+01
1.006935e+02	-1.825886e+01
1.012751e+02	-1.830793e+01
1.018601e+02	-1.835811e+01
1.024484e+02	-1.840764e+01
1.030402e+02	-1.845591e+01
1.036353e+02	-1.850633e+01
1.042339e+02	-1.855378e+01
1.048360e+02	-1.860517e+01
1.054415e+02	-1.865213e+01
1.060505e+02	-1.870319e+01
1.066631e+02	-1.875199e+01
1.072791e+02	-1.880096e+01
1.078988e+02	-1.885212e+01
1.085220e+02	-1.890029e+01
1.091488e+02	-1.895055e+01
1.097793e+02	-1.899807e+01
1.104133e+02	-1.904677e+01
1.110511e+02	-1.909842e+01
1.116925e+02	-1.914685e+01
1.123376e+02	-1.919667e+01
1.129865e+02	-1.924646e+01
1.136391e+02	-1.929640e+01
1.142955e+02	-1.934468e+01
1.149556e+02	-1.939651e+01
1.156196e+02	-1.944297e+01
1.162874e+02	-1.949391e+01
1.169591e+02	-1.954261e+01
1.176347e+02	-1.959266e+01
1.183141e+02	-1.964253e+01
1.189975e+02	-1.969213e+01
1.196848e+02	-1.974083e+01
1.203761e+02	-1.979074e+01
1.210714e+02	-1.984093e+01
1.217707e+02	-1.988862e+01
1.224740e+02	-1.993913e+01
1.231814e+02	-1.998892e+01
1.238929e+02	-2.003739e+01
1.246085e+02	-2.008820e+01
1.253283e+02	-2.013885e+01
1.260522e+02	-2.018614e+01
1.267802e+02	-2.023595e+01
1.275125e+02	-2.028627e+01
1.282490e+02	-2.033590e+01
1.289898e+02	-2.038631e+01
1.297348e+02	-2.043568e+01
1.304842e+02	-2.048403e+01
1.312378e+02	-2.053344e+01
1.319959e+02	-2.058354e+01
1.327583e+02	-2.063182e+01
1.335251e+02	-2.068373e+01
1.342963e+02	-2.073157e+01
1.350720e+02	-2.078107e+01
1.358522e+02	-2.083224e+01
1.366368e+02	-2.088335e+01
1.374260e+02	-2.092963e+01
1.382198e+02	-2.097935e+01
1.390182e+02	-2.102853e+01
1.398211e+02	-2.108102e+01
1.406287e+02	-2.112978e+01
1.414410e+02	-2.117866e+01
1.422579e+02	-2.123079e+01
1.430796e+02	-2.127873e+01
1.439060e+02	-2.132911e+01
1.447372e+02	-2.137981e+01
1.455732e+02	-2.142712e+01
1.464141e+02	-2.147805e+01
1.472597e+02	-2.152766e+01
1.481103e+02	-2.157892e+01
1.489658e+02	-2.162612e+01
1.498262e+02	-2.167571e+01
1.506916e+02	-2.172493e+01
1.515620e+02	-2.177517e+01
1.524374e+02	-2.182470e+01
1.533179e+02	-2.187612e+01
1.542034e+02	-2.192367e+01
1.550941e+02	-2.197276e+01
1.559899e+02	-2.202475e+01
1.568909e+02	-2.207366e+01
1.577971e+02	-2.212602e+01
1.587085e+02	-2.217422e+01
1.596252e+02	-2.222391e+01
1.605472e+02	-2.227214e+01
1.614745e+02	-2.232194e+01
1.624072e+02	-2.237282e+01
1.633453e+02	-2.242151e+01
1.642887e+02	-2.247183e+01
1.652377e+02	-2.252160e+01
1.661921e+02	-2.256970e+01
1.671520e+02	-2.262086e+01
1.681175e+02	-2.266856e+01
1.690885e+02	-2.272283e+01
1.700651e+02	-2.277008e+01
1.710474e+02	-2.282012e+01
1.720354e+02	-2.287023e+01
1.730291e+02	-2.291897e+01
1.740285e+02	-2.296964e+01
1.750337e+02	-2.301933e+01
1.760446e+02	-2.307064e+01
1.770615e+02	-2.311699e+01
1.780842e+02	-2.316851e+01
1.791128e+02	-2.321817e+01
1.801473e+02	-2.326836e+01
1.811878e+02	-2.331756e+01
1.822344e+02	-2.336720e+01
1.832870e+02	-2.341948e+01
1.843456e+02	-2.346689e+01
1.854104e+02	-2.351629e+01
1.864813e+02	-2.356604e+01
1.875584e+02	-2.361695e+01
1.886418e+02	-2.366710e+01
1.897313e+02	-2.371645e+01
1.908272e+02	-2.376698e+01
1.919294e+02	-2.381684e+01
1.930380e+02	-2.386629e+01
1.941530e+02	-2.391634e+01
1.952744e+02	-2.396453e+01
1.964023e+02	-2.401622e+01
1.975367e+02	-2.406602e+01
1.986777e+02	-2.411693e+01
1.998252e+02	-2.416728e+01
2.009794e+02	-2.421450e+01
2.021403e+02	-2.426654e+01
2.033078e+02	-2.431510e+01
2.044821e+02	-2.436546e+01
2.056632e+02	-2.441523e+01
2.068511e+02	-2.446532e+01
2.080459e+02	-2.451366e+01
2.092475e+02	-2.456384e+01
2.104561e+02	-2.461263e+01
2.116717e+02	-2.466510e+01
2.128943e+02	-2.471635e+01
2.141240e+02	-2.476561e+01
2.153608e+02	-2.481549e+01
2.166047e+02	-2.486220e+01
2.178558e+02	-2.491404e+01
2.191141e+02	-2.496363e+01
2.203797e+02	-2.501177e+01
2.216526e+02	-2.506264e+01
2.229329e+02	-2.511570e+01
2.242205e+02	-2.516271e+01
2.255156e+02	-2.521230e+01
2.268182e+02	-2.526117e+01
2.281283e+02	-2.531163e+01
2.294459e+02	-2.536273e+01
2.307712e+02	-2.541300e+01
2.321041e+02	-2.546035e+01
2.334447e+02	-2.551518e+01
2.347931e+02	-2.556263e+01
2.361493e+02	-2.560967e+01
2.375133e+02	-2.566318e+01
2.388851e+02	-2.570983e+01
2.402649e+02	-2.576093e+01
2.416527e+02	-2.581601e+01
2.430484e+02	-2.586285e+01
2.444523e+02	-2.591445e+01
2.458642e+02	-2.596258e+01
2.472843e+02	-2.601503e+01
2.487126e+02	-2.606135e+01
2.501492e+02	-2.611177e+01
2.515940e+02	-2.616142e+01
2.530472e+02	-2.621076e+01
2.545088e+02	-2.625993e+01
2.559789e+02	-2.631131e+01
2.574574e+02	-2.636295e+01
2.589444e+02	-2.641331e+01
2.604401e+02	-2.646422e+01
2.619444e+02	-2.651183e+01
2.634574e+02	-2.656324e+01
2.649791e+02	-2.661513e+01
2.665096e+02	-2.665881e+01
2.680489e+02	-2.671266e+01
2.695972e+02	-2.676097e+01
2.711544e+02	-2.681138e+01
2.727205e+02	-2.685902e+01
2.742958e+02	-2.691375e+01
2.758801e+02	-2.696273e+01
2.774736e+02	-2.700829e+01
2.790762e+02	-2.706352e+01
2.806882e+02	-2.711238e+01
2.823094e+02	-2.716425e+01
2.839400e+02	-2.721516e+01
2.855800e+02	-2.726505e+01
2.872295e+02	-2.730964e+01
2.888886e+02	-2.735963e+01
2.905572e+02	-2.741296e+01
2.922354e+02	-2.746366e+01
2.939234e+02	-2.751300e+01
2.956211e+02	-2.756278e+01
2.973286e+02	-2.761293e+01
2.990459e+02	-2.766200e+01
3.007732e+02	-2.770984e+01
3.025104e+02	-2.776128e+01
3.042577e+02	-2.781487e+01
3.060151e+02	-2.786509e+01
3.077826e+02	-2.791431e+01
3.095604e+02	-2.795631e+01
3.113484e+02	-2.801311e+01
3.131467e+02	-2.805698e+01
3.149554e+02	-2.811223e+01
3.167746e+02	-2.815949e+01
3.186043e+02	-2.821469e+01
3.204445e+02	-2.826103e+01
3.222954e+02	-2.831235e+01
3.241570e+02	-2.836357e+01
3.260293e+02	-2.841349e+01
3.279124e+02	-2.846052e+01
3.298064e+02	-2.851324e+01
3.317114e+02	-2.856259e+01
3.336273e+02	-2.861201e+01
3.355544e+02	-2.866410e+01
3.374925e+02	-2.871328e+01
3.394418e+02	-2.876272e+01
3.414024e+02	-2.881044e+01
3.433744e+02	-2.886119e+01
3.453577e+02	-2.890840e+01
3.473525e+02	-2.896328e+01
3.493588e+02	-2.901653e+01
3.513766e+02	-2.906293e+01
3.534062e+02	-2.911189e+01
3.554474e+02	-2.916583e+01
3.575005e+02	-2.921175e+01
3.595654e+02	-2.926466e+01
3.616422e+02	-2.931143e+01
3.637311e+02	-2.936793e+01
3.658320e+02	-2.941343e+01
3.679450e+02	-2.946159e+01
3.700702e+02	-2.951087e+01
3.722077e+02	-2.956029e+01
3.743576e+02	-2.961526e+01
3.765199e+02	-2.966273e+01
3.786946e+02	-2.971537e+01
3.808820e+02	-2.976544e+01
3.830819e+02	-2.981798e+01
3.852946e+02	-2.986390e+01
3.875200e+02	-2.991303e+01
3.897583e+02	-2.996081e+01
3.920096e+02	-3.002011e+01
3.942738e+02	-3.006460e+01
3.965511e+02	-3.011558e+01
3.988416e+02	-3.016403e+01
4.011452e+02	-3.021226e+01
4.034622e+02	-3.025810e+01
4.057926e+02	-3.031307e+01
4.081365e+02	-3.036715e+01
4.104938e+02	-3.041347e+01
4.128648e+02	-3.046753e+01
4.152495e+02	-3.051099e+01
4.176480e+02	-3.056608e+01
4.200603e+02	-3.060906e+01
4.224866e+02	-3.066556e+01
4.249268e+02	-3.071364e+01
4.273812e+02	-3.076349e+01
4.298497e+02	-3.081266e+01
4.323325e+02	-3.086353e+01
4.348297e+02	-3.091044e+01
4.373412e+02	-3.097337e+01
4.398673e+02	-3.101314e+01
4.424079e+02	-3.106722e+01
4.449633e+02	-3.111904e+01
4.475334e+02	-3.116609e+01
4.501183e+02	-3.121358e+01
4.527182e+02	-3.126885e+01
4.553330e+02	-3.132170e+01
4.579630e+02	-3.136369e+01
4.606082e+02	-3.141915e+01
4.632687e+02	-3.146916e+01
4.659445e+02	-3.151739e+01
4.686358e+02	-3.156429e+01
4.713426e+02	-3.162362e+01
4.740650e+02	-3.167173e+01
4.768032e+02	-3.172036e+01
4.795572e+02	-3.177188e+01
4.823271e+02	-3.182074e+01
4.851130e+02	-3.187111e+01
4.879150e+02	-3.192186e+01
4.907332e+02	-3.197008e+01
4.935676e+02	-3.201925e+01
4.964185e+02	-3.207091e+01
4.992858e+02	-3.211925e+01
5.021696e+02	-3.216750e+01
5.050701e+02	-3.221674e+01
5.079874e+02	-3.227651e+01
5.109215e+02	-3.232657e+01
5.138726e+02	-3.237375e+01
5.168407e+02	-3.241931e+01
5.198259e+02	-3.247575e+01
5.228284e+02	-3.252568e+01
5.258482e+02	-3.256685e+01
5.288855e+02	-3.262920e+01
5.319403e+02	-3.267481e+01
5.350128e+02	-3.271720e+01
5.381030e+02	-3.276620e+01
5.412111e+02	-3.282643e+01
5.443371e+02	-3.287456e+01
5.474812e+02	-3.292648e+01
5.506434e+02	-3.296999e+01
5.538239e+02	-3.301723e+01
5.570228e+02	-3.308183e+01
5.602401e+02	-3.312370e+01
5.634760e+02	-3.317630e+01
5.667306e+02	-3.321509e+01
5.700040e+02	-3.327747e+01
5.732964e+02	-3.332937e+01
5.766077e+02	-3.337830e+01
5.799382e+02	-3.342512e+01
5.832879e+02	-3.347146e+01
5.866569e+02	-3.352306e+01
5.900454e+02	-3.357665e+01
5.934535e+02	-3.363432e+01
5.968813e+02	-3.367073e+01
6.003288e+02	-3.373089e+01
6.037963e+02	-3.378370e+01
6.072838e+02	-3.382397e+01
6.107914e+02	-3.387619e+01
6.143194e+02	-3.392125e+01
6.178676e+02	-3.397616e+01
6.214364e+02	-3.402962e+01
6.250258e+02	-3.407658e+01
6.286359e+02	-3.412350e+01
6.322669e+02	-3.418787e+01
6.359189e+02	-3.423465e+01
6.395919e+02	-3.427602e+01
6.432862e+02	-3.432324e+01
6.470017e+02	-3.438292e+01
6.507388e+02	-3.442333e+01
6.544974e+02	-3.448283e+01
6.582778e+02	-3.453010e+01
6.620800e+02	-3.458108e+01
6.659041e+02	-3.462649e+01
6.697504e+02	-3.468146e+01
6.736188e+02	-3.473575e+01
6.775096e+02	-3.478885e+01
6.814229e+02	-3.484243e+01
6.853587e+02	-3.488237e+01
6.893173e+02	-3.493803e+01
6.932988e+02	-3.498833e+01
6.973033e+02	-3.503620e+01
7.013309e+02	-3.509559e+01
