Frequency(Hz)	Magnitude(dB)
1.000000e+01	-1.716653e-05
1.005776e+01	-1.736541e-05
1.011585e+01	-1.756659e-05
1.017428e+01	-1.777010e-05
1.023305e+01	-1.797597e-05
1.029215e+01	-1.818423e-05
1.035160e+01	-1.839490e-05
1.041139e+01	-1.860801e-05
1.047153e+01	-1.882359e-05
1.053201e+01	-1.904166e-05
1.059284e+01	-1.926227e-05
1.065403e+01	-1.948542e-05
1.071556e+01	-1.971117e-05
1.077746e+01	-1.993953e-05
1.083971e+01	-2.017053e-05
1.090232e+01	-2.040421e-05
1.096529e+01	-2.064060e-05
1.102862e+01	-2.087973e-05
1.109232e+01	-2.112162e-05
1.115639e+01	-2.136632e-05
1.122083e+01	-2.161386e-05
1.128564e+01	-2.186426e-05
1.135083e+01	-2.211756e-05
1.141639e+01	-2.237380e-05
1.148233e+01	-2.263300e-05
1.154865e+01	-2.289521e-05
1.161536e+01	-2.316046e-05
1.168245e+01	-2.342878e-05
1.174992e+01	-2.370021e-05
1.181779e+01	-2.397478e-05
1.188605e+01	-2.425253e-05
1.195470e+01	-2.453351e-05
1.202375e+01	-2.481773e-05
1.209320e+01	-2.510525e-05
1.216305e+01	-2.539610e-05
1.223330e+01	-2.569032e-05
1.230396e+01	-2.598795e-05
1.237503e+01	-2.628903e-05
1.244651e+01	-2.659359e-05
1.251840e+01	-2.690169e-05
1.259070e+01	-2.721335e-05
1.266343e+01	-2.752862e-05
1.273657e+01	-2.784755e-05
1.281014e+01	-2.817017e-05
1.288413e+01	-2.849653e-05
1.295855e+01	-2.882667e-05
1.303339e+01	-2.916063e-05
1.310867e+01	-2.949846e-05
1.318439e+01	-2.984021e-05
1.326054e+01	-3.018592e-05
1.333713e+01	-3.053563e-05
1.341417e+01	-3.088939e-05
1.349165e+01	-3.124725e-05
1.356958e+01	-3.160926e-05
1.364795e+01	-3.197546e-05
1.372678e+01	-3.234590e-05
1.380607e+01	-3.272064e-05
1.388581e+01	-3.309971e-05
1.396602e+01	-3.348318e-05
1.404668e+01	-3.387109e-05
1.412782e+01	-3.426350e-05
1.420942e+01	-3.466045e-05
1.429149e+01	-3.506200e-05
1.437404e+01	-3.546820e-05
1.445706e+01	-3.587910e-05
1.454057e+01	-3.629477e-05
1.462455e+01	-3.671526e-05
1.470902e+01	-3.714061e-05
1.479398e+01	-3.757089e-05
1.487943e+01	-3.800616e-05
1.496537e+01	-3.844647e-05
1.505181e+01	-3.889188e-05
1.513875e+01	-3.934245e-05
1.522619e+01	-3.979824e-05
1.531414e+01	-4.025932e-05
1.540259e+01	-4.072573e-05
1.549156e+01	-4.119755e-05
1.558103e+01	-4.167483e-05
1.567103e+01	-4.215764e-05
1.576155e+01	-4.264605e-05
1.585258e+01	-4.314011e-05
1.594415e+01	-4.363990e-05
1.603624e+01	-4.414548e-05
1.612886e+01	-4.465691e-05
1.622202e+01	-4.517427e-05
1.631572e+01	-4.569762e-05
1.640996e+01	-4.622704e-05
1.650474e+01	-4.676259e-05
1.660008e+01	-4.730435e-05
1.669596e+01	-4.785238e-05
1.679239e+01	-4.840676e-05
1.688938e+01	-4.896756e-05
1.698694e+01	-4.953486e-05
1.708505e+01	-5.010873e-05
1.718373e+01	-5.068925e-05
1.728299e+01	-5.127650e-05
1.738281e+01	-5.187055e-05
1.748322e+01	-5.247148e-05
1.758420e+01	-5.307937e-05
1.768576e+01	-5.369431e-05
1.778792e+01	-5.431637e-05
1.789066e+01	-5.494563e-05
1.799399e+01	-5.558219e-05
1.809793e+01	-5.622612e-05
1.820246e+01	-5.687751e-05
1.830760e+01	-5.753645e-05
1.841334e+01	-5.820302e-05
1.851969e+01	-5.887731e-05
1.862666e+01	-5.955942e-05
1.873425e+01	-6.024943e-05
1.884246e+01	-6.094743e-05
1.895129e+01	-6.165352e-05
1.906075e+01	-6.236779e-05
1.917085e+01	-6.309033e-05
1.928158e+01	-6.382124e-05
1.939295e+01	-6.456062e-05
1.950496e+01	-6.530857e-05
1.961762e+01	-6.606518e-05
1.973093e+01	-6.683056e-05
1.984490e+01	-6.760481e-05
1.995952e+01	-6.838802e-05
2.007480e+01	-6.918031e-05
2.019076e+01	-6.998177e-05
2.030738e+01	-7.079253e-05
2.042467e+01	-7.161267e-05
2.054264e+01	-7.244232e-05
2.066130e+01	-7.328157e-05
2.078064e+01	-7.413055e-05
2.090066e+01	-7.498937e-05
2.102139e+01	-7.585814e-05
2.114280e+01	-7.673697e-05
2.126492e+01	-7.762598e-05
2.138775e+01	-7.852529e-05
2.151128e+01	-7.943502e-05
2.163553e+01	-8.035528e-05
2.176050e+01	-8.128621e-05
2.188619e+01	-8.222793e-05
2.201260e+01	-8.318055e-05
2.213974e+01	-8.414421e-05
2.226762e+01	-8.511904e-05
2.239624e+01	-8.610516e-05
2.252560e+01	-8.710270e-05
2.265571e+01	-8.811180e-05
2.278656e+01	-8.913259e-05
2.291818e+01	-9.016520e-05
2.305055e+01	-9.120978e-05
2.318369e+01	-9.226646e-05
2.331760e+01	-9.333538e-05
2.345228e+01	-9.441669e-05
2.358774e+01	-9.551052e-05
2.372398e+01	-9.661702e-05
2.386101e+01	-9.773635e-05
2.399883e+01	-9.886864e-05
2.413745e+01	-1.000140e-04
2.427686e+01	-1.011727e-04
2.441709e+01	-1.023448e-04
2.455812e+01	-1.035305e-04
2.469997e+01	-1.047299e-04
2.484263e+01	-1.059432e-04
2.498612e+01	-1.071706e-04
2.513044e+01	-1.084122e-04
2.527559e+01	-1.096681e-04
2.542158e+01	-1.109387e-04
2.556842e+01	-1.122239e-04
2.571610e+01	-1.135240e-04
2.586463e+01	-1.148392e-04
2.601403e+01	-1.161697e-04
2.616428e+01	-1.175155e-04
2.631541e+01	-1.188769e-04
2.646740e+01	-1.202541e-04
2.662028e+01	-1.216473e-04
2.677404e+01	-1.230566e-04
2.692868e+01	-1.244822e-04
2.708422e+01	-1.259243e-04
2.724066e+01	-1.273832e-04
2.739800e+01	-1.288589e-04
2.755625e+01	-1.303518e-04
2.771541e+01	-1.318619e-04
2.787550e+01	-1.333896e-04
2.803650e+01	-1.349349e-04
2.819844e+01	-1.364981e-04
2.836131e+01	-1.380795e-04
2.852513e+01	-1.396791e-04
2.868989e+01	-1.412973e-04
2.885560e+01	-1.429343e-04
2.902227e+01	-1.445902e-04
2.918990e+01	-1.462653e-04
2.935850e+01	-1.479598e-04
2.952807e+01	-1.496739e-04
2.969863e+01	-1.514079e-04
2.987016e+01	-1.531619e-04
3.004269e+01	-1.549363e-04
3.021622e+01	-1.567313e-04
3.039075e+01	-1.585470e-04
3.056628e+01	-1.603838e-04
3.074283e+01	-1.622419e-04
3.092040e+01	-1.641214e-04
3.109900e+01	-1.660228e-04
3.127862e+01	-1.679462e-04
3.145929e+01	-1.698918e-04
3.164099e+01	-1.718600e-04
3.182375e+01	-1.738511e-04
3.200756e+01	-1.758651e-04
3.219244e+01	-1.779025e-04
3.237838e+01	-1.799635e-04
3.256540e+01	-1.820484e-04
3.275349e+01	-1.841575e-04
3.294268e+01	-1.862909e-04
3.313295e+01	-1.884491e-04
3.332433e+01	-1.906323e-04
3.351681e+01	-1.928408e-04
3.371040e+01	-1.950748e-04
3.390511e+01	-1.973348e-04
3.410094e+01	-1.996209e-04
3.429791e+01	-2.019335e-04
3.449601e+01	-2.042729e-04
3.469526e+01	-2.066394e-04
3.489566e+01	-2.090333e-04
3.509721e+01	-2.114550e-04
3.529993e+01	-2.139047e-04
3.550382e+01	-2.163828e-04
3.570889e+01	-2.188896e-04
3.591515e+01	-2.214254e-04
3.612259e+01	-2.239906e-04
3.633123e+01	-2.265855e-04
3.654108e+01	-2.292105e-04
3.675214e+01	-2.318659e-04
3.696442e+01	-2.345521e-04
3.717792e+01	-2.372694e-04
3.739266e+01	-2.400181e-04
3.760864e+01	-2.427987e-04
3.782587e+01	-2.456115e-04
3.804435e+01	-2.484569e-04
3.826409e+01	-2.513353e-04
3.848510e+01	-2.542470e-04
3.870739e+01	-2.571924e-04
3.893096e+01	-2.601720e-04
3.915583e+01	-2.631861e-04
3.938199e+01	-2.662351e-04
3.960946e+01	-2.693194e-04
3.983824e+01	-2.724394e-04
4.006834e+01	-2.755956e-04
4.029978e+01	-2.787883e-04
4.053255e+01	-2.820181e-04
4.076666e+01	-2.852852e-04
4.100213e+01	-2.885902e-04
4.123896e+01	-2.919335e-04
4.147715e+01	-2.953155e-04
4.171672e+01	-2.987367e-04
4.195767e+01	-3.021975e-04
4.220002e+01	-3.056985e-04
4.244377e+01	-3.092399e-04
4.268892e+01	-3.128224e-04
4.293549e+01	-3.164464e-04
4.318348e+01	-3.201124e-04
4.343291e+01	-3.238209e-04
4.368377e+01	-3.275723e-04
4.393609e+01	-3.313672e-04
4.418986e+01	-3.352060e-04
4.444510e+01	-3.390893e-04
4.470182e+01	-3.430176e-04
4.496001e+01	-3.469914e-04
4.521970e+01	-3.510112e-04
4.548089e+01	-3.550776e-04
4.574358e+01	-3.591911e-04
4.600779e+01	-3.633523e-04
4.627353e+01	-3.675616e-04
4.654081e+01	-3.718198e-04
4.680963e+01	-3.761272e-04
4.708000e+01	-3.804845e-04
4.735193e+01	-3.848924e-04
4.762543e+01	-3.893513e-04
4.790051e+01	-3.938618e-04
4.817719e+01	-3.984246e-04
4.845545e+01	-4.030402e-04
4.873533e+01	-4.077093e-04
4.901682e+01	-4.124325e-04
4.929994e+01	-4.172105e-04
4.958470e+01	-4.220437e-04
4.987110e+01	-4.269330e-04
5.015915e+01	-4.318789e-04
5.044887e+01	-4.368821e-04
5.074026e+01	-4.419432e-04
5.103333e+01	-4.470630e-04
5.132810e+01	-4.522420e-04
5.162457e+01	-4.574811e-04
5.192275e+01	-4.627809e-04
5.222265e+01	-4.681420e-04
5.252429e+01	-4.735653e-04
5.282767e+01	-4.790514e-04
5.313280e+01	-4.846010e-04
5.343969e+01	-4.902149e-04
5.374836e+01	-4.958939e-04
5.405880e+01	-5.016386e-04
5.437105e+01	-5.074499e-04
5.468509e+01	-5.133285e-04
5.500095e+01	-5.192752e-04
5.531863e+01	-5.252908e-04
5.563815e+01	-5.313760e-04
5.595951e+01	-5.375318e-04
5.628273e+01	-5.437589e-04
5.660782e+01	-5.500581e-04
5.693479e+01	-5.564302e-04
5.726364e+01	-5.628762e-04
5.759439e+01	-5.693969e-04
5.792705e+01	-5.759930e-04
5.826164e+01	-5.826656e-04
5.859815e+01	-5.894155e-04
5.893662e+01	-5.962436e-04
5.927703e+01	-6.031508e-04
5.961941e+01	-6.101379e-04
5.996377e+01	-6.172061e-04
6.031012e+01	-6.243560e-04
6.065847e+01	-6.315888e-04
6.100883e+01	-6.389054e-04
6.136121e+01	-6.463068e-04
6.171563e+01	-6.537939e-04
6.207210e+01	-6.613677e-04
6.243063e+01	-6.690292e-04
6.279122e+01	-6.767795e-04
6.315390e+01	-6.846195e-04
6.351868e+01	-6.925504e-04
6.388556e+01	-7.005732e-04
6.425456e+01	-7.086888e-04
6.462569e+01	-7.168985e-04
6.499897e+01	-7.252033e-04
6.537440e+01	-7.336043e-04
6.575200e+01	-7.421025e-04
6.613178e+01	-7.506993e-04
6.651375e+01	-7.593955e-04
6.689793e+01	-7.681926e-04
6.728433e+01	-7.770915e-04
6.767297e+01	-7.860935e-04
6.806384e+01	-7.951998e-04
6.845698e+01	-8.044115e-04
6.885238e+01	-8.137300e-04
6.925007e+01	-8.231564e-04
6.965005e+01	-8.326920e-04
7.005235e+01	-8.423380e-04
7.045697e+01	-8.520957e-04
7.086393e+01	-8.619665e-04
7.127323e+01	-8.719516e-04
7.168490e+01	-8.820524e-04
7.209895e+01	-8.922702e-04
7.251539e+01	-9.026063e-04
7.293424e+01	-9.130622e-04
7.335551e+01	-9.236391e-04
7.377920e+01	-9.343386e-04
7.420535e+01	-9.451620e-04
7.463396e+01	-9.561107e-04
7.506504e+01	-9.671863e-04
7.549861e+01	-9.783901e-04
7.593469e+01	-9.897238e-04
7.637328e+01	-1.001189e-03
7.681441e+01	-1.012786e-03
7.725809e+01	-1.024518e-03
7.770433e+01	-1.036386e-03
7.815315e+01	-1.048392e-03
7.860456e+01	-1.060536e-03
7.905857e+01	-1.072821e-03
7.951521e+01	-1.085249e-03
7.997449e+01	-1.097820e-03
8.043642e+01	-1.110537e-03
8.090102e+01	-1.123401e-03
8.136830e+01	-1.136414e-03
8.183828e+01	-1.149578e-03
8.231097e+01	-1.162894e-03
8.278640e+01	-1.176365e-03
8.326457e+01	-1.189992e-03
8.374550e+01	-1.203776e-03
8.422921e+01	-1.217720e-03
8.471572e+01	-1.231826e-03
8.520503e+01	-1.246095e-03
8.569717e+01	-1.260529e-03
8.619215e+01	-1.275131e-03
8.669000e+01	-1.289901e-03
8.719071e+01	-1.304843e-03
8.769432e+01	-1.319957e-03
8.820084e+01	-1.335247e-03
8.871029e+01	-1.350714e-03
8.922267e+01	-1.366360e-03
8.973802e+01	-1.382187e-03
9.025634e+01	-1.398197e-03
9.077766e+01	-1.414393e-03
9.130199e+01	-1.430777e-03
9.182935e+01	-1.447350e-03
9.235975e+01	-1.464115e-03
9.289321e+01	-1.481074e-03
9.342976e+01	-1.498230e-03
9.396941e+01	-1.515584e-03
9.451217e+01	-1.533140e-03
9.505807e+01	-1.550898e-03
9.560712e+01	-1.568863e-03
9.615934e+01	-1.587035e-03
9.671476e+01	-1.605418e-03
9.727338e+01	-1.624014e-03
9.783522e+01	-1.642825e-03
9.840032e+01	-1.661854e-03
9.896867e+01	-1.681103e-03
9.954031e+01	-1.700575e-03
1.001153e+02	-1.720273e-03
1.006935e+02	-1.740199e-03
1.012751e+02	-1.760355e-03
1.018601e+02	-1.780745e-03
1.024484e+02	-1.801371e-03
1.030402e+02	-1.822236e-03
1.036353e+02	-1.843343e-03
1.042339e+02	-1.864694e-03
1.048360e+02	-1.886292e-03
1.054415e+02	-1.908141e-03
1.060505e+02	-1.930242e-03
1.066631e+02	-1.952599e-03
1.072791e+02	-1.975216e-03
1.078988e+02	-1.998094e-03
1.085220e+02	-2.021237e-03
1.091488e+02	-2.044648e-03
1.097793e+02	-2.068330e-03
1.104133e+02	-2.092286e-03
1.110511e+02	-2.116520e-03
1.116925e+02	-2.141035e-03
1.123376e+02	-2.165833e-03
1.129865e+02	-2.190918e-03
1.136391e+02	-2.216294e-03
1.142955e+02	-2.241964e-03
1.149556e+02	-2.267931e-03
1.156196e+02	-2.294199e-03
1.162874e+02	-2.320770e-03
1.169591e+02	-2.347650e-03
1.176347e+02	-2.374840e-03
1.183141e+02	-2.402346e-03
1.189975e+02	-2.430170e-03
1.196848e+02	-2.458316e-03
1.203761e+02	-2.486788e-03
1.210714e+02	-2.515590e-03
1.217707e+02	-2.544725e-03
1.224740e+02	-2.574198e-03
1.231814e+02	-2.604012e-03
1.238929e+02	-2.634171e-03
1.246085e+02	-2.664679e-03
1.253283e+02	-2.695540e-03
1.260522e+02	-2.726759e-03
1.267802e+02	-2.758339e-03
1.275125e+02	-2.790285e-03
1.282490e+02	-2.822601e-03
1.289898e+02	-2.855291e-03
1.297348e+02	-2.888359e-03
1.304842e+02	-2.921810e-03
1.312378e+02	-2.955648e-03
1.319959e+02	-2.989879e-03
1.327583e+02	-3.024505e-03
1.335251e+02	-3.059532e-03
1.342963e+02	-3.094965e-03
1.350720e+02	-3.130808e-03
1.358522e+02	-3.167066e-03
1.366368e+02	-3.203744e-03
1.374260e+02	-3.240846e-03
1.382198e+02	-3.278378e-03
1.390182e+02	-3.316344e-03
1.398211e+02	-3.354750e-03
1.406287e+02	-3.393601e-03
1.414410e+02	-3.432901e-03
1.422579e+02	-3.472656e-03
1.430796e+02	-3.512871e-03
1.439060e+02	-3.553552e-03
1.447372e+02	-3.594704e-03
1.455732e+02	-3.636332e-03
1.464141e+02	-3.678442e-03
1.472597e+02	-3.721040e-03
1.481103e+02	-3.764130e-03
1.489658e+02	-3.807719e-03
1.498262e+02	-3.851813e-03
1.506916e+02	-3.896417e-03
1.515620e+02	-3.941538e-03
1.524374e+02	-3.987181e-03
1.533179e+02	-4.033352e-03
1.542034e+02	-4.080057e-03
1.550941e+02	-4.127303e-03
1.559899e+02	-4.175096e-03
1.568909e+02	-4.223442e-03
1.577971e+02	-4.272348e-03
1.587085e+02	-4.321819e-03
1.596252e+02	-4.371863e-03
1.605472e+02	-4.422487e-03
1.614745e+02	-4.473696e-03
1.624072e+02	-4.525498e-03
1.633453e+02	-4.577899e-03
1.642887e+02	-4.630907e-03
1.652377e+02	-4.684528e-03
1.661921e+02	-4.738770e-03
1.671520e+02	-4.793640e-03
1.681175e+02	-4.849144e-03
1.690885e+02	-4.905291e-03
1.700651e+02	-4.962087e-03
1.710474e+02	-5.019541e-03
1.720354e+02	-5.077660e-03
1.730291e+02	-5.136451e-03
1.740285e+02	-5.195922e-03
1.750337e+02	-5.256082e-03
1.760446e+02	-5.316938e-03
1.770615e+02	-5.378498e-03
1.780842e+02	-5.440770e-03
1.791128e+02	-5.503763e-03
1.801473e+02	-5.567484e-03
1.811878e+02	-5.631943e-03
1.822344e+02	-5.697148e-03
1.832870e+02	-5.763107e-03
1.843456e+02	-5.829829e-03
1.854104e+02	-5.897323e-03
1.864813e+02	-5.965598e-03
1.875584e+02	-6.034663e-03
1.886418e+02	-6.104527e-03
1.897313e+02	-6.175199e-03
1.908272e+02	-6.246688e-03
1.919294e+02	-6.319005e-03
1.930380e+02	-6.392158e-03
1.941530e+02	-6.466158e-03
1.952744e+02	-6.541013e-03
1.964023e+02	-6.616735e-03
1.975367e+02	-6.693332e-03
1.986777e+02	-6.770816e-03
1.998252e+02	-6.849195e-03
2.009794e+02	-6.928482e-03
2.021403e+02	-7.008685e-03
2.033078e+02	-7.089816e-03
2.044821e+02	-7.171885e-03
2.056632e+02	-7.254904e-03
2.068511e+02	-7.338882e-03
2.080459e+02	-7.423832e-03
2.092475e+02	-7.509765e-03
2.104561e+02	-7.596691e-03
2.116717e+02	-7.684623e-03
2.128943e+02	-7.773571e-03
2.141240e+02	-7.863548e-03
2.153608e+02	-7.954566e-03
2.166047e+02	-8.046636e-03
2.178558e+02	-8.139770e-03
2.191141e+02	-8.233982e-03
2.203797e+02	-8.329283e-03
2.216526e+02	-8.425686e-03
2.229329e+02	-8.523204e-03
2.242205e+02	-8.621849e-03
2.255156e+02	-8.721635e-03
2.268182e+02	-8.822574e-03
2.281283e+02	-8.924681e-03
2.294459e+02	-9.027968e-03
2.307712e+02	-9.132449e-03
2.321041e+02	-9.238138e-03
2.334447e+02	-9.345048e-03
2.347931e+02	-9.453195e-03
2.361493e+02	-9.562592e-03
2.375133e+02	-9.673253e-03
2.388851e+02	-9.785193e-03
2.402649e+02	-9.898428e-03
2.416527e+02	-1.001297e-02
2.430484e+02	-1.012884e-02
2.444523e+02	-1.024604e-02
2.458642e+02	-1.036461e-02
2.472843e+02	-1.048454e-02
2.487126e+02	-1.060585e-02
2.501492e+02	-1.072857e-02
2.515940e+02	-1.085271e-02
2.530472e+02	-1.097828e-02
2.545088e+02	-1.110531e-02
2.559789e+02	-1.123380e-02
2.574574e+02	-1.136377e-02
2.589444e+02	-1.149525e-02
2.604401e+02	-1.162825e-02
2.619444e+02	-1.176278e-02
2.634574e+02	-1.189887e-02
2.649791e+02	-1.203653e-02
2.665096e+02	-1.217578e-02
2.680489e+02	-1.231664e-02
2.695972e+02	-1.245912e-02
2.711544e+02	-1.260325e-02
2.727205e+02	-1.274905e-02
2.742958e+02	-1.289653e-02
2.758801e+02	-1.304572e-02
2.774736e+02	-1.319662e-02
2.790762e+02	-1.334927e-02
2.806882e+02	-1.350369e-02
2.823094e+02	-1.365989e-02
2.839400e+02	-1.381789e-02
2.855800e+02	-1.397771e-02
2.872295e+02	-1.413938e-02
2.888886e+02	-1.430292e-02
2.905572e+02	-1.446835e-02
2.922354e+02	-1.463568e-02
2.939234e+02	-1.480495e-02
2.956211e+02	-1.497617e-02
2.973286e+02	-1.514937e-02
2.990459e+02	-1.532457e-02
3.007732e+02	-1.550179e-02
3.025104e+02	-1.568106e-02
3.042577e+02	-1.586239e-02
3.060151e+02	-1.604582e-02
3.077826e+02	-1.623137e-02
3.095604e+02	-1.641906e-02
3.113484e+02	-1.660891e-02
3.131467e+02	-1.680096e-02
3.149554e+02	-1.699522e-02
3.167746e+02	-1.719172e-02
3.186043e+02	-1.739049e-02
3.204445e+02	-1.759156e-02
3.222954e+02	-1.779494e-02
3.241570e+02	-1.800067e-02
3.260293e+02	-1.820877e-02
3.279124e+02	-1.841928e-02
3.298064e+02	-1.863221e-02
3.317114e+02	-1.884760e-02
3.336273e+02	-1.906547e-02
3.355544e+02	-1.928586e-02
3.374925e+02	-1.950879e-02
3.394418e+02	-1.973429e-02
3.414024e+02	-1.996239e-02
3.433744e+02	-2.019312e-02
3.453577e+02	-2.042651e-02
3.473525e+02	-2.066259e-02
3.493588e+02	-2.090139e-02
3.513766e+02	-2.114295e-02
3.534062e+02	-2.138729e-02
3.554474e+02	-2.163445e-02
3.575005e+02	-2.188446e-02
3.595654e+02	-2.213735e-02
3.616422e+02	-2.239315e-02
3.637311e+02	-2.265190e-02
3.658320e+02	-2.291364e-02
3.679450e+02	-2.317838e-02
3.700702e+02	-2.344619e-02
3.722077e+02	-2.371707e-02
3.743576e+02	-2.399108e-02
3.765199e+02	-2.426824e-02
3.786946e+02	-2.454860e-02
3.808820e+02	-2.483219e-02
3.830819e+02	-2.511904e-02
3.852946e+02	-2.540920e-02
3.875200e+02	-2.570269e-02
3.897583e+02	-2.599957e-02
3.920096e+02	-2.629987e-02
3.942738e+02	-2.660362e-02
3.965511e+02	-2.691088e-02
3.988416e+02	-2.722167e-02
4.011452e+02	-2.753603e-02
4.034622e+02	-2.785402e-02
4.057926e+02	-2.817566e-02
4.081365e+02	-2.850101e-02
4.104938e+02	-2.883011e-02
4.128648e+02	-2.916299e-02
4.152495e+02	-2.949970e-02
4.176480e+02	-2.984028e-02
4.200603e+02	-3.018478e-02
4.224866e+02	-3.053325e-02
4.249268e+02	-3.088572e-02
4.273812e+02	-3.124225e-02
4.298497e+02	-3.160288e-02
4.323325e+02	-3.196766e-02
4.348297e+02	-3.233663e-02
4.373412e+02	-3.270984e-02
4.398673e+02	-3.308735e-02
4.424079e+02	-3.346919e-02
4.449633e+02	-3.385542e-02
4.475334e+02	-3.424610e-02
4.501183e+02	-3.464126e-02
4.527182e+02	-3.504097e-02
4.553330e+02	-3.544527e-02
4.579630e+02	-3.585421e-02
4.606082e+02	-3.626785e-02
4.632687e+02	-3.668624e-02
4.659445e+02	-3.710944e-02
4.686358e+02	-3.753750e-02
4.713426e+02	-3.797048e-02
4.740650e+02	-3.840843e-02
4.768032e+02	-3.885140e-02
4.795572e+02	-3.929947e-02
4.823271e+02	-3.975267e-02
4.851130e+02	-4.021108e-02
4.879150e+02	-4.067475e-02
4.907332e+02	-4.114374e-02
4.935676e+02	-4.161811e-02
4.964185e+02	-4.209793e-02
4.992858e+02	-4.258325e-02
5.021696e+02	-4.307414e-02
5.050701e+02	-4.357065e-02
5.079874e+02	-4.407286e-02
5.109215e+02	-4.458083e-02
5.138726e+02	-4.509463e-02
5.168407e+02	-4.561431e-02
5.198259e+02	-4.613996e-02
5.228284e+02	-4.667162e-02
5.258482e+02	-4.720938e-02
5.288855e+02	-4.775330e-02
5.319403e+02	-4.830345e-02
5.350128e+02	-4.885991e-02
5.381030e+02	-4.942274e-02
5.412111e+02	-4.999201e-02
5.443371e+02	-5.056781e-02
5.474812e+02	-5.115019e-02
5.506434e+02	-5.173925e-02
5.538239e+02	-5.233504e-02
5.570228e+02	-5.293766e-02
5.602401e+02	-5.354717e-02
5.634760e+02	-5.416365e-02
5.667306e+02	-5.478719e-02
5.700040e+02	-5.541786e-02
5.732964e+02	-5.605574e-02
5.766077e+02	-5.670092e-02
5.799382e+02	-5.735347e-02
5.832879e+02	-5.801349e-02
5.866569e+02	-5.868104e-02
5.900454e+02	-5.935623e-02
5.934535e+02	-6.003913e-02
5.968813e+02	-6.072983e-02
6.003288e+02	-6.142842e-02
6.037963e+02	-6.213499e-02
6.072838e+02	-6.284963e-02
6.107914e+02	-6.357243e-02
6.143194e+02	-6.430348e-02
6.178676e+02	-6.504287e-02
6.214364e+02	-6.579070e-02
6.250258e+02	-6.654706e-02
6.286359e+02	-6.731205e-02
6.322669e+02	-6.808576e-02
6.359189e+02	-6.886830e-02
6.395919e+02	-6.965976e-02
6.432862e+02	-7.046023e-02
6.470017e+02	-7.126984e-02
6.507388e+02	-7.208866e-02
6.544974e+02	-7.291682e-02
6.582778e+02	-7.375441e-02
6.620800e+02	-7.460154e-02
6.659041e+02	-7.545831e-02
6.697504e+02	-7.632483e-02
6.736188e+02	-7.720122e-02
6.775096e+02	-7.808758e-02
6.814229e+02	-7.898403e-02
6.853587e+02	-7.989066e-02
6.893173e+02	-8.080761e-02
6.932988e+02	-8.173499e-02
6.973033e+02	-8.267291e-02
7.013309e+02	-8.362148e-02
