Frequency(Hz)	Magnitude(dB)
1.000000e+01	-2.207428e+00
1.005776e+01	-2.227313e+00
1.011585e+01	-2.247572e+00
1.017428e+01	-2.267741e+00
1.023305e+01	-2.288208e+00
1.029215e+01	-2.308677e+00
1.035160e+01	-2.329420e+00
1.041139e+01	-2.350548e+00
1.047153e+01	-2.371315e+00
1.053201e+01	-2.392536e+00
1.059284e+01	-2.413443e+00
1.065403e+01	-2.435039e+00
1.071556e+01	-2.456489e+00
1.077746e+01	-2.478288e+00
1.083971e+01	-2.500119e+00
1.090232e+01	-2.522301e+00
1.096529e+01	-2.544215e+00
1.102862e+01	-2.566647e+00
1.109232e+01	-2.588654e+00
1.115639e+01	-2.611289e+00
1.122083e+01	-2.634140e+00
1.128564e+01	-2.656884e+00
1.135083e+01	-2.679654e+00
1.141639e+01	-2.702923e+00
1.148233e+01	-2.726305e+00
1.154865e+01	-2.749565e+00
1.161536e+01	-2.772882e+00
1.168245e+01	-2.796776e+00
1.174992e+01	-2.820787e+00
1.181779e+01	-2.844573e+00
1.188605e+01	-2.868462e+00
1.195470e+01	-2.892904e+00
1.202375e+01	-2.917228e+00
1.209320e+01	-2.941753e+00
1.216305e+01	-2.966756e+00
1.223330e+01	-2.991293e+00
1.230396e+01	-3.016225e+00
1.237503e+01	-3.041525e+00
1.244651e+01	-3.067093e+00
1.251840e+01	-3.092016e+00
1.259070e+01	-3.117746e+00
1.266343e+01	-3.143336e+00
1.273657e+01	-3.169233e+00
1.281014e+01	-3.195361e+00
1.288413e+01	-3.221423e+00
1.295855e+01	-3.247689e+00
1.303339e+01	-3.274170e+00
1.310867e+01	-3.300635e+00
1.318439e+01	-3.327428e+00
1.326054e+01	-3.353924e+00
1.333713e+01	-3.380999e+00
1.341417e+01	-3.408456e+00
1.349165e+01	-3.435520e+00
1.356958e+01	-3.462878e+00
1.364795e+01	-3.490379e+00
1.372678e+01	-3.518242e+00
1.380607e+01	-3.545922e+00
1.388581e+01	-3.574218e+00
1.396602e+01	-3.602485e+00
1.404668e+01	-3.630674e+00
1.412782e+01	-3.658873e+00
1.420942e+01	-3.687716e+00
1.429149e+01	-3.716215e+00
1.437404e+01	-3.744931e+00
1.445706e+01	-3.774151e+00
1.454057e+01	-3.802911e+00
1.462455e+01	-3.832351e+00
1.470902e+01	-3.861633e+00
1.479398e+01	-3.891125e+00
1.487943e+01	-3.921026e+00
1.496537e+01	-3.950645e+00
1.505181e+01	-3.980579e+00
1.513875e+01	-4.010813e+00
1.522619e+01	-4.041058e+00
1.531414e+01	-4.071178e+00
1.540259e+01	-4.101914e+00
1.549156e+01	-4.132545e+00
1.558103e+01	-4.163506e+00
1.567103e+01	-4.193903e+00
1.576155e+01	-4.225407e+00
1.585258e+01	-4.256270e+00
1.594415e+01	-4.287776e+00
1.603624e+01	-4.319287e+00
1.612886e+01	-4.350782e+00
1.622202e+01	-4.382407e+00
1.631572e+01	-4.414218e+00
1.640996e+01	-4.446376e+00
1.650474e+01	-4.478584e+00
1.660008e+01	-4.510594e+00
1.669596e+01	-4.543174e+00
1.679239e+01	-4.575573e+00
1.688938e+01	-4.608320e+00
1.698694e+01	-4.641138e+00
1.708505e+01	-4.674065e+00
1.718373e+01	-4.707101e+00
1.728299e+01	-4.739854e+00
1.738281e+01	-4.773183e+00
1.748322e+01	-4.806763e+00
1.758420e+01	-4.840354e+00
1.768576e+01	-4.874275e+00
1.778792e+01	-4.907880e+00
1.789066e+01	-4.941814e+00
1.799399e+01	-4.975925e+00
1.809793e+01	-5.010118e+00
1.820246e+01	-5.044466e+00
1.830760e+01	-5.078742e+00
1.841334e+01	-5.113527e+00
1.851969e+01	-5.148101e+00
1.862666e+01	-5.182755e+00
1.873425e+01	-5.217780e+00
1.884246e+01	-5.252816e+00
1.895129e+01	-5.288072e+00
1.906075e+01	-5.323227e+00
1.917085e+01	-5.358592e+00
1.928158e+01	-5.394138e+00
1.939295e+01	-5.429645e+00
1.950496e+01	-5.465462e+00
1.961762e+01	-5.501410e+00
1.973093e+01	-5.537569e+00
1.984490e+01	-5.573460e+00
1.995952e+01	-5.609820e+00
2.007480e+01	-5.646320e+00
2.019076e+01	-5.682136e+00
2.030738e+01	-5.718747e+00
2.042467e+01	-5.755796e+00
2.054264e+01	-5.792464e+00
2.066130e+01	-5.829667e+00
2.078064e+01	-5.866579e+00
2.090066e+01	-5.903720e+00
2.102139e+01	-5.940608e+00
2.114280e+01	-5.978126e+00
2.126492e+01	-6.015326e+00
2.138775e+01	-6.053292e+00
2.151128e+01	-6.090780e+00
2.163553e+01	-6.128931e+00
2.176050e+01	-6.166695e+00
2.188619e+01	-6.204569e+00
2.201260e+01	-6.242413e+00
2.213974e+01	-6.280711e+00
2.226762e+01	-6.319061e+00
2.239624e+01	-6.357506e+00
2.252560e+01	-6.396131e+00
2.265571e+01	-6.434745e+00
2.278656e+01	-6.473125e+00
2.291818e+01	-6.512388e+00
2.305055e+01	-6.551227e+00
2.318369e+01	-6.590305e+00
2.331760e+01	-6.629131e+00
2.345228e+01	-6.668408e+00
2.358774e+01	-6.707873e+00
2.372398e+01	-6.747320e+00
2.386101e+01	-6.786692e+00
2.399883e+01	-6.825686e+00
2.413745e+01	-6.865864e+00
2.427686e+01	-6.905400e+00
2.441709e+01	-6.945170e+00
2.455812e+01	-6.985728e+00
2.469997e+01	-7.025444e+00
2.484263e+01	-7.065516e+00
2.498612e+01	-7.105664e+00
2.513044e+01	-7.146336e+00
2.527559e+01	-7.186372e+00
2.542158e+01	-7.227091e+00
2.556842e+01	-7.267519e+00
2.571610e+01	-7.308679e+00
2.586463e+01	-7.349226e+00
2.601403e+01	-7.389998e+00
2.616428e+01	-7.431431e+00
2.631541e+01	-7.471965e+00
2.646740e+01	-7.512978e+00
2.662028e+01	-7.554117e+00
2.677404e+01	-7.595529e+00
2.692868e+01	-7.636736e+00
2.708422e+01	-7.678440e+00
2.724066e+01	-7.720179e+00
2.739800e+01	-7.761493e+00
2.755625e+01	-7.803149e+00
2.771541e+01	-7.844812e+00
2.787550e+01	-7.886547e+00
2.803650e+01	-7.928760e+00
2.819844e+01	-7.970871e+00
2.836131e+01	-8.013179e+00
2.852513e+01	-8.054813e+00
2.868989e+01	-8.097326e+00
2.885560e+01	-8.139287e+00
2.902227e+01	-8.181531e+00
2.918990e+01	-8.224135e+00
2.935850e+01	-8.266802e+00
2.952807e+01	-8.309160e+00
2.969863e+01	-8.352132e+00
2.987016e+01	-8.394685e+00
3.004269e+01	-8.437977e+00
3.021622e+01	-8.480887e+00
3.039075e+01	-8.523910e+00
3.056628e+01	-8.566825e+00
3.074283e+01	-8.609706e+00
3.092040e+01	-8.652511e+00
3.109900e+01	-8.695895e+00
3.127862e+01	-8.739482e+00
3.145929e+01	-8.782991e+00
3.164099e+01	-8.826081e+00
3.182375e+01	-8.869494e+00
3.200756e+01	-8.913304e+00
3.219244e+01	-8.956817e+00
3.237838e+01	-9.000613e+00
3.256540e+01	-9.044371e+00
3.275349e+01	-9.088412e+00
3.294268e+01	-9.132096e+00
3.313295e+01	-9.176003e+00
3.332433e+01	-9.219642e+00
3.351681e+01	-9.264200e+00
3.371040e+01	-9.308305e+00
3.390511e+01	-9.352367e+00
3.410094e+01	-9.396531e+00
3.429791e+01	-9.440818e+00
3.449601e+01	-9.485433e+00
3.469526e+01	-9.530027e+00
3.489566e+01	-9.573683e+00
3.509721e+01	-9.618905e+00
3.529993e+01	-9.663227e+00
3.550382e+01	-9.707854e+00
3.570889e+01	-9.752765e+00
3.591515e+01	-9.797643e+00
3.612259e+01	-9.842482e+00
3.633123e+01	-9.886819e+00
3.654108e+01	-9.932236e+00
3.675214e+01	-9.976693e+00
3.696442e+01	-1.002250e+01
3.717792e+01	-1.006748e+01
3.739266e+01	-1.011221e+01
3.760864e+01	-1.015744e+01
3.782587e+01	-1.020246e+01
3.804435e+01	-1.024785e+01
3.826409e+01	-1.029382e+01
3.848510e+01	-1.033856e+01
3.870739e+01	-1.038433e+01
3.893096e+01	-1.043009e+01
3.915583e+01	-1.047572e+01
3.938199e+01	-1.052083e+01
3.960946e+01	-1.056616e+01
3.983824e+01	-1.061237e+01
4.006834e+01	-1.065734e+01
4.029978e+01	-1.070325e+01
4.053255e+01	-1.074905e+01
4.076666e+01	-1.079533e+01
4.100213e+01	-1.084084e+01
4.123896e+01	-1.088681e+01
4.147715e+01	-1.093310e+01
4.171672e+01	-1.097871e+01
4.195767e+01	-1.102532e+01
4.220002e+01	-1.107125e+01
4.244377e+01	-1.111701e+01
4.268892e+01	-1.116359e+01
4.293549e+01	-1.120964e+01
4.318348e+01	-1.125583e+01
4.343291e+01	-1.130165e+01
4.368377e+01	-1.134866e+01
4.393609e+01	-1.139497e+01
4.418986e+01	-1.144101e+01
4.444510e+01	-1.148786e+01
4.470182e+01	-1.153390e+01
4.496001e+01	-1.158093e+01
4.521970e+01	-1.162743e+01
4.548089e+01	-1.167357e+01
4.574358e+01	-1.172022e+01
4.600779e+01	-1.176699e+01
4.627353e+01	-1.181419e+01
4.654081e+01	-1.186039e+01
4.680963e+01	-1.190687e+01
4.708000e+01	-1.195422e+01
4.735193e+01	-1.200037e+01
4.762543e+01	-1.204835e+01
4.790051e+01	-1.209515e+01
4.817719e+01	-1.214190e+01
4.845545e+01	-1.218814e+01
4.873533e+01	-1.223648e+01
4.901682e+01	-1.228315e+01
4.929994e+01	-1.232987e+01
4.958470e+01	-1.237643e+01
4.987110e+01	-1.242436e+01
5.015915e+01	-1.247172e+01
5.044887e+01	-1.251818e+01
5.074026e+01	-1.256605e+01
5.103333e+01	-1.261291e+01
5.132810e+01	-1.266049e+01
5.162457e+01	-1.270805e+01
5.192275e+01	-1.275498e+01
5.222265e+01	-1.280285e+01
5.252429e+01	-1.284921e+01
5.282767e+01	-1.289736e+01
5.313280e+01	-1.294438e+01
5.343969e+01	-1.299297e+01
5.374836e+01	-1.303996e+01
5.405880e+01	-1.308729e+01
5.437105e+01	-1.313490e+01
5.468509e+01	-1.318279e+01
5.500095e+01	-1.323072e+01
5.531863e+01	-1.327857e+01
5.563815e+01	-1.332598e+01
5.595951e+01	-1.337287e+01
5.628273e+01	-1.342064e+01
5.660782e+01	-1.346863e+01
5.693479e+01	-1.351609e+01
5.726364e+01	-1.356459e+01
5.759439e+01	-1.361238e+01
5.792705e+01	-1.366016e+01
5.826164e+01	-1.370844e+01
5.859815e+01	-1.375609e+01
5.893662e+01	-1.380347e+01
5.927703e+01	-1.385149e+01
5.961941e+01	-1.389990e+01
5.996377e+01	-1.394820e+01
6.031012e+01	-1.399673e+01
6.065847e+01	-1.404407e+01
6.100883e+01	-1.409169e+01
6.136121e+01	-1.413996e+01
6.171563e+01	-1.418782e+01
6.207210e+01	-1.423666e+01
6.243063e+01	-1.428512e+01
6.279122e+01	-1.433317e+01
6.315390e+01	-1.438136e+01
6.351868e+01	-1.442909e+01
6.388556e+01	-1.447740e+01
6.425456e+01	-1.452602e+01
6.462569e+01	-1.457406e+01
6.499897e+01	-1.462184e+01
6.537440e+01	-1.466986e+01
6.575200e+01	-1.471908e+01
6.613178e+01	-1.476695e+01
6.651375e+01	-1.481529e+01
6.689793e+01	-1.486333e+01
6.728433e+01	-1.491201e+01
6.767297e+01	-1.496111e+01
6.806384e+01	-1.500921e+01
6.845698e+01	-1.505802e+01
6.885238e+01	-1.510518e+01
6.925007e+01	-1.515409e+01
6.965005e+01	-1.520339e+01
7.005235e+01	-1.525141e+01
7.045697e+01	-1.529990e+01
7.086393e+01	-1.534874e+01
7.127323e+01	-1.539666e+01
7.168490e+01	-1.544556e+01
7.209895e+01	-1.549485e+01
7.251539e+01	-1.554308e+01
7.293424e+01	-1.559128e+01
7.335551e+01	-1.564087e+01
7.377920e+01	-1.568973e+01
7.420535e+01	-1.573796e+01
7.463396e+01	-1.578618e+01
7.506504e+01	-1.583547e+01
7.549861e+01	-1.588334e+01
7.593469e+01	-1.593268e+01
7.637328e+01	-1.598138e+01
7.681441e+01	-1.603063e+01
7.725809e+01	-1.607976e+01
7.770433e+01	-1.612811e+01
7.815315e+01	-1.617703e+01
7.860456e+01	-1.622526e+01
7.905857e+01	-1.627543e+01
7.951521e+01	-1.632351e+01
7.997449e+01	-1.637190e+01
8.043642e+01	-1.642101e+01
8.090102e+01	-1.646983e+01
8.136830e+01	-1.651850e+01
8.183828e+01	-1.656719e+01
8.231097e+01	-1.661675e+01
8.278640e+01	-1.666586e+01
8.326457e+01	-1.671491e+01
8.374550e+01	-1.676286e+01
8.422921e+01	-1.681399e+01
8.471572e+01	-1.686032e+01
8.520503e+01	-1.691086e+01
8.569717e+01	-1.695961e+01
8.619215e+01	-1.700849e+01
8.669000e+01	-1.705882e+01
8.719071e+01	-1.710588e+01
8.769432e+01	-1.715499e+01
8.820084e+01	-1.720471e+01
8.871029e+01	-1.725435e+01
8.922267e+01	-1.730208e+01
8.973802e+01	-1.735091e+01
9.025634e+01	-1.740044e+01
9.077766e+01	-1.744988e+01
9.130199e+01	-1.749912e+01
9.182935e+01	-1.754923e+01
9.235975e+01	-1.759781e+01
9.289321e+01	-1.764645e+01
9.342976e+01	-1.769655e+01
9.396941e+01	-1.774441e+01
9.451217e+01	-1.779477e+01
9.505807e+01	-1.784194e+01
9.560712e+01	-1.789171e+01
9.615934e+01	-1.794249e+01
9.671476e+01	-1.799133e+01
9.727338e+01	-1.803955e+01
9.783522e+01	-1.809008e+01
9.840032e+01	-1.813831e+01
9.896867e+01	-1.818740e+01
9.954031e+01	-1.823665e+01
1.001153e+02	-1.828741e+01
1.006935e+02	-1.833540e+01
1.012751e+02	-1.838508e+01
1.018601e+02	-1.843580e+01
1.024484e+02	-1.848400e+01
1.030402e+02	-1.853474e+01
1.036353e+02	-1.858390e+01
1.042339e+02	-1.863262e+01
1.048360e+02	-1.868383e+01
1.054415e+02	-1.873057e+01
1.060505e+02	-1.877955e+01
1.066631e+02	-1.882916e+01
1.072791e+02	-1.887840e+01
1.078988e+02	-1.892853e+01
1.085220e+02	-1.897590e+01
1.091488e+02	-1.902798e+01
1.097793e+02	-1.907689e+01
1.104133e+02	-1.912577e+01
1.110511e+02	-1.917595e+01
1.116925e+02	-1.922425e+01
1.123376e+02	-1.927514e+01
1.129865e+02	-1.932290e+01
1.136391e+02	-1.937216e+01
1.142955e+02	-1.942211e+01
1.149556e+02	-1.947142e+01
1.156196e+02	-1.952163e+01
1.162874e+02	-1.956979e+01
1.169591e+02	-1.961841e+01
1.176347e+02	-1.966989e+01
1.183141e+02	-1.971872e+01
1.189975e+02	-1.976887e+01
1.196848e+02	-1.981764e+01
1.203761e+02	-1.986589e+01
1.210714e+02	-1.991657e+01
1.217707e+02	-1.996637e+01
1.224740e+02	-2.001710e+01
1.231814e+02	-2.006616e+01
1.238929e+02	-2.011596e+01
1.246085e+02	-2.016462e+01
1.253283e+02	-2.021699e+01
1.260522e+02	-2.026454e+01
1.267802e+02	-2.031391e+01
1.275125e+02	-2.036312e+01
1.282490e+02	-2.041434e+01
1.289898e+02	-2.046286e+01
1.297348e+02	-2.051307e+01
1.304842e+02	-2.056244e+01
1.312378e+02	-2.060864e+01
1.319959e+02	-2.066092e+01
1.327583e+02	-2.071027e+01
1.335251e+02	-2.076045e+01
1.342963e+02	-2.080949e+01
1.350720e+02	-2.085898e+01
1.358522e+02	-2.090892e+01
1.366368e+02	-2.095885e+01
1.374260e+02	-2.100845e+01
1.382198e+02	-2.105828e+01
1.390182e+02	-2.110615e+01
1.398211e+02	-2.115825e+01
1.406287e+02	-2.120791e+01
1.414410e+02	-2.125854e+01
1.422579e+02	-2.130607e+01
1.430796e+02	-2.135719e+01
1.439060e+02	-2.140595e+01
1.447372e+02	-2.145557e+01
1.455732e+02	-2.150701e+01
1.464141e+02	-2.155375e+01
1.472597e+02	-2.160308e+01
1.481103e+02	-2.165408e+01
1.489658e+02	-2.170417e+01
1.498262e+02	-2.175398e+01
1.506916e+02	-2.180338e+01
1.515620e+02	-2.185295e+01
1.524374e+02	-2.190250e+01
1.533179e+02	-2.195298e+01
1.542034e+02	-2.200096e+01
1.550941e+02	-2.205112e+01
1.559899e+02	-2.210238e+01
1.568909e+02	-2.215250e+01
1.577971e+02	-2.220257e+01
1.587085e+02	-2.224875e+01
1.596252e+02	-2.230124e+01
1.605472e+02	-2.235097e+01
1.614745e+02	-2.240038e+01
1.624072e+02	-2.245014e+01
1.633453e+02	-2.250025e+01
1.642887e+02	-2.254974e+01
1.652377e+02	-2.260366e+01
1.661921e+02	-2.265121e+01
1.671520e+02	-2.269946e+01
1.681175e+02	-2.274872e+01
1.690885e+02	-2.280011e+01
1.700651e+02	-2.284677e+01
1.710474e+02	-2.289602e+01
1.720354e+02	-2.294769e+01
1.730291e+02	-2.299659e+01
1.740285e+02	-2.304672e+01
1.750337e+02	-2.309343e+01
1.760446e+02	-2.314884e+01
1.770615e+02	-2.319732e+01
1.780842e+02	-2.324859e+01
1.791128e+02	-2.329770e+01
1.801473e+02	-2.334687e+01
1.811878e+02	-2.339507e+01
1.822344e+02	-2.344689e+01
1.832870e+02	-2.349694e+01
1.843456e+02	-2.354508e+01
1.854104e+02	-2.359549e+01
1.864813e+02	-2.364678e+01
1.875584e+02	-2.369619e+01
1.886418e+02	-2.374245e+01
1.897313e+02	-2.379613e+01
1.908272e+02	-2.384362e+01
1.919294e+02	-2.389601e+01
1.930380e+02	-2.394457e+01
1.941530e+02	-2.399469e+01
1.952744e+02	-2.404348e+01
1.964023e+02	-2.409386e+01
1.975367e+02	-2.414487e+01
1.986777e+02	-2.419583e+01
1.998252e+02	-2.424327e+01
2.009794e+02	-2.429428e+01
2.021403e+02	-2.434241e+01
2.033078e+02	-2.438981e+01
2.044821e+02	-2.444498e+01
2.056632e+02	-2.449263e+01
2.068511e+02	-2.454269e+01
2.080459e+02	-2.459109e+01
2.092475e+02	-2.464300e+01
2.104561e+02	-2.469101e+01
2.116717e+02	-2.474084e+01
2.128943e+02	-2.479592e+01
2.141240e+02	-2.484021e+01
2.153608e+02	-2.489126e+01
2.166047e+02	-2.494504e+01
2.178558e+02	-2.499115e+01
2.191141e+02	-2.504301e+01
2.203797e+02	-2.508780e+01
2.216526e+02	-2.514095e+01
2.229329e+02	-2.518988e+01
2.242205e+02	-2.524255e+01
2.255156e+02	-2.529065e+01
2.268182e+02	-2.534117e+01
2.281283e+02	-2.539255e+01
2.294459e+02	-2.543802e+01
2.307712e+02	-2.549404e+01
2.321041e+02	-2.554159e+01
2.334447e+02	-2.559097e+01
2.347931e+02	-2.563753e+01
2.361493e+02	-2.569161e+01
2.375133e+02	-2.573954e+01
2.388851e+02	-2.579110e+01
2.402649e+02	-2.583835e+01
2.416527e+02	-2.588928e+01
2.430484e+02	-2.594285e+01
2.444523e+02	-2.599112e+01
2.458642e+02	-2.604253e+01
2.472843e+02	-2.608957e+01
2.487126e+02	-2.613913e+01
2.501492e+02	-2.619145e+01
2.515940e+02	-2.624066e+01
2.530472e+02	-2.629294e+01
2.545088e+02	-2.633714e+01
2.559789e+02	-2.639185e+01
2.574574e+02	-2.643588e+01
2.589444e+02	-2.648950e+01
2.604401e+02	-2.654215e+01
2.619444e+02	-2.659263e+01
2.634574e+02	-2.663783e+01
2.649791e+02	-2.668917e+01
2.665096e+02	-2.674038e+01
2.680489e+02	-2.679220e+01
2.695972e+02	-2.683706e+01
2.711544e+02	-2.688951e+01
2.727205e+02	-2.693623e+01
2.742958e+02	-2.699064e+01
2.758801e+02	-2.703837e+01
2.774736e+02	-2.709008e+01
2.790762e+02	-2.713747e+01
2.806882e+02	-2.718991e+01
2.823094e+02	-2.724195e+01
2.839400e+02	-2.729017e+01
2.855800e+02	-2.734240e+01
2.872295e+02	-2.738849e+01
2.888886e+02	-2.743618e+01
2.905572e+02	-2.749066e+01
2.922354e+02	-2.754136e+01
2.939234e+02	-2.759132e+01
2.956211e+02	-2.764025e+01
2.973286e+02	-2.769418e+01
2.990459e+02	-2.773760e+01
3.007732e+02	-2.778879e+01
3.025104e+02	-2.783809e+01
3.042577e+02	-2.788699e+01
3.060151e+02	-2.793875e+01
3.077826e+02	-2.798948e+01
3.095604e+02	-2.803947e+01
3.113484e+02	-2.809094e+01
3.131467e+02	-2.814015e+01
3.149554e+02	-2.818659e+01
3.167746e+02	-2.823961e+01
3.186043e+02	-2.829013e+01
3.204445e+02	-2.833675e+01
3.222954e+02	-2.839157e+01
3.241570e+02	-2.844319e+01
3.260293e+02	-2.848865e+01
3.279124e+02	-2.854008e+01
3.298064e+02	-2.858886e+01
3.317114e+02	-2.863879e+01
3.336273e+02	-2.868806e+01
3.355544e+02	-2.874489e+01
3.374925e+02	-2.878762e+01
3.394418e+02	-2.884119e+01
3.414024e+02	-2.889264e+01
3.433744e+02	-2.894031e+01
3.453577e+02	-2.899028e+01
3.473525e+02	-2.904062e+01
3.493588e+02	-2.909089e+01
3.513766e+02	-2.914025e+01
3.534062e+02	-2.918711e+01
3.554474e+02	-2.924033e+01
3.575005e+02	-2.929217e+01
3.595654e+02	-2.934002e+01
3.616422e+02	-2.939125e+01
3.637311e+02	-2.943855e+01
3.658320e+02	-2.948994e+01
3.679450e+02	-2.954022e+01
3.700702e+02	-2.958918e+01
3.722077e+02	-2.964189e+01
3.743576e+02	-2.968997e+01
3.765199e+02	-2.974317e+01
3.786946e+02	-2.979476e+01
3.808820e+02	-2.984066e+01
3.830819e+02	-2.989141e+01
3.852946e+02	-2.994261e+01
3.875200e+02	-2.999033e+01
3.897583e+02	-3.004158e+01
3.920096e+02	-3.009092e+01
3.942738e+02	-3.014350e+01
3.965511e+02	-3.019074e+01
3.988416e+02	-3.024613e+01
4.011452e+02	-3.028555e+01
4.034622e+02	-3.033810e+01
4.057926e+02	-3.039637e+01
4.081365e+02	-3.044957e+01
4.104938e+02	-3.048512e+01
4.128648e+02	-3.054209e+01
4.152495e+02	-3.059220e+01
4.176480e+02	-3.064337e+01
4.200603e+02	-3.068985e+01
4.224866e+02	-3.074396e+01
4.249268e+02	-3.079132e+01
4.273812e+02	-3.084978e+01
4.298497e+02	-3.089076e+01
4.323325e+02	-3.093996e+01
4.348297e+02	-3.098870e+01
4.373412e+02	-3.104421e+01
4.398673e+02	-3.109238e+01
4.424079e+02	-3.114187e+01
4.449633e+02	-3.119225e+01
4.475334e+02	-3.123906e+01
4.501183e+02	-3.128834e+01
4.527182e+02	-3.134496e+01
4.553330e+02	-3.139119e+01
4.579630e+02	-3.144104e+01
4.606082e+02	-3.149569e+01
4.632687e+02	-3.154489e+01
4.659445e+02	-3.159424e+01
4.686358e+02	-3.164469e+01
4.713426e+02	-3.169388e+01
4.740650e+02	-3.174428e+01
4.768032e+02	-3.180148e+01
4.795572e+02	-3.184833e+01
4.823271e+02	-3.189195e+01
4.851130e+02	-3.195387e+01
4.879150e+02	-3.200185e+01
4.907332e+02	-3.204823e+01
4.935676e+02	-3.210072e+01
4.964185e+02	-3.214704e+01
4.992858e+02	-3.219296e+01
5.021696e+02	-3.224719e+01
5.050701e+02	-3.229459e+01
5.079874e+02	-3.234695e+01
5.109215e+02	-3.240118e+01
5.138726e+02	-3.244680e+01
5.168407e+02	-3.250029e+01
5.198259e+02	-3.254794e+01
5.228284e+02	-3.259897e+01
5.258482e+02	-3.265522e+01
5.288855e+02	-3.269202e+01
5.319403e+02	-3.274714e+01
5.350128e+02	-3.279908e+01
5.381030e+02	-3.284605e+01
5.412111e+02	-3.290180e+01
5.443371e+02	-3.294638e+01
5.474812e+02	-3.300538e+01
5.506434e+02	-3.305531e+01
5.538239e+02	-3.310258e+01
5.570228e+02	-3.315136e+01
5.602401e+02	-3.320240e+01
5.634760e+02	-3.325987e+01
5.667306e+02	-3.330302e+01
5.700040e+02	-3.335832e+01
5.732964e+02	-3.339862e+01
5.766077e+02	-3.344957e+01
5.799382e+02	-3.350091e+01
5.832879e+02	-3.355090e+01
5.866569e+02	-3.360437e+01
5.900454e+02	-3.365410e+01
5.934535e+02	-3.370709e+01
5.968813e+02	-3.375574e+01
6.003288e+02	-3.380591e+01
6.037963e+02	-3.385671e+01
6.072838e+02	-3.390653e+01
6.107914e+02	-3.396020e+01
6.143194e+02	-3.400430e+01
6.178676e+02	-3.406080e+01
6.214364e+02	-3.410066e+01
6.250258e+02	-3.415721e+01
6.286359e+02	-3.421109e+01
6.322669e+02	-3.426414e+01
6.359189e+02	-3.430780e+01
6.395919e+02	-3.435543e+01
6.432862e+02	-3.441350e+01
6.470017e+02	-3.445465e+01
6.507388e+02	-3.450368e+01
6.544974e+02	-3.456451e+01
6.582778e+02	-3.460556e+01
6.620800e+02	-3.465933e+01
6.659041e+02	-3.471414e+01
6.697504e+02	-3.476222e+01
6.736188e+02	-3.480096e+01
6.775096e+02	-3.486270e+01
6.814229e+02	-3.491660e+01
6.853587e+02	-3.497025e+01
6.893173e+02	-3.501276e+01
6.932988e+02	-3.506827e+01
6.973033e+02	-3.510809e+01
7.013309e+02	-3.517222e+01
