Frequency(Hz)	Magnitude(dB)
1.000000e+01	-1.580780e-05
1.005776e+01	-1.599094e-05
1.011585e+01	-1.617620e-05
1.017428e+01	-1.636360e-05
1.023305e+01	-1.655318e-05
1.029215e+01	-1.674495e-05
1.035160e+01	-1.693895e-05
1.041139e+01	-1.713519e-05
1.047153e+01	-1.733370e-05
1.053201e+01	-1.753452e-05
1.059284e+01	-1.773766e-05
1.065403e+01	-1.794316e-05
1.071556e+01	-1.815103e-05
1.077746e+01	-1.836132e-05
1.083971e+01	-1.857404e-05
1.090232e+01	-1.878922e-05
1.096529e+01	-1.900690e-05
1.102862e+01	-1.922710e-05
1.109232e+01	-1.944985e-05
1.115639e+01	-1.967518e-05
1.122083e+01	-1.990312e-05
1.128564e+01	-2.013371e-05
1.135083e+01	-2.036696e-05
1.141639e+01	-2.060292e-05
1.148233e+01	-2.084161e-05
1.154865e+01	-2.108306e-05
1.161536e+01	-2.132732e-05
1.168245e+01	-2.157440e-05
1.174992e+01	-2.182434e-05
1.181779e+01	-2.207718e-05
1.188605e+01	-2.233295e-05
1.195470e+01	-2.259169e-05
1.202375e+01	-2.285342e-05
1.209320e+01	-2.311818e-05
1.216305e+01	-2.338601e-05
1.223330e+01	-2.365694e-05
1.230396e+01	-2.393101e-05
1.237503e+01	-2.420826e-05
1.244651e+01	-2.448872e-05
1.251840e+01	-2.477243e-05
1.259070e+01	-2.505942e-05
1.266343e+01	-2.534974e-05
1.273657e+01	-2.564342e-05
1.281014e+01	-2.594051e-05
1.288413e+01	-2.624104e-05
1.295855e+01	-2.654504e-05
1.303339e+01	-2.685258e-05
1.310867e+01	-2.716367e-05
1.318439e+01	-2.747837e-05
1.326054e+01	-2.779671e-05
1.333713e+01	-2.811874e-05
1.341417e+01	-2.844450e-05
1.349165e+01	-2.877404e-05
1.356958e+01	-2.910740e-05
1.364795e+01	-2.944461e-05
1.372678e+01	-2.978573e-05
1.380607e+01	-3.013081e-05
1.388581e+01	-3.047988e-05
1.396602e+01	-3.083300e-05
1.404668e+01	-3.119021e-05
1.412782e+01	-3.155155e-05
1.420942e+01	-3.191708e-05
1.429149e+01	-3.228685e-05
1.437404e+01	-3.266090e-05
1.445706e+01	-3.303929e-05
1.454057e+01	-3.342205e-05
1.462455e+01	-3.380926e-05
1.470902e+01	-3.420094e-05
1.479398e+01	-3.459717e-05
1.487943e+01	-3.499799e-05
1.496537e+01	-3.540345e-05
1.505181e+01	-3.581360e-05
1.513875e+01	-3.622851e-05
1.522619e+01	-3.664823e-05
1.531414e+01	-3.707281e-05
1.540259e+01	-3.750230e-05
1.549156e+01	-3.793678e-05
1.558103e+01	-3.837628e-05
1.567103e+01	-3.882088e-05
1.576155e+01	-3.927063e-05
1.585258e+01	-3.972559e-05
1.594415e+01	-4.018582e-05
1.603624e+01	-4.065138e-05
1.612886e+01	-4.112234e-05
1.622202e+01	-4.159875e-05
1.631572e+01	-4.208068e-05
1.640996e+01	-4.256819e-05
1.650474e+01	-4.306135e-05
1.660008e+01	-4.356023e-05
1.669596e+01	-4.406488e-05
1.679239e+01	-4.457539e-05
1.688938e+01	-4.509180e-05
1.698694e+01	-4.561420e-05
1.708505e+01	-4.614265e-05
1.718373e+01	-4.667722e-05
1.728299e+01	-4.721799e-05
1.738281e+01	-4.776502e-05
1.748322e+01	-4.831839e-05
1.758420e+01	-4.887817e-05
1.768576e+01	-4.944443e-05
1.778792e+01	-5.001725e-05
1.789066e+01	-5.059671e-05
1.799399e+01	-5.118289e-05
1.809793e+01	-5.177585e-05
1.820246e+01	-5.237569e-05
1.830760e+01	-5.298247e-05
1.841334e+01	-5.359628e-05
1.851969e+01	-5.421721e-05
1.862666e+01	-5.484532e-05
1.873425e+01	-5.548072e-05
1.884246e+01	-5.612347e-05
1.895129e+01	-5.677368e-05
1.906075e+01	-5.743141e-05
1.917085e+01	-5.809677e-05
1.928158e+01	-5.876983e-05
1.939295e+01	-5.945069e-05
1.950496e+01	-6.013944e-05
1.961762e+01	-6.083616e-05
1.973093e+01	-6.154096e-05
1.984490e+01	-6.225393e-05
1.995952e+01	-6.297515e-05
2.007480e+01	-6.370473e-05
2.019076e+01	-6.444276e-05
2.030738e+01	-6.518934e-05
2.042467e+01	-6.594458e-05
2.054264e+01	-6.670856e-05
2.066130e+01	-6.748139e-05
2.078064e+01	-6.826317e-05
2.090066e+01	-6.905401e-05
2.102139e+01	-6.985402e-05
2.114280e+01	-7.066329e-05
2.126492e+01	-7.148194e-05
2.138775e+01	-7.231007e-05
2.151128e+01	-7.314779e-05
2.163553e+01	-7.399522e-05
2.176050e+01	-7.485247e-05
2.188619e+01	-7.571965e-05
2.201260e+01	-7.659688e-05
2.213974e+01	-7.748426e-05
2.226762e+01	-7.838193e-05
2.239624e+01	-7.929000e-05
2.252560e+01	-8.020859e-05
2.265571e+01	-8.113782e-05
2.278656e+01	-8.207781e-05
2.291818e+01	-8.302870e-05
2.305055e+01	-8.399060e-05
2.318369e+01	-8.496365e-05
2.331760e+01	-8.594796e-05
2.345228e+01	-8.694369e-05
2.358774e+01	-8.795094e-05
2.372398e+01	-8.896987e-05
2.386101e+01	-9.000060e-05
2.399883e+01	-9.104327e-05
2.413745e+01	-9.209802e-05
2.427686e+01	-9.316499e-05
2.441709e+01	-9.424432e-05
2.455812e+01	-9.533616e-05
2.469997e+01	-9.644064e-05
2.484263e+01	-9.755792e-05
2.498612e+01	-9.868814e-05
2.513044e+01	-9.983146e-05
2.527559e+01	-1.009880e-04
2.542158e+01	-1.021580e-04
2.556842e+01	-1.033415e-04
2.571610e+01	-1.045387e-04
2.586463e+01	-1.057498e-04
2.601403e+01	-1.069749e-04
2.616428e+01	-1.082143e-04
2.631541e+01	-1.094679e-04
2.646740e+01	-1.107361e-04
2.662028e+01	-1.120190e-04
2.677404e+01	-1.133168e-04
2.692868e+01	-1.146296e-04
2.708422e+01	-1.159576e-04
2.724066e+01	-1.173010e-04
2.739800e+01	-1.186599e-04
2.755625e+01	-1.200346e-04
2.771541e+01	-1.214252e-04
2.787550e+01	-1.228319e-04
2.803650e+01	-1.242550e-04
2.819844e+01	-1.256945e-04
2.836131e+01	-1.271506e-04
2.852513e+01	-1.286237e-04
2.868989e+01	-1.301138e-04
2.885560e+01	-1.316212e-04
2.902227e+01	-1.331460e-04
2.918990e+01	-1.346886e-04
2.935850e+01	-1.362489e-04
2.952807e+01	-1.378274e-04
2.969863e+01	-1.394241e-04
2.987016e+01	-1.410394e-04
3.004269e+01	-1.426733e-04
3.021622e+01	-1.443262e-04
3.039075e+01	-1.459982e-04
3.056628e+01	-1.476896e-04
3.074283e+01	-1.494006e-04
3.092040e+01	-1.511315e-04
3.109900e+01	-1.528823e-04
3.127862e+01	-1.546535e-04
3.145929e+01	-1.564452e-04
3.164099e+01	-1.582576e-04
3.182375e+01	-1.600910e-04
3.200756e+01	-1.619457e-04
3.219244e+01	-1.638218e-04
3.237838e+01	-1.657197e-04
3.256540e+01	-1.676396e-04
3.275349e+01	-1.695817e-04
3.294268e+01	-1.715463e-04
3.313295e+01	-1.735337e-04
3.332433e+01	-1.755441e-04
3.351681e+01	-1.775778e-04
3.371040e+01	-1.796350e-04
3.390511e+01	-1.817161e-04
3.410094e+01	-1.838213e-04
3.429791e+01	-1.859508e-04
3.449601e+01	-1.881051e-04
3.469526e+01	-1.902843e-04
3.489566e+01	-1.924887e-04
3.509721e+01	-1.947187e-04
3.529993e+01	-1.969745e-04
3.550382e+01	-1.992565e-04
3.570889e+01	-2.015649e-04
3.591515e+01	-2.039000e-04
3.612259e+01	-2.062622e-04
3.633123e+01	-2.086517e-04
3.654108e+01	-2.110690e-04
3.675214e+01	-2.135142e-04
3.696442e+01	-2.159878e-04
3.717792e+01	-2.184900e-04
3.739266e+01	-2.210212e-04
3.760864e+01	-2.235817e-04
3.782587e+01	-2.261719e-04
3.804435e+01	-2.287921e-04
3.826409e+01	-2.314426e-04
3.848510e+01	-2.341239e-04
3.870739e+01	-2.368362e-04
3.893096e+01	-2.395800e-04
3.915583e+01	-2.423555e-04
3.938199e+01	-2.451632e-04
3.960946e+01	-2.480034e-04
3.983824e+01	-2.508765e-04
4.006834e+01	-2.537828e-04
4.029978e+01	-2.567229e-04
4.053255e+01	-2.596970e-04
4.076666e+01	-2.627056e-04
4.100213e+01	-2.657490e-04
4.123896e+01	-2.688277e-04
4.147715e+01	-2.719420e-04
4.171672e+01	-2.750925e-04
4.195767e+01	-2.782794e-04
4.220002e+01	-2.815032e-04
4.244377e+01	-2.847644e-04
4.268892e+01	-2.880634e-04
4.293549e+01	-2.914006e-04
4.318348e+01	-2.947764e-04
4.343291e+01	-2.981914e-04
4.368377e+01	-3.016459e-04
4.393609e+01	-3.051404e-04
4.418986e+01	-3.086754e-04
4.444510e+01	-3.122514e-04
4.470182e+01	-3.158688e-04
4.496001e+01	-3.195280e-04
4.521970e+01	-3.232297e-04
4.548089e+01	-3.269743e-04
4.574358e+01	-3.307622e-04
4.600779e+01	-3.345941e-04
4.627353e+01	-3.384703e-04
4.654081e+01	-3.423914e-04
4.680963e+01	-3.463579e-04
4.708000e+01	-3.503704e-04
4.735193e+01	-3.544294e-04
4.762543e+01	-3.585354e-04
4.790051e+01	-3.626889e-04
4.817719e+01	-3.668906e-04
4.845545e+01	-3.711410e-04
4.873533e+01	-3.754406e-04
4.901682e+01	-3.797899e-04
4.929994e+01	-3.841897e-04
4.958470e+01	-3.886405e-04
4.987110e+01	-3.931428e-04
5.015915e+01	-3.976972e-04
5.044887e+01	-4.023045e-04
5.074026e+01	-4.069650e-04
5.103333e+01	-4.116796e-04
5.132810e+01	-4.164488e-04
5.162457e+01	-4.212733e-04
5.192275e+01	-4.261536e-04
5.222265e+01	-4.310904e-04
5.252429e+01	-4.360845e-04
5.282767e+01	-4.411364e-04
5.313280e+01	-4.462468e-04
5.343969e+01	-4.514165e-04
5.374836e+01	-4.566460e-04
5.405880e+01	-4.619360e-04
5.437105e+01	-4.672874e-04
5.468509e+01	-4.727008e-04
5.500095e+01	-4.781768e-04
5.531863e+01	-4.837163e-04
5.563815e+01	-4.893200e-04
5.595951e+01	-4.949886e-04
5.628273e+01	-5.007229e-04
5.660782e+01	-5.065235e-04
5.693479e+01	-5.123914e-04
5.726364e+01	-5.183272e-04
5.759439e+01	-5.243318e-04
5.792705e+01	-5.304060e-04
5.826164e+01	-5.365505e-04
5.859815e+01	-5.427662e-04
5.893662e+01	-5.490539e-04
5.927703e+01	-5.554144e-04
5.961941e+01	-5.618487e-04
5.996377e+01	-5.683574e-04
6.031012e+01	-5.749415e-04
6.065847e+01	-5.816020e-04
6.100883e+01	-5.883395e-04
6.136121e+01	-5.951551e-04
6.171563e+01	-6.020497e-04
6.207210e+01	-6.090241e-04
6.243063e+01	-6.160793e-04
6.279122e+01	-6.232163e-04
6.315390e+01	-6.304359e-04
6.351868e+01	-6.377391e-04
6.388556e+01	-6.451269e-04
6.425456e+01	-6.526003e-04
6.462569e+01	-6.601603e-04
6.499897e+01	-6.678079e-04
6.537440e+01	-6.755440e-04
6.575200e+01	-6.833698e-04
6.613178e+01	-6.912861e-04
6.651375e+01	-6.992942e-04
6.689793e+01	-7.073951e-04
6.728433e+01	-7.155898e-04
6.767297e+01	-7.238794e-04
6.806384e+01	-7.322650e-04
6.845698e+01	-7.407478e-04
6.885238e+01	-7.493288e-04
6.925007e+01	-7.580093e-04
6.965005e+01	-7.667902e-04
7.005235e+01	-7.756729e-04
7.045697e+01	-7.846585e-04
7.086393e+01	-7.937481e-04
7.127323e+01	-8.029431e-04
7.168490e+01	-8.122445e-04
7.209895e+01	-8.216537e-04
7.251539e+01	-8.311719e-04
7.293424e+01	-8.408003e-04
7.335551e+01	-8.505402e-04
7.377920e+01	-8.603930e-04
7.420535e+01	-8.703599e-04
7.463396e+01	-8.804422e-04
7.506504e+01	-8.906413e-04
7.549861e+01	-9.009586e-04
7.593469e+01	-9.113953e-04
7.637328e+01	-9.219530e-04
7.681441e+01	-9.326329e-04
7.725809e+01	-9.434365e-04
7.770433e+01	-9.543653e-04
7.815315e+01	-9.654207e-04
7.860456e+01	-9.766041e-04
7.905857e+01	-9.879170e-04
7.951521e+01	-9.993610e-04
7.997449e+01	-1.010937e-03
8.043642e+01	-1.022648e-03
8.090102e+01	-1.034494e-03
8.136830e+01	-1.046478e-03
8.183828e+01	-1.058600e-03
8.231097e+01	-1.070863e-03
8.278640e+01	-1.083267e-03
8.326457e+01	-1.095816e-03
8.374550e+01	-1.108509e-03
8.422921e+01	-1.121350e-03
8.471572e+01	-1.134340e-03
8.520503e+01	-1.147480e-03
8.569717e+01	-1.160772e-03
8.619215e+01	-1.174218e-03
8.669000e+01	-1.187819e-03
8.719071e+01	-1.201579e-03
8.769432e+01	-1.215497e-03
8.820084e+01	-1.229577e-03
8.871029e+01	-1.243820e-03
8.922267e+01	-1.258228e-03
8.973802e+01	-1.272803e-03
9.025634e+01	-1.287546e-03
9.077766e+01	-1.302461e-03
9.130199e+01	-1.317548e-03
9.182935e+01	-1.332810e-03
9.235975e+01	-1.348248e-03
9.289321e+01	-1.363866e-03
9.342976e+01	-1.379664e-03
9.396941e+01	-1.395645e-03
9.451217e+01	-1.411811e-03
9.505807e+01	-1.428165e-03
9.560712e+01	-1.444708e-03
9.615934e+01	-1.461442e-03
9.671476e+01	-1.478371e-03
9.727338e+01	-1.495495e-03
9.783522e+01	-1.512818e-03
9.840032e+01	-1.530341e-03
9.896867e+01	-1.548067e-03
9.954031e+01	-1.565999e-03
1.001153e+02	-1.584138e-03
1.006935e+02	-1.602487e-03
1.012751e+02	-1.621049e-03
1.018601e+02	-1.639826e-03
1.024484e+02	-1.658820e-03
1.030402e+02	-1.678034e-03
1.036353e+02	-1.697471e-03
1.042339e+02	-1.717133e-03
1.048360e+02	-1.737022e-03
1.054415e+02	-1.757142e-03
1.060505e+02	-1.777495e-03
1.066631e+02	-1.798083e-03
1.072791e+02	-1.818910e-03
1.078988e+02	-1.839978e-03
1.085220e+02	-1.861290e-03
1.091488e+02	-1.882849e-03
1.097793e+02	-1.904657e-03
1.104133e+02	-1.926719e-03
1.110511e+02	-1.949035e-03
1.116925e+02	-1.971610e-03
1.123376e+02	-1.994446e-03
1.129865e+02	-2.017547e-03
1.136391e+02	-2.040916e-03
1.142955e+02	-2.064554e-03
1.149556e+02	-2.088467e-03
1.156196e+02	-2.112657e-03
1.162874e+02	-2.137126e-03
1.169591e+02	-2.161879e-03
1.176347e+02	-2.186919e-03
1.183141e+02	-2.212249e-03
1.189975e+02	-2.237871e-03
1.196848e+02	-2.263791e-03
1.203761e+02	-2.290011e-03
1.210714e+02	-2.316534e-03
1.217707e+02	-2.343364e-03
1.224740e+02	-2.370505e-03
1.231814e+02	-2.397961e-03
1.238929e+02	-2.425734e-03
1.246085e+02	-2.453829e-03
1.253283e+02	-2.482249e-03
1.260522e+02	-2.510998e-03
1.267802e+02	-2.540080e-03
1.275125e+02	-2.569499e-03
1.282490e+02	-2.599258e-03
1.289898e+02	-2.629362e-03
1.297348e+02	-2.659815e-03
1.304842e+02	-2.690620e-03
1.312378e+02	-2.721782e-03
1.319959e+02	-2.753304e-03
1.327583e+02	-2.785192e-03
1.335251e+02	-2.817448e-03
1.342963e+02	-2.850079e-03
1.350720e+02	-2.883087e-03
1.358522e+02	-2.916477e-03
1.366368e+02	-2.950253e-03
1.374260e+02	-2.984421e-03
1.382198e+02	-3.018984e-03
1.390182e+02	-3.053948e-03
1.398211e+02	-3.089316e-03
1.406287e+02	-3.125093e-03
1.414410e+02	-3.161285e-03
1.422579e+02	-3.197896e-03
1.430796e+02	-3.234931e-03
1.439060e+02	-3.272394e-03
1.447372e+02	-3.310291e-03
1.455732e+02	-3.348627e-03
1.464141e+02	-3.387406e-03
1.472597e+02	-3.426635e-03
1.481103e+02	-3.466318e-03
1.489658e+02	-3.506459e-03
1.498262e+02	-3.547066e-03
1.506916e+02	-3.588143e-03
1.515620e+02	-3.629695e-03
1.524374e+02	-3.671728e-03
1.533179e+02	-3.714248e-03
1.542034e+02	-3.757260e-03
1.550941e+02	-3.800769e-03
1.559899e+02	-3.844783e-03
1.568909e+02	-3.889306e-03
1.577971e+02	-3.934344e-03
1.587085e+02	-3.979903e-03
1.596252e+02	-4.025990e-03
1.605472e+02	-4.072610e-03
1.614745e+02	-4.119770e-03
1.624072e+02	-4.167476e-03
1.633453e+02	-4.215733e-03
1.642887e+02	-4.264550e-03
1.652377e+02	-4.313931e-03
1.661921e+02	-4.363884e-03
1.671520e+02	-4.414415e-03
1.681175e+02	-4.465531e-03
1.690885e+02	-4.517238e-03
1.700651e+02	-4.569544e-03
1.710474e+02	-4.622455e-03
1.720354e+02	-4.675978e-03
1.730291e+02	-4.730121e-03
1.740285e+02	-4.784890e-03
1.750337e+02	-4.840294e-03
1.760446e+02	-4.896338e-03
1.770615e+02	-4.953031e-03
1.780842e+02	-5.010380e-03
1.791128e+02	-5.068392e-03
1.801473e+02	-5.127076e-03
1.811878e+02	-5.186439e-03
1.822344e+02	-5.246489e-03
1.832870e+02	-5.307234e-03
1.843456e+02	-5.368681e-03
1.854104e+02	-5.430840e-03
1.864813e+02	-5.493718e-03
1.875584e+02	-5.557323e-03
1.886418e+02	-5.621664e-03
1.897313e+02	-5.686750e-03
1.908272e+02	-5.752588e-03
1.919294e+02	-5.819189e-03
1.930380e+02	-5.886560e-03
1.941530e+02	-5.954710e-03
1.952744e+02	-6.023649e-03
1.964023e+02	-6.093385e-03
1.975367e+02	-6.163929e-03
1.986777e+02	-6.235288e-03
1.998252e+02	-6.307473e-03
2.009794e+02	-6.380492e-03
2.021403e+02	-6.454357e-03
2.033078e+02	-6.529076e-03
2.044821e+02	-6.604659e-03
2.056632e+02	-6.681117e-03
2.068511e+02	-6.758459e-03
2.080459e+02	-6.836696e-03
2.092475e+02	-6.915837e-03
2.104561e+02	-6.995894e-03
2.116717e+02	-7.076877e-03
2.128943e+02	-7.158797e-03
2.141240e+02	-7.241664e-03
2.153608e+02	-7.325489e-03
2.166047e+02	-7.410284e-03
2.178558e+02	-7.496060e-03
2.191141e+02	-7.582828e-03
2.203797e+02	-7.670599e-03
2.216526e+02	-7.759385e-03
2.229329e+02	-7.849198e-03
2.242205e+02	-7.940049e-03
2.255156e+02	-8.031952e-03
2.268182e+02	-8.124916e-03
2.281283e+02	-8.218956e-03
2.294459e+02	-8.314083e-03
2.307712e+02	-8.410311e-03
2.321041e+02	-8.507650e-03
2.334447e+02	-8.606116e-03
2.347931e+02	-8.705719e-03
2.361493e+02	-8.806475e-03
2.375133e+02	-8.908395e-03
2.388851e+02	-9.011493e-03
2.402649e+02	-9.115784e-03
2.416527e+02	-9.221280e-03
2.430484e+02	-9.327996e-03
2.444523e+02	-9.435945e-03
2.458642e+02	-9.545142e-03
2.472843e+02	-9.655602e-03
2.487126e+02	-9.767338e-03
2.501492e+02	-9.880366e-03
2.515940e+02	-9.994700e-03
2.530472e+02	-1.011036e-02
2.545088e+02	-1.022735e-02
2.559789e+02	-1.034569e-02
2.574574e+02	-1.046541e-02
2.589444e+02	-1.058650e-02
2.604401e+02	-1.070900e-02
2.619444e+02	-1.083291e-02
2.634574e+02	-1.095825e-02
2.649791e+02	-1.108504e-02
2.665096e+02	-1.121330e-02
2.680489e+02	-1.134304e-02
2.695972e+02	-1.147428e-02
2.711544e+02	-1.160703e-02
2.727205e+02	-1.174132e-02
2.742958e+02	-1.187716e-02
2.758801e+02	-1.201457e-02
2.774736e+02	-1.215356e-02
2.790762e+02	-1.229416e-02
2.806882e+02	-1.243639e-02
2.823094e+02	-1.258026e-02
2.839400e+02	-1.272579e-02
2.855800e+02	-1.287300e-02
2.872295e+02	-1.302192e-02
2.888886e+02	-1.317255e-02
2.905572e+02	-1.332492e-02
2.922354e+02	-1.347905e-02
2.939234e+02	-1.363496e-02
2.956211e+02	-1.379268e-02
2.973286e+02	-1.395221e-02
2.990459e+02	-1.411359e-02
3.007732e+02	-1.427683e-02
3.025104e+02	-1.444195e-02
3.042577e+02	-1.460898e-02
3.060151e+02	-1.477794e-02
3.077826e+02	-1.494885e-02
3.095604e+02	-1.512174e-02
3.113484e+02	-1.529661e-02
3.131467e+02	-1.547351e-02
3.149554e+02	-1.565245e-02
3.167746e+02	-1.583346e-02
3.186043e+02	-1.601655e-02
3.204445e+02	-1.620176e-02
3.222954e+02	-1.638911e-02
3.241570e+02	-1.657862e-02
3.260293e+02	-1.677031e-02
3.279124e+02	-1.696422e-02
3.298064e+02	-1.716036e-02
3.317114e+02	-1.735877e-02
3.336273e+02	-1.755947e-02
3.355544e+02	-1.776248e-02
3.374925e+02	-1.796784e-02
3.394418e+02	-1.817556e-02
3.414024e+02	-1.838568e-02
3.433744e+02	-1.859823e-02
3.453577e+02	-1.881322e-02
3.473525e+02	-1.903070e-02
3.493588e+02	-1.925069e-02
3.513766e+02	-1.947321e-02
3.534062e+02	-1.969830e-02
3.554474e+02	-1.992598e-02
3.575005e+02	-2.015629e-02
3.595654e+02	-2.038925e-02
3.616422e+02	-2.062491e-02
3.637311e+02	-2.086327e-02
3.658320e+02	-2.110439e-02
3.679450e+02	-2.134829e-02
3.700702e+02	-2.159500e-02
3.722077e+02	-2.184455e-02
3.743576e+02	-2.209698e-02
3.765199e+02	-2.235231e-02
3.786946e+02	-2.261059e-02
3.808820e+02	-2.287185e-02
3.830819e+02	-2.313612e-02
3.852946e+02	-2.340343e-02
3.875200e+02	-2.367382e-02
3.897583e+02	-2.394733e-02
3.920096e+02	-2.422399e-02
3.942738e+02	-2.450384e-02
3.965511e+02	-2.478691e-02
3.988416e+02	-2.507324e-02
4.011452e+02	-2.536287e-02
4.034622e+02	-2.565583e-02
4.057926e+02	-2.595217e-02
4.081365e+02	-2.625192e-02
4.104938e+02	-2.655512e-02
4.128648e+02	-2.686181e-02
4.152495e+02	-2.717203e-02
4.176480e+02	-2.748583e-02
4.200603e+02	-2.780324e-02
4.224866e+02	-2.812430e-02
4.249268e+02	-2.844905e-02
4.273812e+02	-2.877755e-02
4.298497e+02	-2.910982e-02
4.323325e+02	-2.944592e-02
4.348297e+02	-2.978588e-02
4.373412e+02	-3.012976e-02
4.398673e+02	-3.047759e-02
4.424079e+02	-3.082942e-02
4.449633e+02	-3.118530e-02
4.475334e+02	-3.154527e-02
4.501183e+02	-3.190939e-02
4.527182e+02	-3.227769e-02
4.553330e+02	-3.265022e-02
4.579630e+02	-3.302704e-02
4.606082e+02	-3.340819e-02
4.632687e+02	-3.379372e-02
4.659445e+02	-3.418368e-02
4.686358e+02	-3.457813e-02
4.713426e+02	-3.497710e-02
4.740650e+02	-3.538067e-02
4.768032e+02	-3.578887e-02
4.795572e+02	-3.620176e-02
4.823271e+02	-3.661939e-02
4.851130e+02	-3.704182e-02
4.879150e+02	-3.746910e-02
4.907332e+02	-3.790129e-02
4.935676e+02	-3.833844e-02
4.964185e+02	-3.878061e-02
4.992858e+02	-3.922786e-02
5.021696e+02	-3.968024e-02
5.050701e+02	-4.013782e-02
5.079874e+02	-4.060064e-02
5.109215e+02	-4.106878e-02
5.138726e+02	-4.154229e-02
5.168407e+02	-4.202123e-02
5.198259e+02	-4.250567e-02
5.228284e+02	-4.299566e-02
5.258482e+02	-4.349128e-02
5.288855e+02	-4.399258e-02
5.319403e+02	-4.449962e-02
5.350128e+02	-4.501248e-02
5.381030e+02	-4.553122e-02
5.412111e+02	-4.605591e-02
5.443371e+02	-4.658661e-02
5.474812e+02	-4.712339e-02
5.506434e+02	-4.766632e-02
5.538239e+02	-4.821548e-02
5.570228e+02	-4.877092e-02
5.602401e+02	-4.933273e-02
5.634760e+02	-4.990097e-02
5.667306e+02	-5.047572e-02
5.700040e+02	-5.105704e-02
5.732964e+02	-5.164503e-02
5.766077e+02	-5.223974e-02
5.799382e+02	-5.284126e-02
5.832879e+02	-5.344967e-02
5.866569e+02	-5.406503e-02
5.900454e+02	-5.468744e-02
5.934535e+02	-5.531696e-02
5.968813e+02	-5.595368e-02
6.003288e+02	-5.659769e-02
6.037963e+02	-5.724906e-02
6.072838e+02	-5.790787e-02
6.107914e+02	-5.857422e-02
6.143194e+02	-5.924818e-02
6.178676e+02	-5.992984e-02
6.214364e+02	-6.061929e-02
6.250258e+02	-6.131661e-02
6.286359e+02	-6.202190e-02
6.322669e+02	-6.273524e-02
6.359189e+02	-6.345673e-02
6.395919e+02	-6.418645e-02
6.432862e+02	-6.492450e-02
6.470017e+02	-6.567097e-02
6.507388e+02	-6.642596e-02
6.544974e+02	-6.718956e-02
6.582778e+02	-6.796187e-02
6.620800e+02	-6.874299e-02
6.659041e+02	-6.953301e-02
6.697504e+02	-7.033204e-02
6.736188e+02	-7.114017e-02
6.775096e+02	-7.195751e-02
6.814229e+02	-7.278417e-02
6.853587e+02	-7.362024e-02
6.893173e+02	-7.446583e-02
6.932988e+02	-7.532105e-02
6.973033e+02	-7.618600e-02
7.013309e+02	-7.706080e-02
