Frequency(Hz)	Magnitude(dB)
1.000000e+01	-1.642728e-05
1.005776e+01	-1.661759e-05
1.011585e+01	-1.681011e-05
1.017428e+01	-1.700486e-05
1.023305e+01	-1.720187e-05
1.029215e+01	-1.740115e-05
1.035160e+01	-1.760275e-05
1.041139e+01	-1.780668e-05
1.047153e+01	-1.801298e-05
1.053201e+01	-1.822166e-05
1.059284e+01	-1.843277e-05
1.065403e+01	-1.864631e-05
1.071556e+01	-1.886234e-05
1.077746e+01	-1.908086e-05
1.083971e+01	-1.930192e-05
1.090232e+01	-1.952554e-05
1.096529e+01	-1.975174e-05
1.102862e+01	-1.998057e-05
1.109232e+01	-2.021205e-05
1.115639e+01	-2.044622e-05
1.122083e+01	-2.068309e-05
1.128564e+01	-2.092271e-05
1.135083e+01	-2.116510e-05
1.141639e+01	-2.141031e-05
1.148233e+01	-2.165835e-05
1.154865e+01	-2.190927e-05
1.161536e+01	-2.216309e-05
1.168245e+01	-2.241986e-05
1.174992e+01	-2.267960e-05
1.181779e+01	-2.294235e-05
1.188605e+01	-2.320814e-05
1.195470e+01	-2.347701e-05
1.202375e+01	-2.374900e-05
1.209320e+01	-2.402414e-05
1.216305e+01	-2.430246e-05
1.223330e+01	-2.458401e-05
1.230396e+01	-2.486882e-05
1.237503e+01	-2.515693e-05
1.244651e+01	-2.544838e-05
1.251840e+01	-2.574321e-05
1.259070e+01	-2.604145e-05
1.266343e+01	-2.634315e-05
1.273657e+01	-2.664834e-05
1.281014e+01	-2.695707e-05
1.288413e+01	-2.726937e-05
1.295855e+01	-2.758529e-05
1.303339e+01	-2.790488e-05
1.310867e+01	-2.822816e-05
1.318439e+01	-2.855519e-05
1.326054e+01	-2.888601e-05
1.333713e+01	-2.922066e-05
1.341417e+01	-2.955919e-05
1.349165e+01	-2.990164e-05
1.356958e+01	-3.024806e-05
1.364795e+01	-3.059849e-05
1.372678e+01	-3.095298e-05
1.380607e+01	-3.131158e-05
1.388581e+01	-3.167433e-05
1.396602e+01	-3.204128e-05
1.404668e+01	-3.241249e-05
1.412782e+01	-3.278800e-05
1.420942e+01	-3.316785e-05
1.429149e+01	-3.355211e-05
1.437404e+01	-3.394082e-05
1.445706e+01	-3.433403e-05
1.454057e+01	-3.473180e-05
1.462455e+01	-3.513417e-05
1.470902e+01	-3.554121e-05
1.479398e+01	-3.595297e-05
1.487943e+01	-3.636949e-05
1.496537e+01	-3.679084e-05
1.505181e+01	-3.721707e-05
1.513875e+01	-3.764824e-05
1.522619e+01	-3.808440e-05
1.531414e+01	-3.852562e-05
1.540259e+01	-3.897194e-05
1.549156e+01	-3.942344e-05
1.558103e+01	-3.988017e-05
1.567103e+01	-4.034219e-05
1.576155e+01	-4.080957e-05
1.585258e+01	-4.128235e-05
1.594415e+01	-4.176062e-05
1.603624e+01	-4.224443e-05
1.612886e+01	-4.273384e-05
1.622202e+01	-4.322892e-05
1.631572e+01	-4.372973e-05
1.640996e+01	-4.423635e-05
1.650474e+01	-4.474884e-05
1.660008e+01	-4.526727e-05
1.669596e+01	-4.579170e-05
1.679239e+01	-4.632220e-05
1.688938e+01	-4.685886e-05
1.698694e+01	-4.740173e-05
1.708505e+01	-4.795089e-05
1.718373e+01	-4.850641e-05
1.728299e+01	-4.906837e-05
1.738281e+01	-4.963683e-05
1.748322e+01	-5.021189e-05
1.758420e+01	-5.079360e-05
1.768576e+01	-5.138206e-05
1.778792e+01	-5.197733e-05
1.789066e+01	-5.257950e-05
1.799399e+01	-5.318864e-05
1.809793e+01	-5.380484e-05
1.820246e+01	-5.442818e-05
1.830760e+01	-5.505874e-05
1.841334e+01	-5.569661e-05
1.851969e+01	-5.634187e-05
1.862666e+01	-5.699460e-05
1.873425e+01	-5.765489e-05
1.884246e+01	-5.832284e-05
1.895129e+01	-5.899852e-05
1.906075e+01	-5.968203e-05
1.917085e+01	-6.037346e-05
1.928158e+01	-6.107289e-05
1.939295e+01	-6.178044e-05
1.950496e+01	-6.249618e-05
1.961762e+01	-6.322021e-05
1.973093e+01	-6.395262e-05
1.984490e+01	-6.469353e-05
1.995952e+01	-6.544301e-05
2.007480e+01	-6.620118e-05
2.019076e+01	-6.696814e-05
2.030738e+01	-6.774398e-05
2.042467e+01	-6.852880e-05
2.054264e+01	-6.932272e-05
2.066130e+01	-7.012584e-05
2.078064e+01	-7.093826e-05
2.090066e+01	-7.176009e-05
2.102139e+01	-7.259145e-05
2.114280e+01	-7.343243e-05
2.126492e+01	-7.428316e-05
2.138775e+01	-7.514374e-05
2.151128e+01	-7.601430e-05
2.163553e+01	-7.689494e-05
2.176050e+01	-7.778578e-05
2.188619e+01	-7.868694e-05
2.201260e+01	-7.959854e-05
2.213974e+01	-8.052070e-05
2.226762e+01	-8.145355e-05
2.239624e+01	-8.239720e-05
2.252560e+01	-8.335179e-05
2.265571e+01	-8.431743e-05
2.278656e+01	-8.529426e-05
2.291818e+01	-8.628241e-05
2.305055e+01	-8.728201e-05
2.318369e+01	-8.829318e-05
2.331760e+01	-8.931607e-05
2.345228e+01	-9.035082e-05
2.358774e+01	-9.139754e-05
2.372398e+01	-9.245640e-05
2.386101e+01	-9.352752e-05
2.399883e+01	-9.461105e-05
2.413745e+01	-9.570713e-05
2.427686e+01	-9.681592e-05
2.441709e+01	-9.793754e-05
2.455812e+01	-9.907216e-05
2.469997e+01	-1.002199e-04
2.484263e+01	-1.013810e-04
2.498612e+01	-1.025555e-04
2.513044e+01	-1.037436e-04
2.527559e+01	-1.049455e-04
2.542158e+01	-1.061613e-04
2.556842e+01	-1.073912e-04
2.571610e+01	-1.086354e-04
2.586463e+01	-1.098939e-04
2.601403e+01	-1.111670e-04
2.616428e+01	-1.124549e-04
2.631541e+01	-1.137577e-04
2.646740e+01	-1.150756e-04
2.662028e+01	-1.164088e-04
2.677404e+01	-1.177574e-04
2.692868e+01	-1.191216e-04
2.708422e+01	-1.205017e-04
2.724066e+01	-1.218977e-04
2.739800e+01	-1.233099e-04
2.755625e+01	-1.247385e-04
2.771541e+01	-1.261836e-04
2.787550e+01	-1.276454e-04
2.803650e+01	-1.291242e-04
2.819844e+01	-1.306201e-04
2.836131e+01	-1.321334e-04
2.852513e+01	-1.336641e-04
2.868989e+01	-1.352127e-04
2.885560e+01	-1.367791e-04
2.902227e+01	-1.383637e-04
2.918990e+01	-1.399667e-04
2.935850e+01	-1.415882e-04
2.952807e+01	-1.432285e-04
2.969863e+01	-1.448878e-04
2.987016e+01	-1.465664e-04
3.004269e+01	-1.482643e-04
3.021622e+01	-1.499820e-04
3.039075e+01	-1.517195e-04
3.056628e+01	-1.534772e-04
3.074283e+01	-1.552553e-04
3.092040e+01	-1.570539e-04
3.109900e+01	-1.588734e-04
3.127862e+01	-1.607140e-04
3.145929e+01	-1.625758e-04
3.164099e+01	-1.644593e-04
3.182375e+01	-1.663646e-04
3.200756e+01	-1.682919e-04
3.219244e+01	-1.702416e-04
3.237838e+01	-1.722138e-04
3.256540e+01	-1.742089e-04
3.275349e+01	-1.762272e-04
3.294268e+01	-1.782688e-04
3.313295e+01	-1.803340e-04
3.332433e+01	-1.824232e-04
3.351681e+01	-1.845366e-04
3.371040e+01	-1.866744e-04
3.390511e+01	-1.888370e-04
3.410094e+01	-1.910247e-04
3.429791e+01	-1.932378e-04
3.449601e+01	-1.954764e-04
3.469526e+01	-1.977410e-04
3.489566e+01	-2.000318e-04
3.509721e+01	-2.023492e-04
3.529993e+01	-2.046934e-04
3.550382e+01	-2.070648e-04
3.570889e+01	-2.094637e-04
3.591515e+01	-2.118903e-04
3.612259e+01	-2.143450e-04
3.633123e+01	-2.168282e-04
3.654108e+01	-2.193402e-04
3.675214e+01	-2.218812e-04
3.696442e+01	-2.244517e-04
3.717792e+01	-2.270520e-04
3.739266e+01	-2.296824e-04
3.760864e+01	-2.323432e-04
3.782587e+01	-2.350349e-04
3.804435e+01	-2.377578e-04
3.826409e+01	-2.405122e-04
3.848510e+01	-2.432985e-04
3.870739e+01	-2.461171e-04
3.893096e+01	-2.489684e-04
3.915583e+01	-2.518527e-04
3.938199e+01	-2.547704e-04
3.960946e+01	-2.577219e-04
3.983824e+01	-2.607076e-04
4.006834e+01	-2.637278e-04
4.029978e+01	-2.667831e-04
4.053255e+01	-2.698738e-04
4.076666e+01	-2.730002e-04
4.100213e+01	-2.761629e-04
4.123896e+01	-2.793622e-04
4.147715e+01	-2.825986e-04
4.171672e+01	-2.858725e-04
4.195767e+01	-2.891843e-04
4.220002e+01	-2.925345e-04
4.244377e+01	-2.959234e-04
4.268892e+01	-2.993517e-04
4.293549e+01	-3.028196e-04
4.318348e+01	-3.063277e-04
4.343291e+01	-3.098765e-04
4.368377e+01	-3.134664e-04
4.393609e+01	-3.170979e-04
4.418986e+01	-3.207714e-04
4.444510e+01	-3.244875e-04
4.470182e+01	-3.282466e-04
4.496001e+01	-3.320493e-04
4.521970e+01	-3.358960e-04
4.548089e+01	-3.397873e-04
4.574358e+01	-3.437237e-04
4.600779e+01	-3.477057e-04
4.627353e+01	-3.517338e-04
4.654081e+01	-3.558085e-04
4.680963e+01	-3.599305e-04
4.708000e+01	-3.641002e-04
4.735193e+01	-3.683183e-04
4.762543e+01	-3.725851e-04
4.790051e+01	-3.769015e-04
4.817719e+01	-3.812678e-04
4.845545e+01	-3.856847e-04
4.873533e+01	-3.901527e-04
4.901682e+01	-3.946725e-04
4.929994e+01	-3.992447e-04
4.958470e+01	-4.038699e-04
4.987110e+01	-4.085486e-04
5.015915e+01	-4.132815e-04
5.044887e+01	-4.180693e-04
5.074026e+01	-4.229125e-04
5.103333e+01	-4.278118e-04
5.132810e+01	-4.327679e-04
5.162457e+01	-4.377814e-04
5.192275e+01	-4.428529e-04
5.222265e+01	-4.479832e-04
5.252429e+01	-4.531730e-04
5.282767e+01	-4.584228e-04
5.313280e+01	-4.637335e-04
5.343969e+01	-4.691057e-04
5.374836e+01	-4.745401e-04
5.405880e+01	-4.800375e-04
5.437105e+01	-4.855985e-04
5.468509e+01	-4.912240e-04
5.500095e+01	-4.969146e-04
5.531863e+01	-5.026712e-04
5.563815e+01	-5.084945e-04
5.595951e+01	-5.143852e-04
5.628273e+01	-5.203441e-04
5.660782e+01	-5.263721e-04
5.693479e+01	-5.324698e-04
5.726364e+01	-5.386383e-04
5.759439e+01	-5.448782e-04
5.792705e+01	-5.511903e-04
5.826164e+01	-5.575756e-04
5.859815e+01	-5.640348e-04
5.893662e+01	-5.705689e-04
5.927703e+01	-5.771787e-04
5.961941e+01	-5.838650e-04
5.996377e+01	-5.906288e-04
6.031012e+01	-5.974709e-04
6.065847e+01	-6.043923e-04
6.100883e+01	-6.113938e-04
6.136121e+01	-6.184765e-04
6.171563e+01	-6.256412e-04
6.207210e+01	-6.328889e-04
6.243063e+01	-6.402206e-04
6.279122e+01	-6.476371e-04
6.315390e+01	-6.551396e-04
6.351868e+01	-6.627290e-04
6.388556e+01	-6.704063e-04
6.425456e+01	-6.781726e-04
6.462569e+01	-6.860288e-04
6.499897e+01	-6.939759e-04
6.537440e+01	-7.020152e-04
6.575200e+01	-7.101476e-04
6.613178e+01	-7.183741e-04
6.651375e+01	-7.266960e-04
6.689793e+01	-7.351143e-04
6.728433e+01	-7.436300e-04
6.767297e+01	-7.522445e-04
6.806384e+01	-7.609586e-04
6.845698e+01	-7.697738e-04
6.885238e+01	-7.786910e-04
6.925007e+01	-7.877116e-04
6.965005e+01	-7.968366e-04
7.005235e+01	-8.060673e-04
7.045697e+01	-8.154049e-04
7.086393e+01	-8.248507e-04
7.127323e+01	-8.344059e-04
7.168490e+01	-8.440718e-04
7.209895e+01	-8.538496e-04
7.251539e+01	-8.637407e-04
7.293424e+01	-8.737464e-04
7.335551e+01	-8.838680e-04
7.377920e+01	-8.941068e-04
7.420535e+01	-9.044641e-04
7.463396e+01	-9.149415e-04
7.506504e+01	-9.255402e-04
7.549861e+01	-9.362617e-04
7.593469e+01	-9.471074e-04
7.637328e+01	-9.580787e-04
7.681441e+01	-9.691770e-04
7.725809e+01	-9.804039e-04
7.770433e+01	-9.917609e-04
7.815315e+01	-1.003249e-03
7.860456e+01	-1.014871e-03
7.905857e+01	-1.026627e-03
7.951521e+01	-1.038519e-03
7.997449e+01	-1.050549e-03
8.043642e+01	-1.062719e-03
8.090102e+01	-1.075029e-03
8.136830e+01	-1.087482e-03
8.183828e+01	-1.100079e-03
8.231097e+01	-1.112822e-03
8.278640e+01	-1.125713e-03
8.326457e+01	-1.138753e-03
8.374550e+01	-1.151944e-03
8.422921e+01	-1.165288e-03
8.471572e+01	-1.178786e-03
8.520503e+01	-1.192441e-03
8.569717e+01	-1.206254e-03
8.619215e+01	-1.220227e-03
8.669000e+01	-1.234361e-03
8.719071e+01	-1.248660e-03
8.769432e+01	-1.263124e-03
8.820084e+01	-1.277755e-03
8.871029e+01	-1.292556e-03
8.922267e+01	-1.307528e-03
8.973802e+01	-1.322674e-03
9.025634e+01	-1.337995e-03
9.077766e+01	-1.353494e-03
9.130199e+01	-1.369172e-03
9.182935e+01	-1.385032e-03
9.235975e+01	-1.401075e-03
9.289321e+01	-1.417304e-03
9.342976e+01	-1.433721e-03
9.396941e+01	-1.450329e-03
9.451217e+01	-1.467128e-03
9.505807e+01	-1.484122e-03
9.560712e+01	-1.501313e-03
9.615934e+01	-1.518704e-03
9.671476e+01	-1.536295e-03
9.727338e+01	-1.554090e-03
9.783522e+01	-1.572091e-03
9.840032e+01	-1.590301e-03
9.896867e+01	-1.608722e-03
9.954031e+01	-1.627356e-03
1.001153e+02	-1.646206e-03
1.006935e+02	-1.665274e-03
1.012751e+02	-1.684563e-03
1.018601e+02	-1.704075e-03
1.024484e+02	-1.723813e-03
1.030402e+02	-1.743780e-03
1.036353e+02	-1.763978e-03
1.042339e+02	-1.784410e-03
1.048360e+02	-1.805079e-03
1.054415e+02	-1.825986e-03
1.060505e+02	-1.847136e-03
1.066631e+02	-1.868531e-03
1.072791e+02	-1.890174e-03
1.078988e+02	-1.912068e-03
1.085220e+02	-1.934214e-03
1.091488e+02	-1.956618e-03
1.097793e+02	-1.979280e-03
1.104133e+02	-2.002206e-03
1.110511e+02	-2.025396e-03
1.116925e+02	-2.048856e-03
1.123376e+02	-2.072586e-03
1.129865e+02	-2.096592e-03
1.136391e+02	-2.120876e-03
1.142955e+02	-2.145441e-03
1.149556e+02	-2.170290e-03
1.156196e+02	-2.195427e-03
1.162874e+02	-2.220855e-03
1.169591e+02	-2.246578e-03
1.176347e+02	-2.272598e-03
1.183141e+02	-2.298920e-03
1.189975e+02	-2.325546e-03
1.196848e+02	-2.352481e-03
1.203761e+02	-2.379727e-03
1.210714e+02	-2.407290e-03
1.217707e+02	-2.435171e-03
1.224740e+02	-2.463375e-03
1.231814e+02	-2.491906e-03
1.238929e+02	-2.520766e-03
1.246085e+02	-2.549962e-03
1.253283e+02	-2.579495e-03
1.260522e+02	-2.609370e-03
1.267802e+02	-2.639591e-03
1.275125e+02	-2.670162e-03
1.282490e+02	-2.701087e-03
1.289898e+02	-2.732370e-03
1.297348e+02	-2.764015e-03
1.304842e+02	-2.796026e-03
1.312378e+02	-2.828409e-03
1.319959e+02	-2.861166e-03
1.327583e+02	-2.894302e-03
1.335251e+02	-2.927822e-03
1.342963e+02	-2.961730e-03
1.350720e+02	-2.996030e-03
1.358522e+02	-3.030728e-03
1.366368e+02	-3.065827e-03
1.374260e+02	-3.101333e-03
1.382198e+02	-3.137250e-03
1.390182e+02	-3.173582e-03
1.398211e+02	-3.210336e-03
1.406287e+02	-3.247514e-03
1.414410e+02	-3.285123e-03
1.422579e+02	-3.323168e-03
1.430796e+02	-3.361653e-03
1.439060e+02	-3.400583e-03
1.447372e+02	-3.439964e-03
1.455732e+02	-3.479801e-03
1.464141e+02	-3.520099e-03
1.472597e+02	-3.560863e-03
1.481103e+02	-3.602100e-03
1.489658e+02	-3.643813e-03
1.498262e+02	-3.686010e-03
1.506916e+02	-3.728695e-03
1.515620e+02	-3.771874e-03
1.524374e+02	-3.815553e-03
1.533179e+02	-3.859738e-03
1.542034e+02	-3.904433e-03
1.550941e+02	-3.949647e-03
1.559899e+02	-3.995383e-03
1.568909e+02	-4.041649e-03
1.577971e+02	-4.088451e-03
1.587085e+02	-4.135794e-03
1.596252e+02	-4.183685e-03
1.605472e+02	-4.232130e-03
1.614745e+02	-4.281136e-03
1.624072e+02	-4.330710e-03
1.633453e+02	-4.380857e-03
1.642887e+02	-4.431584e-03
1.652377e+02	-4.482899e-03
1.661921e+02	-4.534807e-03
1.671520e+02	-4.587316e-03
1.681175e+02	-4.640433e-03
1.690885e+02	-4.694164e-03
1.700651e+02	-4.748518e-03
1.710474e+02	-4.803500e-03
1.720354e+02	-4.859119e-03
1.730291e+02	-4.915381e-03
1.740285e+02	-4.972294e-03
1.750337e+02	-5.029866e-03
1.760446e+02	-5.088104e-03
1.770615e+02	-5.147016e-03
1.780842e+02	-5.206610e-03
1.791128e+02	-5.266893e-03
1.801473e+02	-5.327874e-03
1.811878e+02	-5.389560e-03
1.822344e+02	-5.451960e-03
1.832870e+02	-5.515082e-03
1.843456e+02	-5.578935e-03
1.854104e+02	-5.643526e-03
1.864813e+02	-5.708865e-03
1.875584e+02	-5.774959e-03
1.886418e+02	-5.841818e-03
1.897313e+02	-5.909451e-03
1.908272e+02	-5.977866e-03
1.919294e+02	-6.047073e-03
1.930380e+02	-6.117080e-03
1.941530e+02	-6.187898e-03
1.952744e+02	-6.259534e-03
1.964023e+02	-6.332000e-03
1.975367e+02	-6.405303e-03
1.986777e+02	-6.479455e-03
1.998252e+02	-6.554464e-03
2.009794e+02	-6.630341e-03
2.021403e+02	-6.707096e-03
2.033078e+02	-6.784738e-03
2.044821e+02	-6.863279e-03
2.056632e+02	-6.942728e-03
2.068511e+02	-7.023096e-03
2.080459e+02	-7.104394e-03
2.092475e+02	-7.186631e-03
2.104561e+02	-7.269820e-03
2.116717e+02	-7.353972e-03
2.128943e+02	-7.439096e-03
2.141240e+02	-7.525205e-03
2.153608e+02	-7.612310e-03
2.166047e+02	-7.700422e-03
2.178558e+02	-7.789553e-03
2.191141e+02	-7.879715e-03
2.203797e+02	-7.970919e-03
2.216526e+02	-8.063178e-03
2.229329e+02	-8.156504e-03
2.242205e+02	-8.250909e-03
2.255156e+02	-8.346406e-03
2.268182e+02	-8.443007e-03
2.281283e+02	-8.540725e-03
2.294459e+02	-8.639572e-03
2.307712e+02	-8.739563e-03
2.321041e+02	-8.840710e-03
2.334447e+02	-8.943026e-03
2.347931e+02	-9.046525e-03
2.361493e+02	-9.151220e-03
2.375133e+02	-9.257126e-03
2.388851e+02	-9.364256e-03
2.402649e+02	-9.472624e-03
2.416527e+02	-9.582246e-03
2.430484e+02	-9.693134e-03
2.444523e+02	-9.805304e-03
2.458642e+02	-9.918771e-03
2.472843e+02	-1.003355e-02
2.487126e+02	-1.014965e-02
2.501492e+02	-1.026710e-02
2.515940e+02	-1.038591e-02
2.530472e+02	-1.050608e-02
2.545088e+02	-1.062765e-02
2.559789e+02	-1.075062e-02
2.574574e+02	-1.087501e-02
2.589444e+02	-1.100084e-02
2.604401e+02	-1.112812e-02
2.619444e+02	-1.125688e-02
2.634574e+02	-1.138712e-02
2.649791e+02	-1.151887e-02
2.665096e+02	-1.165214e-02
2.680489e+02	-1.178695e-02
2.695972e+02	-1.192331e-02
2.711544e+02	-1.206126e-02
2.727205e+02	-1.220079e-02
2.742958e+02	-1.234194e-02
2.758801e+02	-1.248472e-02
2.774736e+02	-1.262914e-02
2.790762e+02	-1.277524e-02
2.806882e+02	-1.292302e-02
2.823094e+02	-1.307251e-02
2.839400e+02	-1.322373e-02
2.855800e+02	-1.337669e-02
2.872295e+02	-1.353142e-02
2.888886e+02	-1.368794e-02
2.905572e+02	-1.384627e-02
2.922354e+02	-1.400642e-02
2.939234e+02	-1.416842e-02
2.956211e+02	-1.433229e-02
2.973286e+02	-1.449806e-02
2.990459e+02	-1.466574e-02
3.007732e+02	-1.483535e-02
3.025104e+02	-1.500693e-02
3.042577e+02	-1.518048e-02
3.060151e+02	-1.535604e-02
3.077826e+02	-1.553362e-02
3.095604e+02	-1.571325e-02
3.113484e+02	-1.589496e-02
3.131467e+02	-1.607877e-02
3.149554e+02	-1.626469e-02
3.167746e+02	-1.645277e-02
3.186043e+02	-1.664301e-02
3.204445e+02	-1.683545e-02
3.222954e+02	-1.703011e-02
3.241570e+02	-1.722701e-02
3.260293e+02	-1.742619e-02
3.279124e+02	-1.762766e-02
3.298064e+02	-1.783146e-02
3.317114e+02	-1.803761e-02
3.336273e+02	-1.824614e-02
3.355544e+02	-1.845708e-02
3.374925e+02	-1.867045e-02
3.394418e+02	-1.888628e-02
3.414024e+02	-1.910460e-02
3.433744e+02	-1.932543e-02
3.453577e+02	-1.954882e-02
3.473525e+02	-1.977478e-02
3.493588e+02	-2.000334e-02
3.513766e+02	-2.023455e-02
3.534062e+02	-2.046841e-02
3.554474e+02	-2.070498e-02
3.575005e+02	-2.094427e-02
3.595654e+02	-2.118632e-02
3.616422e+02	-2.143116e-02
3.637311e+02	-2.167882e-02
3.658320e+02	-2.192934e-02
3.679450e+02	-2.218275e-02
3.700702e+02	-2.243907e-02
3.722077e+02	-2.269836e-02
3.743576e+02	-2.296062e-02
3.765199e+02	-2.322591e-02
3.786946e+02	-2.349426e-02
3.808820e+02	-2.376570e-02
3.830819e+02	-2.404027e-02
3.852946e+02	-2.431800e-02
3.875200e+02	-2.459893e-02
3.897583e+02	-2.488309e-02
3.920096e+02	-2.517053e-02
3.942738e+02	-2.546128e-02
3.965511e+02	-2.575538e-02
3.988416e+02	-2.605286e-02
4.011452e+02	-2.635377e-02
4.034622e+02	-2.665815e-02
4.057926e+02	-2.696602e-02
4.081365e+02	-2.727745e-02
4.104938e+02	-2.759246e-02
4.128648e+02	-2.791109e-02
4.152495e+02	-2.823339e-02
4.176480e+02	-2.855940e-02
4.200603e+02	-2.888917e-02
4.224866e+02	-2.922273e-02
4.249268e+02	-2.956012e-02
4.273812e+02	-2.990140e-02
4.298497e+02	-3.024661e-02
4.323325e+02	-3.059578e-02
4.348297e+02	-3.094897e-02
4.373412e+02	-3.130623e-02
4.398673e+02	-3.166759e-02
4.424079e+02	-3.203311e-02
4.449633e+02	-3.240283e-02
4.475334e+02	-3.277681e-02
4.501183e+02	-3.315508e-02
4.527182e+02	-3.353770e-02
4.553330e+02	-3.392472e-02
4.579630e+02	-3.431619e-02
4.606082e+02	-3.471216e-02
4.632687e+02	-3.511268e-02
4.659445e+02	-3.551780e-02
4.686358e+02	-3.592757e-02
4.713426e+02	-3.634206e-02
4.740650e+02	-3.676130e-02
4.768032e+02	-3.718536e-02
4.795572e+02	-3.761429e-02
4.823271e+02	-3.804815e-02
4.851130e+02	-3.848699e-02
4.879150e+02	-3.893086e-02
4.907332e+02	-3.937984e-02
4.935676e+02	-3.983396e-02
4.964185e+02	-4.029330e-02
4.992858e+02	-4.075791e-02
5.021696e+02	-4.122786e-02
5.050701e+02	-4.170319e-02
5.079874e+02	-4.218398e-02
5.109215e+02	-4.267029e-02
5.138726e+02	-4.316217e-02
5.168407e+02	-4.365969e-02
5.198259e+02	-4.416292e-02
5.228284e+02	-4.467192e-02
5.258482e+02	-4.518676e-02
5.288855e+02	-4.570750e-02
5.319403e+02	-4.623420e-02
5.350128e+02	-4.676695e-02
5.381030e+02	-4.730580e-02
5.412111e+02	-4.785082e-02
5.443371e+02	-4.840209e-02
5.474812e+02	-4.895967e-02
5.506434e+02	-4.952364e-02
5.538239e+02	-5.009406e-02
5.570228e+02	-5.067102e-02
5.602401e+02	-5.125459e-02
5.634760e+02	-5.184483e-02
5.667306e+02	-5.244183e-02
5.700040e+02	-5.304567e-02
5.732964e+02	-5.365641e-02
5.766077e+02	-5.427414e-02
5.799382e+02	-5.489894e-02
5.832879e+02	-5.553088e-02
5.866569e+02	-5.617006e-02
5.900454e+02	-5.681654e-02
5.934535e+02	-5.747041e-02
5.968813e+02	-5.813175e-02
6.003288e+02	-5.880066e-02
6.037963e+02	-5.947720e-02
6.072838e+02	-6.016148e-02
6.107914e+02	-6.085358e-02
6.143194e+02	-6.155358e-02
6.178676e+02	-6.226157e-02
6.214364e+02	-6.297765e-02
6.250258e+02	-6.370190e-02
6.286359e+02	-6.443443e-02
6.322669e+02	-6.517531e-02
6.359189e+02	-6.592464e-02
6.395919e+02	-6.668252e-02
6.432862e+02	-6.744905e-02
6.470017e+02	-6.822432e-02
6.507388e+02	-6.900843e-02
6.544974e+02	-6.980148e-02
6.582778e+02	-7.060357e-02
6.620800e+02	-7.141480e-02
6.659041e+02	-7.223527e-02
6.697504e+02	-7.306509e-02
6.736188e+02	-7.390436e-02
6.775096e+02	-7.475319e-02
6.814229e+02	-7.561168e-02
6.853587e+02	-7.647995e-02
6.893173e+02	-7.735809e-02
6.932988e+02	-7.824623e-02
6.973033e+02	-7.914447e-02
7.013309e+02	-8.005293e-02
