Frequency(Hz)	Magnitude(dB)
1.000000e+01	-1.783256e-05
1.005776e+01	-1.803915e-05
1.011585e+01	-1.824814e-05
1.017428e+01	-1.845955e-05
1.023305e+01	-1.867341e-05
1.029215e+01	-1.888974e-05
1.035160e+01	-1.910859e-05
1.041139e+01	-1.932997e-05
1.047153e+01	-1.955391e-05
1.053201e+01	-1.978044e-05
1.059284e+01	-2.000961e-05
1.065403e+01	-2.024142e-05
1.071556e+01	-2.047592e-05
1.077746e+01	-2.071314e-05
1.083971e+01	-2.095311e-05
1.090232e+01	-2.119586e-05
1.096529e+01	-2.144142e-05
1.102862e+01	-2.168982e-05
1.109232e+01	-2.194110e-05
1.115639e+01	-2.219530e-05
1.122083e+01	-2.245243e-05
1.128564e+01	-2.271255e-05
1.135083e+01	-2.297568e-05
1.141639e+01	-2.324186e-05
1.148233e+01	-2.351112e-05
1.154865e+01	-2.378351e-05
1.161536e+01	-2.405904e-05
1.168245e+01	-2.433777e-05
1.174992e+01	-2.461973e-05
1.181779e+01	-2.490496e-05
1.188605e+01	-2.519349e-05
1.195470e+01	-2.548536e-05
1.202375e+01	-2.578062e-05
1.209320e+01	-2.607929e-05
1.216305e+01	-2.638142e-05
1.223330e+01	-2.668706e-05
1.230396e+01	-2.699624e-05
1.237503e+01	-2.730899e-05
1.244651e+01	-2.762538e-05
1.251840e+01	-2.794542e-05
1.259070e+01	-2.826918e-05
1.266343e+01	-2.859668e-05
1.273657e+01	-2.892798e-05
1.281014e+01	-2.926312e-05
1.288413e+01	-2.960214e-05
1.295855e+01	-2.994509e-05
1.303339e+01	-3.029201e-05
1.310867e+01	-3.064295e-05
1.318439e+01	-3.099795e-05
1.326054e+01	-3.135707e-05
1.333713e+01	-3.172035e-05
1.341417e+01	-3.208784e-05
1.349165e+01	-3.245959e-05
1.356958e+01	-3.283564e-05
1.364795e+01	-3.321605e-05
1.372678e+01	-3.360086e-05
1.380607e+01	-3.399014e-05
1.388581e+01	-3.438392e-05
1.396602e+01	-3.478226e-05
1.404668e+01	-3.518523e-05
1.412782e+01	-3.559285e-05
1.420942e+01	-3.600521e-05
1.429149e+01	-3.642233e-05
1.437404e+01	-3.684430e-05
1.445706e+01	-3.727115e-05
1.454057e+01	-3.770294e-05
1.462455e+01	-3.813974e-05
1.470902e+01	-3.858159e-05
1.479398e+01	-3.902857e-05
1.487943e+01	-3.948073e-05
1.496537e+01	-3.993812e-05
1.505181e+01	-4.040081e-05
1.513875e+01	-4.086886e-05
1.522619e+01	-4.134234e-05
1.531414e+01	-4.182130e-05
1.540259e+01	-4.230581e-05
1.549156e+01	-4.279593e-05
1.558103e+01	-4.329173e-05
1.567103e+01	-4.379328e-05
1.576155e+01	-4.430063e-05
1.585258e+01	-4.481386e-05
1.594415e+01	-4.533304e-05
1.603624e+01	-4.585823e-05
1.612886e+01	-4.638951e-05
1.622202e+01	-4.692694e-05
1.631572e+01	-4.747060e-05
1.640996e+01	-4.802056e-05
1.650474e+01	-4.857689e-05
1.660008e+01	-4.913966e-05
1.669596e+01	-4.970896e-05
1.679239e+01	-5.028485e-05
1.688938e+01	-5.086741e-05
1.698694e+01	-5.145672e-05
1.708505e+01	-5.205285e-05
1.718373e+01	-5.265590e-05
1.728299e+01	-5.326592e-05
1.738281e+01	-5.388302e-05
1.748322e+01	-5.450727e-05
1.758420e+01	-5.513875e-05
1.768576e+01	-5.577754e-05
1.778792e+01	-5.642373e-05
1.789066e+01	-5.707741e-05
1.799399e+01	-5.773867e-05
1.809793e+01	-5.840758e-05
1.820246e+01	-5.908425e-05
1.830760e+01	-5.976875e-05
1.841334e+01	-6.046118e-05
1.851969e+01	-6.116164e-05
1.862666e+01	-6.187021e-05
1.873425e+01	-6.258698e-05
1.884246e+01	-6.331207e-05
1.895129e+01	-6.404555e-05
1.906075e+01	-6.478753e-05
1.917085e+01	-6.553810e-05
1.928158e+01	-6.629738e-05
1.939295e+01	-6.706544e-05
1.950496e+01	-6.784241e-05
1.961762e+01	-6.862838e-05
1.973093e+01	-6.942345e-05
1.984490e+01	-7.022773e-05
1.995952e+01	-7.104133e-05
2.007480e+01	-7.186436e-05
2.019076e+01	-7.269692e-05
2.030738e+01	-7.353913e-05
2.042467e+01	-7.439109e-05
2.054264e+01	-7.525293e-05
2.066130e+01	-7.612475e-05
2.078064e+01	-7.700667e-05
2.090066e+01	-7.789880e-05
2.102139e+01	-7.880127e-05
2.114280e+01	-7.971420e-05
2.126492e+01	-8.063770e-05
2.138775e+01	-8.157190e-05
2.151128e+01	-8.251693e-05
2.163553e+01	-8.347290e-05
2.176050e+01	-8.443995e-05
2.188619e+01	-8.541820e-05
2.201260e+01	-8.640778e-05
2.213974e+01	-8.740883e-05
2.226762e+01	-8.842148e-05
2.239624e+01	-8.944585e-05
2.252560e+01	-9.048210e-05
2.265571e+01	-9.153035e-05
2.278656e+01	-9.259074e-05
2.291818e+01	-9.366342e-05
2.305055e+01	-9.474852e-05
2.318369e+01	-9.584620e-05
2.331760e+01	-9.695659e-05
2.345228e+01	-9.807985e-05
2.358774e+01	-9.921612e-05
2.372398e+01	-1.003656e-04
2.386101e+01	-1.015283e-04
2.399883e+01	-1.027045e-04
2.413745e+01	-1.038944e-04
2.427686e+01	-1.050980e-04
2.441709e+01	-1.063156e-04
2.455812e+01	-1.075473e-04
2.469997e+01	-1.087932e-04
2.484263e+01	-1.100536e-04
2.498612e+01	-1.113286e-04
2.513044e+01	-1.126183e-04
2.527559e+01	-1.139230e-04
2.542158e+01	-1.152428e-04
2.556842e+01	-1.165779e-04
2.571610e+01	-1.179285e-04
2.586463e+01	-1.192947e-04
2.601403e+01	-1.206768e-04
2.616428e+01	-1.220748e-04
2.631541e+01	-1.234891e-04
2.646740e+01	-1.249197e-04
2.662028e+01	-1.263669e-04
2.677404e+01	-1.278309e-04
2.692868e+01	-1.293118e-04
2.708422e+01	-1.308099e-04
2.724066e+01	-1.323254e-04
2.739800e+01	-1.338584e-04
2.755625e+01	-1.354091e-04
2.771541e+01	-1.369779e-04
2.787550e+01	-1.385648e-04
2.803650e+01	-1.401700e-04
2.819844e+01	-1.417939e-04
2.836131e+01	-1.434366e-04
2.852513e+01	-1.450983e-04
2.868989e+01	-1.467793e-04
2.885560e+01	-1.484798e-04
2.902227e+01	-1.501999e-04
2.918990e+01	-1.519400e-04
2.935850e+01	-1.537002e-04
2.952807e+01	-1.554809e-04
2.969863e+01	-1.572821e-04
2.987016e+01	-1.591042e-04
3.004269e+01	-1.609475e-04
3.021622e+01	-1.628121e-04
3.039075e+01	-1.646983e-04
3.056628e+01	-1.666063e-04
3.074283e+01	-1.685364e-04
3.092040e+01	-1.704889e-04
3.109900e+01	-1.724641e-04
3.127862e+01	-1.744621e-04
3.145929e+01	-1.764832e-04
3.164099e+01	-1.785278e-04
3.182375e+01	-1.805960e-04
3.200756e+01	-1.826882e-04
3.219244e+01	-1.848047e-04
3.237838e+01	-1.869457e-04
3.256540e+01	-1.891114e-04
3.275349e+01	-1.913023e-04
3.294268e+01	-1.935185e-04
3.313295e+01	-1.957604e-04
3.332433e+01	-1.980283e-04
3.351681e+01	-2.003225e-04
3.371040e+01	-2.026432e-04
3.390511e+01	-2.049909e-04
3.410094e+01	-2.073657e-04
3.429791e+01	-2.097680e-04
3.449601e+01	-2.121982e-04
3.469526e+01	-2.146565e-04
3.489566e+01	-2.171433e-04
3.509721e+01	-2.196589e-04
3.529993e+01	-2.222036e-04
3.550382e+01	-2.247778e-04
3.570889e+01	-2.273819e-04
3.591515e+01	-2.300161e-04
3.612259e+01	-2.326808e-04
3.633123e+01	-2.353764e-04
3.654108e+01	-2.381033e-04
3.675214e+01	-2.408617e-04
3.696442e+01	-2.436520e-04
3.717792e+01	-2.464747e-04
3.739266e+01	-2.493301e-04
3.760864e+01	-2.522186e-04
3.782587e+01	-2.551406e-04
3.804435e+01	-2.580963e-04
3.826409e+01	-2.610864e-04
3.848510e+01	-2.641110e-04
3.870739e+01	-2.671707e-04
3.893096e+01	-2.702659e-04
3.915583e+01	-2.733969e-04
3.938199e+01	-2.765642e-04
3.960946e+01	-2.797681e-04
3.983824e+01	-2.830092e-04
4.006834e+01	-2.862879e-04
4.029978e+01	-2.896045e-04
4.053255e+01	-2.929595e-04
4.076666e+01	-2.963534e-04
4.100213e+01	-2.997866e-04
4.123896e+01	-3.032596e-04
4.147715e+01	-3.067728e-04
4.171672e+01	-3.103268e-04
4.195767e+01	-3.139219e-04
4.220002e+01	-3.175586e-04
4.244377e+01	-3.212375e-04
4.268892e+01	-3.249589e-04
4.293549e+01	-3.287235e-04
4.318348e+01	-3.325318e-04
4.343291e+01	-3.363841e-04
4.368377e+01	-3.402810e-04
4.393609e+01	-3.442231e-04
4.418986e+01	-3.482109e-04
4.444510e+01	-3.522448e-04
4.470182e+01	-3.563255e-04
4.496001e+01	-3.604535e-04
4.521970e+01	-3.646293e-04
4.548089e+01	-3.688534e-04
4.574358e+01	-3.731265e-04
4.600779e+01	-3.774491e-04
4.627353e+01	-3.818217e-04
4.654081e+01	-3.862451e-04
4.680963e+01	-3.907196e-04
4.708000e+01	-3.952460e-04
4.735193e+01	-3.998248e-04
4.762543e+01	-4.044567e-04
4.790051e+01	-4.091422e-04
4.817719e+01	-4.138820e-04
4.845545e+01	-4.186767e-04
4.873533e+01	-4.235270e-04
4.901682e+01	-4.284334e-04
4.929994e+01	-4.333967e-04
4.958470e+01	-4.384174e-04
4.987110e+01	-4.434964e-04
5.015915e+01	-4.486341e-04
5.044887e+01	-4.538314e-04
5.074026e+01	-4.590889e-04
5.103333e+01	-4.644073e-04
5.132810e+01	-4.697873e-04
5.162457e+01	-4.752296e-04
5.192275e+01	-4.807350e-04
5.222265e+01	-4.863041e-04
5.252429e+01	-4.919377e-04
5.282767e+01	-4.976367e-04
5.313280e+01	-5.034016e-04
5.343969e+01	-5.092333e-04
5.374836e+01	-5.151325e-04
5.405880e+01	-5.211001e-04
5.437105e+01	-5.271369e-04
5.468509e+01	-5.332435e-04
5.500095e+01	-5.394209e-04
5.531863e+01	-5.456698e-04
5.563815e+01	-5.519912e-04
5.595951e+01	-5.583857e-04
5.628273e+01	-5.648544e-04
5.660782e+01	-5.713979e-04
5.693479e+01	-5.780173e-04
5.726364e+01	-5.847133e-04
5.759439e+01	-5.914869e-04
5.792705e+01	-5.983390e-04
5.826164e+01	-6.052704e-04
5.859815e+01	-6.122822e-04
5.893662e+01	-6.193751e-04
5.927703e+01	-6.265502e-04
5.961941e+01	-6.338085e-04
5.996377e+01	-6.411508e-04
6.031012e+01	-6.485781e-04
6.065847e+01	-6.560915e-04
6.100883e+01	-6.636919e-04
6.136121e+01	-6.713804e-04
6.171563e+01	-6.791579e-04
6.207210e+01	-6.870255e-04
6.243063e+01	-6.949843e-04
6.279122e+01	-7.030352e-04
6.315390e+01	-7.111794e-04
6.351868e+01	-7.194179e-04
6.388556e+01	-7.277519e-04
6.425456e+01	-7.361824e-04
6.462569e+01	-7.447105e-04
6.499897e+01	-7.533374e-04
6.537440e+01	-7.620643e-04
6.575200e+01	-7.708922e-04
6.613178e+01	-7.798224e-04
6.651375e+01	-7.888560e-04
6.689793e+01	-7.979943e-04
6.728433e+01	-8.072384e-04
6.767297e+01	-8.165896e-04
6.806384e+01	-8.260492e-04
6.845698e+01	-8.356182e-04
6.885238e+01	-8.452982e-04
6.925007e+01	-8.550902e-04
6.965005e+01	-8.649957e-04
7.005235e+01	-8.750159e-04
7.045697e+01	-8.851522e-04
7.086393e+01	-8.954058e-04
7.127323e+01	-9.057783e-04
7.168490e+01	-9.162708e-04
7.209895e+01	-9.268850e-04
7.251539e+01	-9.376220e-04
7.293424e+01	-9.484834e-04
7.335551e+01	-9.594707e-04
7.377920e+01	-9.705851e-04
7.420535e+01	-9.818284e-04
7.463396e+01	-9.932018e-04
7.506504e+01	-1.004707e-03
7.549861e+01	-1.016345e-03
7.593469e+01	-1.028119e-03
7.637328e+01	-1.040028e-03
7.681441e+01	-1.052076e-03
7.725809e+01	-1.064263e-03
7.770433e+01	-1.076591e-03
7.815315e+01	-1.089062e-03
7.860456e+01	-1.101678e-03
7.905857e+01	-1.114439e-03
7.951521e+01	-1.127349e-03
7.997449e+01	-1.140408e-03
8.043642e+01	-1.153618e-03
8.090102e+01	-1.166981e-03
8.136830e+01	-1.180499e-03
8.183828e+01	-1.194173e-03
8.231097e+01	-1.208006e-03
8.278640e+01	-1.221999e-03
8.326457e+01	-1.236155e-03
8.374550e+01	-1.250474e-03
8.422921e+01	-1.264959e-03
8.471572e+01	-1.279611e-03
8.520503e+01	-1.294434e-03
8.569717e+01	-1.309428e-03
8.619215e+01	-1.324596e-03
8.669000e+01	-1.339939e-03
8.719071e+01	-1.355460e-03
8.769432e+01	-1.371161e-03
8.820084e+01	-1.387044e-03
8.871029e+01	-1.403111e-03
8.922267e+01	-1.419363e-03
8.973802e+01	-1.435804e-03
9.025634e+01	-1.452436e-03
9.077766e+01	-1.469260e-03
9.130199e+01	-1.486279e-03
9.182935e+01	-1.503495e-03
9.235975e+01	-1.520910e-03
9.289321e+01	-1.538527e-03
9.342976e+01	-1.556348e-03
9.396941e+01	-1.574375e-03
9.451217e+01	-1.592612e-03
9.505807e+01	-1.611059e-03
9.560712e+01	-1.629720e-03
9.615934e+01	-1.648597e-03
9.671476e+01	-1.667693e-03
9.727338e+01	-1.687010e-03
9.783522e+01	-1.706551e-03
9.840032e+01	-1.726318e-03
9.896867e+01	-1.746313e-03
9.954031e+01	-1.766541e-03
1.001153e+02	-1.787002e-03
1.006935e+02	-1.807701e-03
1.012751e+02	-1.828639e-03
1.018601e+02	-1.849820e-03
1.024484e+02	-1.871246e-03
1.030402e+02	-1.892920e-03
1.036353e+02	-1.914845e-03
1.042339e+02	-1.937024e-03
1.048360e+02	-1.959460e-03
1.054415e+02	-1.982156e-03
1.060505e+02	-2.005114e-03
1.066631e+02	-2.028339e-03
1.072791e+02	-2.051832e-03
1.078988e+02	-2.075597e-03
1.085220e+02	-2.099638e-03
1.091488e+02	-2.123957e-03
1.097793e+02	-2.148557e-03
1.104133e+02	-2.173443e-03
1.110511e+02	-2.198616e-03
1.116925e+02	-2.224081e-03
1.123376e+02	-2.249841e-03
1.129865e+02	-2.275899e-03
1.136391e+02	-2.302259e-03
1.142955e+02	-2.328924e-03
1.149556e+02	-2.355898e-03
1.156196e+02	-2.383185e-03
1.162874e+02	-2.410787e-03
1.169591e+02	-2.438708e-03
1.176347e+02	-2.466953e-03
1.183141e+02	-2.495526e-03
1.189975e+02	-2.524428e-03
1.196848e+02	-2.553666e-03
1.203761e+02	-2.583242e-03
1.210714e+02	-2.613161e-03
1.217707e+02	-2.643426e-03
1.224740e+02	-2.674041e-03
1.231814e+02	-2.705011e-03
1.238929e+02	-2.736339e-03
1.246085e+02	-2.768030e-03
1.253283e+02	-2.800088e-03
1.260522e+02	-2.832517e-03
1.267802e+02	-2.865322e-03
1.275125e+02	-2.898506e-03
1.282490e+02	-2.932075e-03
1.289898e+02	-2.966032e-03
1.297348e+02	-3.000383e-03
1.304842e+02	-3.035131e-03
1.312378e+02	-3.070281e-03
1.319959e+02	-3.105838e-03
1.327583e+02	-3.141807e-03
1.335251e+02	-3.178193e-03
1.342963e+02	-3.214999e-03
1.350720e+02	-3.252232e-03
1.358522e+02	-3.289895e-03
1.366368e+02	-3.327995e-03
1.374260e+02	-3.366536e-03
1.382198e+02	-3.405523e-03
1.390182e+02	-3.444961e-03
1.398211e+02	-3.484856e-03
1.406287e+02	-3.525212e-03
1.414410e+02	-3.566036e-03
1.422579e+02	-3.607332e-03
1.430796e+02	-3.649106e-03
1.439060e+02	-3.691364e-03
1.447372e+02	-3.734111e-03
1.455732e+02	-3.777353e-03
1.464141e+02	-3.821095e-03
1.472597e+02	-3.865344e-03
1.481103e+02	-3.910105e-03
1.489658e+02	-3.955384e-03
1.498262e+02	-4.001187e-03
1.506916e+02	-4.047520e-03
1.515620e+02	-4.094389e-03
1.524374e+02	-4.141801e-03
1.533179e+02	-4.189762e-03
1.542034e+02	-4.238278e-03
1.550941e+02	-4.287355e-03
1.559899e+02	-4.337000e-03
1.568909e+02	-4.387220e-03
1.577971e+02	-4.438021e-03
1.587085e+02	-4.489410e-03
1.596252e+02	-4.541394e-03
1.605472e+02	-4.593979e-03
1.614745e+02	-4.647173e-03
1.624072e+02	-4.700982e-03
1.633453e+02	-4.755415e-03
1.642887e+02	-4.810477e-03
1.652377e+02	-4.866176e-03
1.661921e+02	-4.922520e-03
1.671520e+02	-4.979516e-03
1.681175e+02	-5.037171e-03
1.690885e+02	-5.095494e-03
1.700651e+02	-5.154491e-03
1.710474e+02	-5.214172e-03
1.720354e+02	-5.274542e-03
1.730291e+02	-5.335612e-03
1.740285e+02	-5.397388e-03
1.750337e+02	-5.459878e-03
1.760446e+02	-5.523092e-03
1.770615e+02	-5.587037e-03
1.780842e+02	-5.651722e-03
1.791128e+02	-5.717156e-03
1.801473e+02	-5.783346e-03
1.811878e+02	-5.850302e-03
1.822344e+02	-5.918033e-03
1.832870e+02	-5.986548e-03
1.843456e+02	-6.055855e-03
1.854104e+02	-6.125964e-03
1.864813e+02	-6.196884e-03
1.875584e+02	-6.268625e-03
1.886418e+02	-6.341195e-03
1.897313e+02	-6.414605e-03
1.908272e+02	-6.488864e-03
1.919294e+02	-6.563983e-03
1.930380e+02	-6.639970e-03
1.941530e+02	-6.716836e-03
1.952744e+02	-6.794591e-03
1.964023e+02	-6.873246e-03
1.975367e+02	-6.952810e-03
1.986777e+02	-7.033295e-03
1.998252e+02	-7.114710e-03
2.009794e+02	-7.197068e-03
2.021403e+02	-7.280377e-03
2.033078e+02	-7.364651e-03
2.044821e+02	-7.449899e-03
2.056632e+02	-7.536132e-03
2.068511e+02	-7.623364e-03
2.080459e+02	-7.711604e-03
2.092475e+02	-7.800864e-03
2.104561e+02	-7.891157e-03
2.116717e+02	-7.982493e-03
2.128943e+02	-8.074886e-03
2.141240e+02	-8.168348e-03
2.153608e+02	-8.262890e-03
2.166047e+02	-8.358525e-03
2.178558e+02	-8.455266e-03
2.191141e+02	-8.553126e-03
2.203797e+02	-8.652117e-03
2.216526e+02	-8.752252e-03
2.229329e+02	-8.853546e-03
2.242205e+02	-8.956010e-03
2.255156e+02	-9.059659e-03
2.268182e+02	-9.164507e-03
2.281283e+02	-9.270566e-03
2.294459e+02	-9.377852e-03
2.307712e+02	-9.486377e-03
2.321041e+02	-9.596158e-03
2.334447e+02	-9.707207e-03
2.347931e+02	-9.819540e-03
2.361493e+02	-9.933171e-03
2.375133e+02	-1.004812e-02
2.388851e+02	-1.016439e-02
2.402649e+02	-1.028201e-02
2.416527e+02	-1.040098e-02
2.430484e+02	-1.052133e-02
2.444523e+02	-1.064308e-02
2.458642e+02	-1.076623e-02
2.472843e+02	-1.089080e-02
2.487126e+02	-1.101681e-02
2.501492e+02	-1.114428e-02
2.515940e+02	-1.127322e-02
2.530472e+02	-1.140365e-02
2.545088e+02	-1.153559e-02
2.559789e+02	-1.166905e-02
2.574574e+02	-1.180406e-02
2.589444e+02	-1.194062e-02
2.604401e+02	-1.207876e-02
2.619444e+02	-1.221850e-02
2.634574e+02	-1.235985e-02
2.649791e+02	-1.250284e-02
2.665096e+02	-1.264748e-02
2.680489e+02	-1.279378e-02
2.695972e+02	-1.294178e-02
2.711544e+02	-1.309149e-02
2.727205e+02	-1.324292e-02
2.742958e+02	-1.339611e-02
2.758801e+02	-1.355106e-02
2.774736e+02	-1.370781e-02
2.790762e+02	-1.386636e-02
2.806882e+02	-1.402675e-02
2.823094e+02	-1.418898e-02
2.839400e+02	-1.435309e-02
2.855800e+02	-1.451910e-02
2.872295e+02	-1.468702e-02
2.888886e+02	-1.485688e-02
2.905572e+02	-1.502870e-02
2.922354e+02	-1.520251e-02
2.939234e+02	-1.537832e-02
2.956211e+02	-1.555616e-02
2.973286e+02	-1.573606e-02
2.990459e+02	-1.591803e-02
3.007732e+02	-1.610210e-02
3.025104e+02	-1.628829e-02
3.042577e+02	-1.647664e-02
3.060151e+02	-1.666716e-02
3.077826e+02	-1.685987e-02
3.095604e+02	-1.705482e-02
3.113484e+02	-1.725201e-02
3.131467e+02	-1.745147e-02
3.149554e+02	-1.765324e-02
3.167746e+02	-1.785733e-02
3.186043e+02	-1.806378e-02
3.204445e+02	-1.827262e-02
3.222954e+02	-1.848386e-02
3.241570e+02	-1.869753e-02
3.260293e+02	-1.891368e-02
3.279124e+02	-1.913231e-02
3.298064e+02	-1.935347e-02
3.317114e+02	-1.957718e-02
3.336273e+02	-1.980346e-02
3.355544e+02	-2.003236e-02
3.374925e+02	-2.026390e-02
3.394418e+02	-2.049810e-02
3.414024e+02	-2.073501e-02
3.433744e+02	-2.097465e-02
3.453577e+02	-2.121705e-02
3.473525e+02	-2.146225e-02
3.493588e+02	-2.171027e-02
3.513766e+02	-2.196115e-02
3.534062e+02	-2.221492e-02
3.554474e+02	-2.247162e-02
3.575005e+02	-2.273127e-02
3.595654e+02	-2.299392e-02
3.616422e+02	-2.325960e-02
3.637311e+02	-2.352833e-02
3.658320e+02	-2.380016e-02
3.679450e+02	-2.407513e-02
3.700702e+02	-2.435326e-02
3.722077e+02	-2.463460e-02
3.743576e+02	-2.491917e-02
3.765199e+02	-2.520703e-02
3.786946e+02	-2.549820e-02
3.808820e+02	-2.579272e-02
3.830819e+02	-2.609063e-02
3.852946e+02	-2.639198e-02
3.875200e+02	-2.669679e-02
3.897583e+02	-2.700512e-02
3.920096e+02	-2.731699e-02
3.942738e+02	-2.763246e-02
3.965511e+02	-2.795155e-02
3.988416e+02	-2.827432e-02
4.011452e+02	-2.860080e-02
4.034622e+02	-2.893104e-02
4.057926e+02	-2.926508e-02
4.081365e+02	-2.960297e-02
4.104938e+02	-2.994474e-02
4.128648e+02	-3.029044e-02
4.152495e+02	-3.064012e-02
4.176480e+02	-3.099383e-02
4.200603e+02	-3.135160e-02
4.224866e+02	-3.171348e-02
4.249268e+02	-3.207953e-02
4.273812e+02	-3.244979e-02
4.298497e+02	-3.282430e-02
4.323325e+02	-3.320312e-02
4.348297e+02	-3.358630e-02
4.373412e+02	-3.397388e-02
4.398673e+02	-3.436591e-02
4.424079e+02	-3.476245e-02
4.449633e+02	-3.516355e-02
4.475334e+02	-3.556925e-02
4.501183e+02	-3.597962e-02
4.527182e+02	-3.639470e-02
4.553330e+02	-3.681455e-02
4.579630e+02	-3.723922e-02
4.606082e+02	-3.766877e-02
4.632687e+02	-3.810326e-02
4.659445e+02	-3.854273e-02
4.686358e+02	-3.898725e-02
4.713426e+02	-3.943687e-02
4.740650e+02	-3.989165e-02
4.768032e+02	-4.035165e-02
4.795572e+02	-4.081693e-02
4.823271e+02	-4.128755e-02
4.851130e+02	-4.176358e-02
4.879150e+02	-4.224506e-02
4.907332e+02	-4.273206e-02
4.935676e+02	-4.322466e-02
4.964185e+02	-4.372290e-02
4.992858e+02	-4.422685e-02
5.021696e+02	-4.473659e-02
5.050701e+02	-4.525217e-02
5.079874e+02	-4.577366e-02
5.109215e+02	-4.630112e-02
5.138726e+02	-4.683463e-02
5.168407e+02	-4.737426e-02
5.198259e+02	-4.792007e-02
5.228284e+02	-4.847213e-02
5.258482e+02	-4.903052e-02
5.288855e+02	-4.959530e-02
5.319403e+02	-5.016655e-02
5.350128e+02	-5.074434e-02
5.381030e+02	-5.132874e-02
5.412111e+02	-5.191984e-02
5.443371e+02	-5.251770e-02
5.474812e+02	-5.312240e-02
5.506434e+02	-5.373402e-02
5.538239e+02	-5.435265e-02
5.570228e+02	-5.497834e-02
5.602401e+02	-5.561120e-02
5.634760e+02	-5.625129e-02
5.667306e+02	-5.689870e-02
5.700040e+02	-5.755351e-02
5.732964e+02	-5.821581e-02
5.766077e+02	-5.888567e-02
5.799382e+02	-5.956319e-02
5.832879e+02	-6.024846e-02
5.866569e+02	-6.094155e-02
5.900454e+02	-6.164255e-02
5.934535e+02	-6.235157e-02
5.968813e+02	-6.306868e-02
6.003288e+02	-6.379397e-02
6.037963e+02	-6.452754e-02
6.072838e+02	-6.526949e-02
6.107914e+02	-6.601990e-02
6.143194e+02	-6.677887e-02
6.178676e+02	-6.754650e-02
6.214364e+02	-6.832289e-02
6.250258e+02	-6.910812e-02
6.286359e+02	-6.990231e-02
6.322669e+02	-7.070555e-02
6.359189e+02	-7.151795e-02
6.395919e+02	-7.233960e-02
6.432862e+02	-7.317061e-02
6.470017e+02	-7.401108e-02
6.507388e+02	-7.486113e-02
6.544974e+02	-7.572085e-02
6.582778e+02	-7.659036e-02
6.620800e+02	-7.746977e-02
6.659041e+02	-7.835918e-02
6.697504e+02	-7.925871e-02
6.736188e+02	-8.016847e-02
6.775096e+02	-8.108857e-02
6.814229e+02	-8.201913e-02
6.853587e+02	-8.296027e-02
6.893173e+02	-8.391211e-02
6.932988e+02	-8.487476e-02
6.973033e+02	-8.584834e-02
7.013309e+02	-8.683298e-02
