Frequency(Hz)	Magnitude(dB)
1.000000e+01	-1.605362e-05
1.005776e+01	-1.623961e-05
1.011585e+01	-1.642775e-05
1.017428e+01	-1.661807e-05
1.023305e+01	-1.681059e-05
1.029215e+01	-1.700535e-05
1.035160e+01	-1.720236e-05
1.041139e+01	-1.740165e-05
1.047153e+01	-1.760325e-05
1.053201e+01	-1.780719e-05
1.059284e+01	-1.801349e-05
1.065403e+01	-1.822218e-05
1.071556e+01	-1.843329e-05
1.077746e+01	-1.864685e-05
1.083971e+01	-1.886287e-05
1.090232e+01	-1.908141e-05
1.096529e+01	-1.930247e-05
1.102862e+01	-1.952609e-05
1.109232e+01	-1.975231e-05
1.115639e+01	-1.998114e-05
1.122083e+01	-2.021263e-05
1.128564e+01	-2.044680e-05
1.135083e+01	-2.068368e-05
1.141639e+01	-2.092331e-05
1.148233e+01	-2.116571e-05
1.154865e+01	-2.141092e-05
1.161536e+01	-2.165897e-05
1.168245e+01	-2.190989e-05
1.174992e+01	-2.216372e-05
1.181779e+01	-2.242050e-05
1.188605e+01	-2.268024e-05
1.195470e+01	-2.294300e-05
1.202375e+01	-2.320880e-05
1.209320e+01	-2.347768e-05
1.216305e+01	-2.374967e-05
1.223330e+01	-2.402482e-05
1.230396e+01	-2.430315e-05
1.237503e+01	-2.458471e-05
1.244651e+01	-2.486953e-05
1.251840e+01	-2.515765e-05
1.259070e+01	-2.544911e-05
1.266343e+01	-2.574394e-05
1.273657e+01	-2.604219e-05
1.281014e+01	-2.634390e-05
1.288413e+01	-2.664910e-05
1.295855e+01	-2.695784e-05
1.303339e+01	-2.727015e-05
1.310867e+01	-2.758608e-05
1.318439e+01	-2.790567e-05
1.326054e+01	-2.822897e-05
1.333713e+01	-2.855600e-05
1.341417e+01	-2.888683e-05
1.349165e+01	-2.922149e-05
1.356958e+01	-2.956003e-05
1.364795e+01	-2.990249e-05
1.372678e+01	-3.024892e-05
1.380607e+01	-3.059936e-05
1.388581e+01	-3.095386e-05
1.396602e+01	-3.131247e-05
1.404668e+01	-3.167523e-05
1.412782e+01	-3.204220e-05
1.420942e+01	-3.241341e-05
1.429149e+01	-3.278893e-05
1.437404e+01	-3.316880e-05
1.445706e+01	-3.355307e-05
1.454057e+01	-3.394179e-05
1.462455e+01	-3.433501e-05
1.470902e+01	-3.473279e-05
1.479398e+01	-3.513518e-05
1.487943e+01	-3.554223e-05
1.496537e+01	-3.595399e-05
1.505181e+01	-3.637053e-05
1.513875e+01	-3.679189e-05
1.522619e+01	-3.721813e-05
1.531414e+01	-3.764931e-05
1.540259e+01	-3.808549e-05
1.549156e+01	-3.852671e-05
1.558103e+01	-3.897305e-05
1.567103e+01	-3.942457e-05
1.576155e+01	-3.988131e-05
1.585258e+01	-4.034334e-05
1.594415e+01	-4.081073e-05
1.603624e+01	-4.128353e-05
1.612886e+01	-4.176181e-05
1.622202e+01	-4.224563e-05
1.631572e+01	-4.273506e-05
1.640996e+01	-4.323015e-05
1.650474e+01	-4.373098e-05
1.660008e+01	-4.423761e-05
1.669596e+01	-4.475012e-05
1.679239e+01	-4.526856e-05
1.688938e+01	-4.579300e-05
1.698694e+01	-4.632353e-05
1.708505e+01	-4.686019e-05
1.718373e+01	-4.740308e-05
1.728299e+01	-4.795225e-05
1.738281e+01	-4.850779e-05
1.748322e+01	-4.906976e-05
1.758420e+01	-4.963825e-05
1.768576e+01	-5.021332e-05
1.778792e+01	-5.079505e-05
1.789066e+01	-5.138352e-05
1.799399e+01	-5.197881e-05
1.809793e+01	-5.258099e-05
1.820246e+01	-5.319016e-05
1.830760e+01	-5.380638e-05
1.841334e+01	-5.442973e-05
1.851969e+01	-5.506031e-05
1.862666e+01	-5.569820e-05
1.873425e+01	-5.634347e-05
1.884246e+01	-5.699622e-05
1.895129e+01	-5.765654e-05
1.906075e+01	-5.832450e-05
1.917085e+01	-5.900020e-05
1.928158e+01	-5.968373e-05
1.939295e+01	-6.037518e-05
1.950496e+01	-6.107464e-05
1.961762e+01	-6.178220e-05
1.973093e+01	-6.249796e-05
1.984490e+01	-6.322201e-05
1.995952e+01	-6.395445e-05
2.007480e+01	-6.469537e-05
2.019076e+01	-6.544488e-05
2.030738e+01	-6.620307e-05
2.042467e+01	-6.697005e-05
2.054264e+01	-6.774591e-05
2.066130e+01	-6.853076e-05
2.078064e+01	-6.932470e-05
2.090066e+01	-7.012784e-05
2.102139e+01	-7.094028e-05
2.114280e+01	-7.176214e-05
2.126492e+01	-7.259352e-05
2.138775e+01	-7.343452e-05
2.151128e+01	-7.428528e-05
2.163553e+01	-7.514588e-05
2.176050e+01	-7.601646e-05
2.188619e+01	-7.689713e-05
2.201260e+01	-7.778799e-05
2.213974e+01	-7.868918e-05
2.226762e+01	-7.960081e-05
2.239624e+01	-8.052300e-05
2.252560e+01	-8.145587e-05
2.265571e+01	-8.239955e-05
2.278656e+01	-8.335416e-05
2.291818e+01	-8.431984e-05
2.305055e+01	-8.529670e-05
2.318369e+01	-8.628487e-05
2.331760e+01	-8.728450e-05
2.345228e+01	-8.829570e-05
2.358774e+01	-8.931862e-05
2.372398e+01	-9.035339e-05
2.386101e+01	-9.140015e-05
2.399883e+01	-9.245903e-05
2.413745e+01	-9.353019e-05
2.427686e+01	-9.461375e-05
2.441709e+01	-9.570986e-05
2.455812e+01	-9.681868e-05
2.469997e+01	-9.794033e-05
2.484263e+01	-9.907499e-05
2.498612e+01	-1.002228e-04
2.513044e+01	-1.013839e-04
2.527559e+01	-1.025584e-04
2.542158e+01	-1.037466e-04
2.556842e+01	-1.049485e-04
2.571610e+01	-1.061643e-04
2.586463e+01	-1.073943e-04
2.601403e+01	-1.086384e-04
2.616428e+01	-1.098970e-04
2.631541e+01	-1.111702e-04
2.646740e+01	-1.124581e-04
2.662028e+01	-1.137610e-04
2.677404e+01	-1.150789e-04
2.692868e+01	-1.164121e-04
2.708422e+01	-1.177608e-04
2.724066e+01	-1.191250e-04
2.739800e+01	-1.205051e-04
2.755625e+01	-1.219012e-04
2.771541e+01	-1.233134e-04
2.787550e+01	-1.247420e-04
2.803650e+01	-1.261872e-04
2.819844e+01	-1.276491e-04
2.836131e+01	-1.291279e-04
2.852513e+01	-1.306238e-04
2.868989e+01	-1.321371e-04
2.885560e+01	-1.336680e-04
2.902227e+01	-1.352165e-04
2.918990e+01	-1.367830e-04
2.935850e+01	-1.383677e-04
2.952807e+01	-1.399707e-04
2.969863e+01	-1.415922e-04
2.987016e+01	-1.432326e-04
3.004269e+01	-1.448920e-04
3.021622e+01	-1.465705e-04
3.039075e+01	-1.482686e-04
3.056628e+01	-1.499863e-04
3.074283e+01	-1.517239e-04
3.092040e+01	-1.534816e-04
3.109900e+01	-1.552597e-04
3.127862e+01	-1.570584e-04
3.145929e+01	-1.588779e-04
3.164099e+01	-1.607185e-04
3.182375e+01	-1.625805e-04
3.200756e+01	-1.644640e-04
3.219244e+01	-1.663693e-04
3.237838e+01	-1.682967e-04
3.256540e+01	-1.702464e-04
3.275349e+01	-1.722187e-04
3.294268e+01	-1.742139e-04
3.313295e+01	-1.762322e-04
3.332433e+01	-1.782738e-04
3.351681e+01	-1.803391e-04
3.371040e+01	-1.824284e-04
3.390511e+01	-1.845418e-04
3.410094e+01	-1.866797e-04
3.429791e+01	-1.888424e-04
3.449601e+01	-1.910302e-04
3.469526e+01	-1.932433e-04
3.489566e+01	-1.954820e-04
3.509721e+01	-1.977467e-04
3.529993e+01	-2.000376e-04
3.550382e+01	-2.023550e-04
3.570889e+01	-2.046993e-04
3.591515e+01	-2.070707e-04
3.612259e+01	-2.094696e-04
3.633123e+01	-2.118963e-04
3.654108e+01	-2.143511e-04
3.675214e+01	-2.168344e-04
3.696442e+01	-2.193464e-04
3.717792e+01	-2.218876e-04
3.739266e+01	-2.244581e-04
3.760864e+01	-2.270585e-04
3.782587e+01	-2.296889e-04
3.804435e+01	-2.323499e-04
3.826409e+01	-2.350416e-04
3.848510e+01	-2.377646e-04
3.870739e+01	-2.405191e-04
3.893096e+01	-2.433055e-04
3.915583e+01	-2.461242e-04
3.938199e+01	-2.489755e-04
3.960946e+01	-2.518599e-04
3.983824e+01	-2.547776e-04
4.006834e+01	-2.577292e-04
4.029978e+01	-2.607150e-04
4.053255e+01	-2.637354e-04
4.076666e+01	-2.667907e-04
4.100213e+01	-2.698815e-04
4.123896e+01	-2.730080e-04
4.147715e+01	-2.761708e-04
4.171672e+01	-2.793702e-04
4.195767e+01	-2.826067e-04
4.220002e+01	-2.858806e-04
4.244377e+01	-2.891925e-04
4.268892e+01	-2.925428e-04
4.293549e+01	-2.959319e-04
4.318348e+01	-2.993602e-04
4.343291e+01	-3.028283e-04
4.368377e+01	-3.063365e-04
4.393609e+01	-3.098854e-04
4.418986e+01	-3.134753e-04
4.444510e+01	-3.171069e-04
4.470182e+01	-3.207805e-04
4.496001e+01	-3.244967e-04
4.521970e+01	-3.282560e-04
4.548089e+01	-3.320588e-04
4.574358e+01	-3.359056e-04
4.600779e+01	-3.397970e-04
4.627353e+01	-3.437335e-04
4.654081e+01	-3.477156e-04
4.680963e+01	-3.517438e-04
4.708000e+01	-3.558187e-04
4.735193e+01	-3.599408e-04
4.762543e+01	-3.641106e-04
4.790051e+01	-3.683288e-04
4.817719e+01	-3.725958e-04
4.845545e+01	-3.769122e-04
4.873533e+01	-3.812786e-04
4.901682e+01	-3.856957e-04
4.929994e+01	-3.901639e-04
4.958470e+01	-3.946838e-04
4.987110e+01	-3.992561e-04
5.015915e+01	-4.038814e-04
5.044887e+01	-4.085603e-04
5.074026e+01	-4.132933e-04
5.103333e+01	-4.180812e-04
5.132810e+01	-4.229246e-04
5.162457e+01	-4.278240e-04
5.192275e+01	-4.327802e-04
5.222265e+01	-4.377938e-04
5.252429e+01	-4.428656e-04
5.282767e+01	-4.479960e-04
5.313280e+01	-4.531859e-04
5.343969e+01	-4.584359e-04
5.374836e+01	-4.637467e-04
5.405880e+01	-4.691191e-04
5.437105e+01	-4.745536e-04
5.468509e+01	-4.800512e-04
5.500095e+01	-4.856124e-04
5.531863e+01	-4.912380e-04
5.563815e+01	-4.969288e-04
5.595951e+01	-5.026856e-04
5.628273e+01	-5.085090e-04
5.660782e+01	-5.143998e-04
5.693479e+01	-5.203589e-04
5.726364e+01	-5.263871e-04
5.759439e+01	-5.324850e-04
5.792705e+01	-5.386536e-04
5.826164e+01	-5.448937e-04
5.859815e+01	-5.512060e-04
5.893662e+01	-5.575915e-04
5.927703e+01	-5.640509e-04
5.961941e+01	-5.705852e-04
5.996377e+01	-5.771951e-04
6.031012e+01	-5.838817e-04
6.065847e+01	-5.906456e-04
6.100883e+01	-5.974880e-04
6.136121e+01	-6.044095e-04
6.171563e+01	-6.114113e-04
6.207210e+01	-6.184942e-04
6.243063e+01	-6.256591e-04
6.279122e+01	-6.329070e-04
6.315390e+01	-6.402388e-04
6.351868e+01	-6.476556e-04
6.388556e+01	-6.551583e-04
6.425456e+01	-6.627479e-04
6.462569e+01	-6.704255e-04
6.499897e+01	-6.781919e-04
6.537440e+01	-6.860483e-04
6.575200e+01	-6.939958e-04
6.613178e+01	-7.020352e-04
6.651375e+01	-7.101678e-04
6.689793e+01	-7.183947e-04
6.728433e+01	-7.267168e-04
6.767297e+01	-7.351353e-04
6.806384e+01	-7.436513e-04
6.845698e+01	-7.522659e-04
6.885238e+01	-7.609804e-04
6.925007e+01	-7.697958e-04
6.965005e+01	-7.787133e-04
7.005235e+01	-7.877340e-04
7.045697e+01	-7.968593e-04
7.086393e+01	-8.060903e-04
7.127323e+01	-8.154282e-04
7.168490e+01	-8.248743e-04
7.209895e+01	-8.344297e-04
7.251539e+01	-8.440959e-04
7.293424e+01	-8.538740e-04
7.335551e+01	-8.637654e-04
7.377920e+01	-8.737713e-04
7.420535e+01	-8.838932e-04
7.463396e+01	-8.941323e-04
7.506504e+01	-9.044900e-04
7.549861e+01	-9.149676e-04
7.593469e+01	-9.255667e-04
7.637328e+01	-9.362884e-04
7.681441e+01	-9.471344e-04
7.725809e+01	-9.581060e-04
7.770433e+01	-9.692047e-04
7.815315e+01	-9.804319e-04
7.860456e+01	-9.917892e-04
7.905857e+01	-1.003278e-03
7.951521e+01	-1.014900e-03
7.997449e+01	-1.026656e-03
8.043642e+01	-1.038549e-03
8.090102e+01	-1.050580e-03
8.136830e+01	-1.062749e-03
8.183828e+01	-1.075060e-03
8.231097e+01	-1.087513e-03
8.278640e+01	-1.100111e-03
8.326457e+01	-1.112854e-03
8.374550e+01	-1.125745e-03
8.422921e+01	-1.138786e-03
8.471572e+01	-1.151977e-03
8.520503e+01	-1.165321e-03
8.569717e+01	-1.178820e-03
8.619215e+01	-1.192475e-03
8.669000e+01	-1.206288e-03
8.719071e+01	-1.220261e-03
8.769432e+01	-1.234397e-03
8.820084e+01	-1.248695e-03
8.871029e+01	-1.263160e-03
8.922267e+01	-1.277792e-03
8.973802e+01	-1.292593e-03
9.025634e+01	-1.307566e-03
9.077766e+01	-1.322712e-03
9.130199e+01	-1.338034e-03
9.182935e+01	-1.353533e-03
9.235975e+01	-1.369211e-03
9.289321e+01	-1.385071e-03
9.342976e+01	-1.401115e-03
9.396941e+01	-1.417345e-03
9.451217e+01	-1.433762e-03
9.505807e+01	-1.450370e-03
9.560712e+01	-1.467170e-03
9.615934e+01	-1.484165e-03
9.671476e+01	-1.501356e-03
9.727338e+01	-1.518747e-03
9.783522e+01	-1.536339e-03
9.840032e+01	-1.554135e-03
9.896867e+01	-1.572136e-03
9.954031e+01	-1.590347e-03
1.001153e+02	-1.608768e-03
1.006935e+02	-1.627402e-03
1.012751e+02	-1.646253e-03
1.018601e+02	-1.665321e-03
1.024484e+02	-1.684611e-03
1.030402e+02	-1.704124e-03
1.036353e+02	-1.723862e-03
1.042339e+02	-1.743830e-03
1.048360e+02	-1.764029e-03
1.054415e+02	-1.784461e-03
1.060505e+02	-1.805130e-03
1.066631e+02	-1.826039e-03
1.072791e+02	-1.847189e-03
1.078988e+02	-1.868585e-03
1.085220e+02	-1.890228e-03
1.091488e+02	-1.912122e-03
1.097793e+02	-1.934270e-03
1.104133e+02	-1.956674e-03
1.110511e+02	-1.979337e-03
1.116925e+02	-2.002263e-03
1.123376e+02	-2.025454e-03
1.129865e+02	-2.048914e-03
1.136391e+02	-2.072646e-03
1.142955e+02	-2.096652e-03
1.149556e+02	-2.120936e-03
1.156196e+02	-2.145502e-03
1.162874e+02	-2.170352e-03
1.169591e+02	-2.195490e-03
1.176347e+02	-2.220919e-03
1.183141e+02	-2.246642e-03
1.189975e+02	-2.272663e-03
1.196848e+02	-2.298985e-03
1.203761e+02	-2.325613e-03
1.210714e+02	-2.352548e-03
1.217707e+02	-2.379796e-03
1.224740e+02	-2.407359e-03
1.231814e+02	-2.435241e-03
1.238929e+02	-2.463445e-03
1.246085e+02	-2.491977e-03
1.253283e+02	-2.520839e-03
1.260522e+02	-2.550035e-03
1.267802e+02	-2.579569e-03
1.275125e+02	-2.609445e-03
1.282490e+02	-2.639667e-03
1.289898e+02	-2.670239e-03
1.297348e+02	-2.701164e-03
1.304842e+02	-2.732448e-03
1.312378e+02	-2.764094e-03
1.319959e+02	-2.796107e-03
1.327583e+02	-2.828490e-03
1.335251e+02	-2.861248e-03
1.342963e+02	-2.894385e-03
1.350720e+02	-2.927906e-03
1.358522e+02	-2.961815e-03
1.366368e+02	-2.996116e-03
1.374260e+02	-3.030815e-03
1.382198e+02	-3.065915e-03
1.390182e+02	-3.101422e-03
1.398211e+02	-3.137340e-03
1.406287e+02	-3.173674e-03
1.414410e+02	-3.210428e-03
1.422579e+02	-3.247608e-03
1.430796e+02	-3.285218e-03
1.439060e+02	-3.323263e-03
1.447372e+02	-3.361749e-03
1.455732e+02	-3.400681e-03
1.464141e+02	-3.440063e-03
1.472597e+02	-3.479901e-03
1.481103e+02	-3.520200e-03
1.489658e+02	-3.560966e-03
1.498262e+02	-3.602203e-03
1.506916e+02	-3.643918e-03
1.515620e+02	-3.686116e-03
1.524374e+02	-3.728802e-03
1.533179e+02	-3.771983e-03
1.542034e+02	-3.815663e-03
1.550941e+02	-3.859848e-03
1.559899e+02	-3.904546e-03
1.568909e+02	-3.949760e-03
1.577971e+02	-3.995498e-03
1.587085e+02	-4.041766e-03
1.596252e+02	-4.088568e-03
1.605472e+02	-4.135913e-03
1.614745e+02	-4.183805e-03
1.624072e+02	-4.232252e-03
1.633453e+02	-4.281260e-03
1.642887e+02	-4.330834e-03
1.652377e+02	-4.380983e-03
1.661921e+02	-4.431712e-03
1.671520e+02	-4.483028e-03
1.681175e+02	-4.534938e-03
1.690885e+02	-4.587448e-03
1.700651e+02	-4.640567e-03
1.710474e+02	-4.694300e-03
1.720354e+02	-4.748654e-03
1.730291e+02	-4.803638e-03
1.740285e+02	-4.859259e-03
1.750337e+02	-4.915522e-03
1.760446e+02	-4.972437e-03
1.770615e+02	-5.030011e-03
1.780842e+02	-5.088251e-03
1.791128e+02	-5.147164e-03
1.801473e+02	-5.206760e-03
1.811878e+02	-5.267045e-03
1.822344e+02	-5.328027e-03
1.832870e+02	-5.389715e-03
1.843456e+02	-5.452117e-03
1.854104e+02	-5.515241e-03
1.864813e+02	-5.579096e-03
1.875584e+02	-5.643689e-03
1.886418e+02	-5.709029e-03
1.897313e+02	-5.775126e-03
1.908272e+02	-5.841987e-03
1.919294e+02	-5.909622e-03
1.930380e+02	-5.978039e-03
1.941530e+02	-6.047248e-03
1.952744e+02	-6.117257e-03
1.964023e+02	-6.188077e-03
1.975367e+02	-6.259715e-03
1.986777e+02	-6.332183e-03
1.998252e+02	-6.405488e-03
2.009794e+02	-6.479642e-03
2.021403e+02	-6.554654e-03
2.033078e+02	-6.630533e-03
2.044821e+02	-6.707290e-03
2.056632e+02	-6.784935e-03
2.068511e+02	-6.863478e-03
2.080459e+02	-6.942929e-03
2.092475e+02	-7.023299e-03
2.104561e+02	-7.104599e-03
2.116717e+02	-7.186840e-03
2.128943e+02	-7.270031e-03
2.141240e+02	-7.354185e-03
2.153608e+02	-7.439312e-03
2.166047e+02	-7.525423e-03
2.178558e+02	-7.612530e-03
2.191141e+02	-7.700645e-03
2.203797e+02	-7.789779e-03
2.216526e+02	-7.879943e-03
2.229329e+02	-7.971150e-03
2.242205e+02	-8.063412e-03
2.255156e+02	-8.156741e-03
2.268182e+02	-8.251149e-03
2.281283e+02	-8.346648e-03
2.294459e+02	-8.443252e-03
2.307712e+02	-8.540973e-03
2.321041e+02	-8.639824e-03
2.334447e+02	-8.739817e-03
2.347931e+02	-8.840967e-03
2.361493e+02	-8.943286e-03
2.375133e+02	-9.046788e-03
2.388851e+02	-9.151486e-03
2.402649e+02	-9.257395e-03
2.416527e+02	-9.364529e-03
2.430484e+02	-9.472900e-03
2.444523e+02	-9.582525e-03
2.458642e+02	-9.693416e-03
2.472843e+02	-9.805590e-03
2.487126e+02	-9.919060e-03
2.501492e+02	-1.003384e-02
2.515940e+02	-1.014995e-02
2.530472e+02	-1.026740e-02
2.545088e+02	-1.038621e-02
2.559789e+02	-1.050639e-02
2.574574e+02	-1.062796e-02
2.589444e+02	-1.075093e-02
2.604401e+02	-1.087533e-02
2.619444e+02	-1.100116e-02
2.634574e+02	-1.112845e-02
2.649791e+02	-1.125721e-02
2.665096e+02	-1.138745e-02
2.680489e+02	-1.151921e-02
2.695972e+02	-1.165248e-02
2.711544e+02	-1.178729e-02
2.727205e+02	-1.192366e-02
2.742958e+02	-1.206161e-02
2.758801e+02	-1.220115e-02
2.774736e+02	-1.234230e-02
2.790762e+02	-1.248508e-02
2.806882e+02	-1.262951e-02
2.823094e+02	-1.277561e-02
2.839400e+02	-1.292340e-02
2.855800e+02	-1.307290e-02
2.872295e+02	-1.322412e-02
2.888886e+02	-1.337709e-02
2.905572e+02	-1.353182e-02
2.922354e+02	-1.368834e-02
2.939234e+02	-1.384667e-02
2.956211e+02	-1.400683e-02
2.973286e+02	-1.416884e-02
2.990459e+02	-1.433271e-02
3.007732e+02	-1.449848e-02
3.025104e+02	-1.466617e-02
3.042577e+02	-1.483579e-02
3.060151e+02	-1.500737e-02
3.077826e+02	-1.518093e-02
3.095604e+02	-1.535649e-02
3.113484e+02	-1.553408e-02
3.131467e+02	-1.571372e-02
3.149554e+02	-1.589543e-02
3.167746e+02	-1.607924e-02
3.186043e+02	-1.626517e-02
3.204445e+02	-1.645325e-02
3.222954e+02	-1.664350e-02
3.241570e+02	-1.683595e-02
3.260293e+02	-1.703061e-02
3.279124e+02	-1.722752e-02
3.298064e+02	-1.742670e-02
3.317114e+02	-1.762819e-02
3.336273e+02	-1.783199e-02
3.355544e+02	-1.803815e-02
3.374925e+02	-1.824669e-02
3.394418e+02	-1.845763e-02
3.414024e+02	-1.867100e-02
3.433744e+02	-1.888684e-02
3.453577e+02	-1.910517e-02
3.473525e+02	-1.932601e-02
3.493588e+02	-1.954940e-02
3.513766e+02	-1.977537e-02
3.534062e+02	-2.000394e-02
3.554474e+02	-2.023515e-02
3.575005e+02	-2.046903e-02
3.595654e+02	-2.070560e-02
3.616422e+02	-2.094490e-02
3.637311e+02	-2.118695e-02
3.658320e+02	-2.143180e-02
3.679450e+02	-2.167947e-02
3.700702e+02	-2.193000e-02
3.722077e+02	-2.218341e-02
3.743576e+02	-2.243975e-02
3.765199e+02	-2.269904e-02
3.786946e+02	-2.296131e-02
3.808820e+02	-2.322661e-02
3.830819e+02	-2.349497e-02
3.852946e+02	-2.376642e-02
3.875200e+02	-2.404099e-02
3.897583e+02	-2.431873e-02
3.920096e+02	-2.459967e-02
3.942738e+02	-2.488384e-02
3.965511e+02	-2.517129e-02
3.988416e+02	-2.546205e-02
4.011452e+02	-2.575615e-02
4.034622e+02	-2.605365e-02
4.057926e+02	-2.635457e-02
4.081365e+02	-2.665895e-02
4.104938e+02	-2.696684e-02
4.128648e+02	-2.727827e-02
4.152495e+02	-2.759329e-02
4.176480e+02	-2.791194e-02
4.200603e+02	-2.823425e-02
4.224866e+02	-2.856027e-02
4.249268e+02	-2.889005e-02
4.273812e+02	-2.922362e-02
4.298497e+02	-2.956102e-02
4.323325e+02	-2.990231e-02
4.348297e+02	-3.024753e-02
4.373412e+02	-3.059671e-02
4.398673e+02	-3.094992e-02
4.424079e+02	-3.130719e-02
4.449633e+02	-3.166856e-02
4.475334e+02	-3.203409e-02
4.501183e+02	-3.240383e-02
4.527182e+02	-3.277781e-02
4.553330e+02	-3.315610e-02
4.579630e+02	-3.353873e-02
4.606082e+02	-3.392577e-02
4.632687e+02	-3.431725e-02
4.659445e+02	-3.471323e-02
4.686358e+02	-3.511376e-02
4.713426e+02	-3.551889e-02
4.740650e+02	-3.592868e-02
4.768032e+02	-3.634318e-02
4.795572e+02	-3.676244e-02
4.823271e+02	-3.718651e-02
4.851130e+02	-3.761546e-02
4.879150e+02	-3.804933e-02
4.907332e+02	-3.848818e-02
4.935676e+02	-3.893207e-02
4.964185e+02	-3.938106e-02
4.992858e+02	-3.983520e-02
5.021696e+02	-4.029456e-02
5.050701e+02	-4.075918e-02
5.079874e+02	-4.122914e-02
5.109215e+02	-4.170449e-02
5.138726e+02	-4.218530e-02
5.168407e+02	-4.267162e-02
5.198259e+02	-4.316352e-02
5.228284e+02	-4.366106e-02
5.258482e+02	-4.416431e-02
5.288855e+02	-4.467333e-02
5.319403e+02	-4.518818e-02
5.350128e+02	-4.570894e-02
5.381030e+02	-4.623566e-02
5.412111e+02	-4.676842e-02
5.443371e+02	-4.730729e-02
5.474812e+02	-4.785233e-02
5.506434e+02	-4.840362e-02
5.538239e+02	-4.896122e-02
5.570228e+02	-4.952521e-02
5.602401e+02	-5.009566e-02
5.634760e+02	-5.067263e-02
5.667306e+02	-5.125622e-02
5.700040e+02	-5.184649e-02
5.732964e+02	-5.244351e-02
5.766077e+02	-5.304736e-02
5.799382e+02	-5.365813e-02
5.832879e+02	-5.427588e-02
5.866569e+02	-5.490070e-02
5.900454e+02	-5.553267e-02
5.934535e+02	-5.617186e-02
5.968813e+02	-5.681837e-02
6.003288e+02	-5.747226e-02
6.037963e+02	-5.813363e-02
6.072838e+02	-5.880256e-02
6.107914e+02	-5.947913e-02
6.143194e+02	-6.016343e-02
6.178676e+02	-6.085555e-02
6.214364e+02	-6.155558e-02
6.250258e+02	-6.226360e-02
6.286359e+02	-6.297970e-02
6.322669e+02	-6.370398e-02
6.359189e+02	-6.443653e-02
6.395919e+02	-6.517744e-02
6.432862e+02	-6.592680e-02
6.470017e+02	-6.668471e-02
6.507388e+02	-6.745127e-02
6.544974e+02	-6.822657e-02
6.582778e+02	-6.901071e-02
6.620800e+02	-6.980379e-02
6.659041e+02	-7.060591e-02
6.697504e+02	-7.141717e-02
6.736188e+02	-7.223767e-02
6.775096e+02	-7.306752e-02
6.814229e+02	-7.390683e-02
6.853587e+02	-7.475569e-02
6.893173e+02	-7.561421e-02
6.932988e+02	-7.648251e-02
6.973033e+02	-7.736069e-02
7.013309e+02	-7.824886e-02
