Frequency(Hz)	Magnitude(dB)
1.000000e+01	-1.791991e-05
1.005776e+01	-1.812752e-05
1.011585e+01	-1.833753e-05
1.017428e+01	-1.854997e-05
1.023305e+01	-1.876488e-05
1.029215e+01	-1.898227e-05
1.035160e+01	-1.920219e-05
1.041139e+01	-1.942465e-05
1.047153e+01	-1.964969e-05
1.053201e+01	-1.987734e-05
1.059284e+01	-2.010762e-05
1.065403e+01	-2.034057e-05
1.071556e+01	-2.057622e-05
1.077746e+01	-2.081460e-05
1.083971e+01	-2.105575e-05
1.090232e+01	-2.129968e-05
1.096529e+01	-2.154645e-05
1.102862e+01	-2.179607e-05
1.109232e+01	-2.204858e-05
1.115639e+01	-2.230402e-05
1.122083e+01	-2.256242e-05
1.128564e+01	-2.282381e-05
1.135083e+01	-2.308823e-05
1.141639e+01	-2.335571e-05
1.148233e+01	-2.362629e-05
1.154865e+01	-2.390001e-05
1.161536e+01	-2.417689e-05
1.168245e+01	-2.445699e-05
1.174992e+01	-2.474033e-05
1.181779e+01	-2.502695e-05
1.188605e+01	-2.531690e-05
1.195470e+01	-2.561020e-05
1.202375e+01	-2.590690e-05
1.209320e+01	-2.620704e-05
1.216305e+01	-2.651065e-05
1.223330e+01	-2.681778e-05
1.230396e+01	-2.712847e-05
1.237503e+01	-2.744276e-05
1.244651e+01	-2.776070e-05
1.251840e+01	-2.808231e-05
1.259070e+01	-2.840765e-05
1.266343e+01	-2.873676e-05
1.273657e+01	-2.906968e-05
1.281014e+01	-2.940646e-05
1.288413e+01	-2.974714e-05
1.295855e+01	-3.009177e-05
1.303339e+01	-3.044039e-05
1.310867e+01	-3.079305e-05
1.318439e+01	-3.114979e-05
1.326054e+01	-3.151067e-05
1.333713e+01	-3.187573e-05
1.341417e+01	-3.224502e-05
1.349165e+01	-3.261858e-05
1.356958e+01	-3.299648e-05
1.364795e+01	-3.337875e-05
1.372678e+01	-3.376545e-05
1.380607e+01	-3.415663e-05
1.388581e+01	-3.455234e-05
1.396602e+01	-3.495264e-05
1.404668e+01	-3.535758e-05
1.412782e+01	-3.576720e-05
1.420942e+01	-3.618157e-05
1.429149e+01	-3.660075e-05
1.437404e+01	-3.702477e-05
1.445706e+01	-3.745371e-05
1.454057e+01	-3.788762e-05
1.462455e+01	-3.832656e-05
1.470902e+01	-3.877058e-05
1.479398e+01	-3.921975e-05
1.487943e+01	-3.967412e-05
1.496537e+01	-4.013375e-05
1.505181e+01	-4.059871e-05
1.513875e+01	-4.106906e-05
1.522619e+01	-4.154485e-05
1.531414e+01	-4.202616e-05
1.540259e+01	-4.251304e-05
1.549156e+01	-4.300556e-05
1.558103e+01	-4.350379e-05
1.567103e+01	-4.400779e-05
1.576155e+01	-4.451763e-05
1.585258e+01	-4.503338e-05
1.594415e+01	-4.555510e-05
1.603624e+01	-4.608287e-05
1.612886e+01	-4.661675e-05
1.622202e+01	-4.715681e-05
1.631572e+01	-4.770313e-05
1.640996e+01	-4.825578e-05
1.650474e+01	-4.881484e-05
1.660008e+01	-4.938037e-05
1.669596e+01	-4.995245e-05
1.679239e+01	-5.053116e-05
1.688938e+01	-5.111657e-05
1.698694e+01	-5.170877e-05
1.708505e+01	-5.230783e-05
1.718373e+01	-5.291382e-05
1.728299e+01	-5.352684e-05
1.738281e+01	-5.414696e-05
1.748322e+01	-5.477426e-05
1.758420e+01	-5.540884e-05
1.768576e+01	-5.605076e-05
1.778792e+01	-5.670012e-05
1.789066e+01	-5.735700e-05
1.799399e+01	-5.802149e-05
1.809793e+01	-5.869368e-05
1.820246e+01	-5.937366e-05
1.830760e+01	-6.006152e-05
1.841334e+01	-6.075734e-05
1.851969e+01	-6.146123e-05
1.862666e+01	-6.217327e-05
1.873425e+01	-6.289356e-05
1.884246e+01	-6.362219e-05
1.895129e+01	-6.435927e-05
1.906075e+01	-6.510488e-05
1.917085e+01	-6.585913e-05
1.928158e+01	-6.662212e-05
1.939295e+01	-6.739395e-05
1.950496e+01	-6.817473e-05
1.961762e+01	-6.896454e-05
1.973093e+01	-6.976351e-05
1.984490e+01	-7.057173e-05
1.995952e+01	-7.138932e-05
2.007480e+01	-7.221638e-05
2.019076e+01	-7.305302e-05
2.030738e+01	-7.389935e-05
2.042467e+01	-7.475549e-05
2.054264e+01	-7.562154e-05
2.066130e+01	-7.649763e-05
2.078064e+01	-7.738387e-05
2.090066e+01	-7.828038e-05
2.102139e+01	-7.918727e-05
2.114280e+01	-8.010467e-05
2.126492e+01	-8.103269e-05
2.138775e+01	-8.197147e-05
2.151128e+01	-8.292112e-05
2.163553e+01	-8.388178e-05
2.176050e+01	-8.485356e-05
2.188619e+01	-8.583661e-05
2.201260e+01	-8.683104e-05
2.213974e+01	-8.783699e-05
2.226762e+01	-8.885460e-05
2.239624e+01	-8.988399e-05
2.252560e+01	-9.092531e-05
2.265571e+01	-9.197869e-05
2.278656e+01	-9.304428e-05
2.291818e+01	-9.412221e-05
2.305055e+01	-9.521263e-05
2.318369e+01	-9.631569e-05
2.331760e+01	-9.743152e-05
2.345228e+01	-9.856028e-05
2.358774e+01	-9.970211e-05
2.372398e+01	-1.008572e-04
2.386101e+01	-1.020256e-04
2.399883e+01	-1.032076e-04
2.413745e+01	-1.044033e-04
2.427686e+01	-1.056128e-04
2.441709e+01	-1.068363e-04
2.455812e+01	-1.080741e-04
2.469997e+01	-1.093261e-04
2.484263e+01	-1.105927e-04
2.498612e+01	-1.118739e-04
2.513044e+01	-1.131700e-04
2.527559e+01	-1.144811e-04
2.542158e+01	-1.158073e-04
2.556842e+01	-1.171490e-04
2.571610e+01	-1.185062e-04
2.586463e+01	-1.198791e-04
2.601403e+01	-1.212679e-04
2.616428e+01	-1.226728e-04
2.631541e+01	-1.240940e-04
2.646740e+01	-1.255316e-04
2.662028e+01	-1.269859e-04
2.677404e+01	-1.284570e-04
2.692868e+01	-1.299452e-04
2.708422e+01	-1.314507e-04
2.724066e+01	-1.329735e-04
2.739800e+01	-1.345140e-04
2.755625e+01	-1.360724e-04
2.771541e+01	-1.376488e-04
2.787550e+01	-1.392435e-04
2.803650e+01	-1.408566e-04
2.819844e+01	-1.424885e-04
2.836131e+01	-1.441392e-04
2.852513e+01	-1.458091e-04
2.868989e+01	-1.474983e-04
2.885560e+01	-1.492071e-04
2.902227e+01	-1.509356e-04
2.918990e+01	-1.526843e-04
2.935850e+01	-1.544531e-04
2.952807e+01	-1.562425e-04
2.969863e+01	-1.580525e-04
2.987016e+01	-1.598836e-04
3.004269e+01	-1.617358e-04
3.021622e+01	-1.636096e-04
3.039075e+01	-1.655050e-04
3.056628e+01	-1.674224e-04
3.074283e+01	-1.693620e-04
3.092040e+01	-1.713240e-04
3.109900e+01	-1.733088e-04
3.127862e+01	-1.753166e-04
3.145929e+01	-1.773477e-04
3.164099e+01	-1.794023e-04
3.182375e+01	-1.814806e-04
3.200756e+01	-1.835831e-04
3.219244e+01	-1.857099e-04
3.237838e+01	-1.878614e-04
3.256540e+01	-1.900378e-04
3.275349e+01	-1.922393e-04
3.294268e+01	-1.944664e-04
3.313295e+01	-1.967193e-04
3.332433e+01	-1.989983e-04
3.351681e+01	-2.013037e-04
3.371040e+01	-2.036358e-04
3.390511e+01	-2.059950e-04
3.410094e+01	-2.083814e-04
3.429791e+01	-2.107955e-04
3.449601e+01	-2.132376e-04
3.469526e+01	-2.157079e-04
3.489566e+01	-2.182069e-04
3.509721e+01	-2.207348e-04
3.529993e+01	-2.232920e-04
3.550382e+01	-2.258789e-04
3.570889e+01	-2.284957e-04
3.591515e+01	-2.311428e-04
3.612259e+01	-2.338206e-04
3.633123e+01	-2.365294e-04
3.654108e+01	-2.392696e-04
3.675214e+01	-2.420415e-04
3.696442e+01	-2.448455e-04
3.717792e+01	-2.476820e-04
3.739266e+01	-2.505514e-04
3.760864e+01	-2.534540e-04
3.782587e+01	-2.563903e-04
3.804435e+01	-2.593606e-04
3.826409e+01	-2.623652e-04
3.848510e+01	-2.654047e-04
3.870739e+01	-2.684794e-04
3.893096e+01	-2.715897e-04
3.915583e+01	-2.747361e-04
3.938199e+01	-2.779189e-04
3.960946e+01	-2.811385e-04
3.983824e+01	-2.843955e-04
4.006834e+01	-2.876902e-04
4.029978e+01	-2.910230e-04
4.053255e+01	-2.943945e-04
4.076666e+01	-2.978050e-04
4.100213e+01	-3.012551e-04
4.123896e+01	-3.047451e-04
4.147715e+01	-3.082755e-04
4.171672e+01	-3.118468e-04
4.195767e+01	-3.154595e-04
4.220002e+01	-3.191141e-04
4.244377e+01	-3.228110e-04
4.268892e+01	-3.265507e-04
4.293549e+01	-3.303337e-04
4.318348e+01	-3.341606e-04
4.343291e+01	-3.380318e-04
4.368377e+01	-3.419478e-04
4.393609e+01	-3.459092e-04
4.418986e+01	-3.499165e-04
4.444510e+01	-3.539702e-04
4.470182e+01	-3.580709e-04
4.496001e+01	-3.622191e-04
4.521970e+01	-3.664153e-04
4.548089e+01	-3.706601e-04
4.574358e+01	-3.749541e-04
4.600779e+01	-3.792979e-04
4.627353e+01	-3.836920e-04
4.654081e+01	-3.881370e-04
4.680963e+01	-3.926334e-04
4.708000e+01	-3.971820e-04
4.735193e+01	-4.017832e-04
4.762543e+01	-4.064378e-04
4.790051e+01	-4.111463e-04
4.817719e+01	-4.159093e-04
4.845545e+01	-4.207275e-04
4.873533e+01	-4.256015e-04
4.901682e+01	-4.305319e-04
4.929994e+01	-4.355195e-04
4.958470e+01	-4.405649e-04
4.987110e+01	-4.456687e-04
5.015915e+01	-4.508316e-04
5.044887e+01	-4.560543e-04
5.074026e+01	-4.613376e-04
5.103333e+01	-4.666820e-04
5.132810e+01	-4.720884e-04
5.162457e+01	-4.775573e-04
5.192275e+01	-4.830897e-04
5.222265e+01	-4.886861e-04
5.252429e+01	-4.943473e-04
5.282767e+01	-5.000741e-04
5.313280e+01	-5.058673e-04
5.343969e+01	-5.117276e-04
5.374836e+01	-5.176557e-04
5.405880e+01	-5.236525e-04
5.437105e+01	-5.297188e-04
5.468509e+01	-5.358554e-04
5.500095e+01	-5.420630e-04
5.531863e+01	-5.483426e-04
5.563815e+01	-5.546949e-04
5.595951e+01	-5.611208e-04
5.628273e+01	-5.676211e-04
5.660782e+01	-5.741967e-04
5.693479e+01	-5.808485e-04
5.726364e+01	-5.875773e-04
5.759439e+01	-5.943841e-04
5.792705e+01	-6.012697e-04
5.826164e+01	-6.082351e-04
5.859815e+01	-6.152812e-04
5.893662e+01	-6.224089e-04
5.927703e+01	-6.296191e-04
5.961941e+01	-6.369129e-04
5.996377e+01	-6.442911e-04
6.031012e+01	-6.517549e-04
6.065847e+01	-6.593051e-04
6.100883e+01	-6.669427e-04
6.136121e+01	-6.746688e-04
6.171563e+01	-6.824844e-04
6.207210e+01	-6.903906e-04
6.243063e+01	-6.983883e-04
6.279122e+01	-7.064787e-04
6.315390e+01	-7.146627e-04
6.351868e+01	-7.229416e-04
6.388556e+01	-7.313164e-04
6.425456e+01	-7.397882e-04
6.462569e+01	-7.483581e-04
6.499897e+01	-7.570272e-04
6.537440e+01	-7.657968e-04
6.575200e+01	-7.746680e-04
6.613178e+01	-7.836419e-04
6.651375e+01	-7.927198e-04
6.689793e+01	-8.019028e-04
6.728433e+01	-8.111922e-04
6.767297e+01	-8.205892e-04
6.806384e+01	-8.300951e-04
6.845698e+01	-8.397110e-04
6.885238e+01	-8.494384e-04
6.925007e+01	-8.592784e-04
6.965005e+01	-8.692323e-04
7.005235e+01	-8.793016e-04
7.045697e+01	-8.894875e-04
7.086393e+01	-8.997914e-04
7.127323e+01	-9.102146e-04
7.168490e+01	-9.207586e-04
7.209895e+01	-9.314247e-04
7.251539e+01	-9.422143e-04
7.293424e+01	-9.531290e-04
7.335551e+01	-9.641700e-04
7.377920e+01	-9.753389e-04
7.420535e+01	-9.866372e-04
7.463396e+01	-9.980663e-04
7.506504e+01	-1.009628e-03
7.549861e+01	-1.021323e-03
7.593469e+01	-1.033154e-03
7.637328e+01	-1.045122e-03
7.681441e+01	-1.057229e-03
7.725809e+01	-1.069475e-03
7.770433e+01	-1.081864e-03
7.815315e+01	-1.094396e-03
7.860456e+01	-1.107073e-03
7.905857e+01	-1.119898e-03
7.951521e+01	-1.132870e-03
7.997449e+01	-1.145993e-03
8.043642e+01	-1.159268e-03
8.090102e+01	-1.172697e-03
8.136830e+01	-1.186281e-03
8.183828e+01	-1.200022e-03
8.231097e+01	-1.213923e-03
8.278640e+01	-1.227984e-03
8.326457e+01	-1.242209e-03
8.374550e+01	-1.256598e-03
8.422921e+01	-1.271154e-03
8.471572e+01	-1.285879e-03
8.520503e+01	-1.300774e-03
8.569717e+01	-1.315841e-03
8.619215e+01	-1.331083e-03
8.669000e+01	-1.346502e-03
8.719071e+01	-1.362099e-03
8.769432e+01	-1.377877e-03
8.820084e+01	-1.393837e-03
8.871029e+01	-1.409982e-03
8.922267e+01	-1.426315e-03
8.973802e+01	-1.442836e-03
9.025634e+01	-1.459549e-03
9.077766e+01	-1.476456e-03
9.130199e+01	-1.493558e-03
9.182935e+01	-1.510858e-03
9.235975e+01	-1.528359e-03
9.289321e+01	-1.546062e-03
9.342976e+01	-1.563970e-03
9.396941e+01	-1.582086e-03
9.451217e+01	-1.600411e-03
9.505807e+01	-1.618949e-03
9.560712e+01	-1.637702e-03
9.615934e+01	-1.656671e-03
9.671476e+01	-1.675860e-03
9.727338e+01	-1.695272e-03
9.783522e+01	-1.714908e-03
9.840032e+01	-1.734772e-03
9.896867e+01	-1.754866e-03
9.954031e+01	-1.775192e-03
1.001153e+02	-1.795754e-03
1.006935e+02	-1.816554e-03
1.012751e+02	-1.837595e-03
1.018601e+02	-1.858879e-03
1.024484e+02	-1.880410e-03
1.030402e+02	-1.902190e-03
1.036353e+02	-1.924223e-03
1.042339e+02	-1.946511e-03
1.048360e+02	-1.969056e-03
1.054415e+02	-1.991863e-03
1.060505e+02	-2.014934e-03
1.066631e+02	-2.038272e-03
1.072791e+02	-2.061880e-03
1.078988e+02	-2.085762e-03
1.085220e+02	-2.109920e-03
1.091488e+02	-2.134358e-03
1.097793e+02	-2.159079e-03
1.104133e+02	-2.184086e-03
1.110511e+02	-2.209383e-03
1.116925e+02	-2.234973e-03
1.123376e+02	-2.260859e-03
1.129865e+02	-2.287045e-03
1.136391e+02	-2.313534e-03
1.142955e+02	-2.340329e-03
1.149556e+02	-2.367435e-03
1.156196e+02	-2.394855e-03
1.162874e+02	-2.422592e-03
1.169591e+02	-2.450651e-03
1.176347e+02	-2.479034e-03
1.183141e+02	-2.507746e-03
1.189975e+02	-2.536790e-03
1.196848e+02	-2.566171e-03
1.203761e+02	-2.595892e-03
1.210714e+02	-2.625957e-03
1.217707e+02	-2.656370e-03
1.224740e+02	-2.687135e-03
1.231814e+02	-2.718257e-03
1.238929e+02	-2.749738e-03
1.246085e+02	-2.781585e-03
1.253283e+02	-2.813800e-03
1.260522e+02	-2.846387e-03
1.267802e+02	-2.879353e-03
1.275125e+02	-2.912700e-03
1.282490e+02	-2.946432e-03
1.289898e+02	-2.980556e-03
1.297348e+02	-3.015074e-03
1.304842e+02	-3.049993e-03
1.312378e+02	-3.085315e-03
1.319959e+02	-3.121046e-03
1.327583e+02	-3.157191e-03
1.335251e+02	-3.193755e-03
1.342963e+02	-3.230741e-03
1.350720e+02	-3.268156e-03
1.358522e+02	-3.306004e-03
1.366368e+02	-3.344290e-03
1.374260e+02	-3.383020e-03
1.382198e+02	-3.422197e-03
1.390182e+02	-3.461829e-03
1.398211e+02	-3.501919e-03
1.406287e+02	-3.542473e-03
1.414410e+02	-3.583496e-03
1.422579e+02	-3.624995e-03
1.430796e+02	-3.666973e-03
1.439060e+02	-3.709438e-03
1.447372e+02	-3.752394e-03
1.455732e+02	-3.795848e-03
1.464141e+02	-3.839804e-03
1.472597e+02	-3.884269e-03
1.481103e+02	-3.929249e-03
1.489658e+02	-3.974750e-03
1.498262e+02	-4.020777e-03
1.506916e+02	-4.067337e-03
1.515620e+02	-4.114435e-03
1.524374e+02	-4.162079e-03
1.533179e+02	-4.210275e-03
1.542034e+02	-4.259028e-03
1.550941e+02	-4.308345e-03
1.559899e+02	-4.358233e-03
1.568909e+02	-4.408699e-03
1.577971e+02	-4.459749e-03
1.587085e+02	-4.511389e-03
1.596252e+02	-4.563627e-03
1.605472e+02	-4.616470e-03
1.614745e+02	-4.669924e-03
1.624072e+02	-4.723997e-03
1.633453e+02	-4.778695e-03
1.642887e+02	-4.834027e-03
1.652377e+02	-4.889999e-03
1.661921e+02	-4.946618e-03
1.671520e+02	-5.003893e-03
1.681175e+02	-5.061831e-03
1.690885e+02	-5.120438e-03
1.700651e+02	-5.179725e-03
1.710474e+02	-5.239697e-03
1.720354e+02	-5.300363e-03
1.730291e+02	-5.361731e-03
1.740285e+02	-5.423809e-03
1.750337e+02	-5.486605e-03
1.760446e+02	-5.550128e-03
1.770615e+02	-5.614386e-03
1.780842e+02	-5.679388e-03
1.791128e+02	-5.745141e-03
1.801473e+02	-5.811656e-03
1.811878e+02	-5.878940e-03
1.822344e+02	-5.947002e-03
1.832870e+02	-6.015852e-03
1.843456e+02	-6.085498e-03
1.854104e+02	-6.155950e-03
1.864813e+02	-6.227217e-03
1.875584e+02	-6.299308e-03
1.886418e+02	-6.372233e-03
1.897313e+02	-6.446002e-03
1.908272e+02	-6.520625e-03
1.919294e+02	-6.596110e-03
1.930380e+02	-6.672469e-03
1.941530e+02	-6.749711e-03
1.952744e+02	-6.827847e-03
1.964023e+02	-6.906886e-03
1.975367e+02	-6.986839e-03
1.986777e+02	-7.067718e-03
1.998252e+02	-7.149531e-03
2.009794e+02	-7.232291e-03
2.021403e+02	-7.316008e-03
2.033078e+02	-7.400694e-03
2.044821e+02	-7.486359e-03
2.056632e+02	-7.573014e-03
2.068511e+02	-7.660672e-03
2.080459e+02	-7.749343e-03
2.092475e+02	-7.839040e-03
2.104561e+02	-7.929774e-03
2.116717e+02	-8.021557e-03
2.128943e+02	-8.114402e-03
2.141240e+02	-8.208320e-03
2.153608e+02	-8.303325e-03
2.166047e+02	-8.399427e-03
2.178558e+02	-8.496641e-03
2.191141e+02	-8.594979e-03
2.203797e+02	-8.694455e-03
2.216526e+02	-8.795080e-03
2.229329e+02	-8.896868e-03
2.242205e+02	-8.999833e-03
2.255156e+02	-9.103989e-03
2.268182e+02	-9.209349e-03
2.281283e+02	-9.315927e-03
2.294459e+02	-9.423737e-03
2.307712e+02	-9.532793e-03
2.321041e+02	-9.643110e-03
2.334447e+02	-9.754702e-03
2.347931e+02	-9.867583e-03
2.361493e+02	-9.981770e-03
2.375133e+02	-1.009728e-02
2.388851e+02	-1.021412e-02
2.402649e+02	-1.033231e-02
2.416527e+02	-1.045187e-02
2.430484e+02	-1.057281e-02
2.444523e+02	-1.069514e-02
2.458642e+02	-1.081890e-02
2.472843e+02	-1.094408e-02
2.487126e+02	-1.107070e-02
2.501492e+02	-1.119880e-02
2.515940e+02	-1.132837e-02
2.530472e+02	-1.145943e-02
2.545088e+02	-1.159202e-02
2.559789e+02	-1.172613e-02
2.574574e+02	-1.186180e-02
2.589444e+02	-1.199903e-02
2.604401e+02	-1.213784e-02
2.619444e+02	-1.227826e-02
2.634574e+02	-1.242031e-02
2.649791e+02	-1.256399e-02
2.665096e+02	-1.270933e-02
2.680489e+02	-1.285636e-02
2.695972e+02	-1.300508e-02
2.711544e+02	-1.315551e-02
2.727205e+02	-1.330769e-02
2.742958e+02	-1.346162e-02
2.758801e+02	-1.361733e-02
2.774736e+02	-1.377484e-02
2.790762e+02	-1.393417e-02
2.806882e+02	-1.409534e-02
2.823094e+02	-1.425837e-02
2.839400e+02	-1.442328e-02
2.855800e+02	-1.459010e-02
2.872295e+02	-1.475884e-02
2.888886e+02	-1.492953e-02
2.905572e+02	-1.510219e-02
2.922354e+02	-1.527684e-02
2.939234e+02	-1.545351e-02
2.956211e+02	-1.563222e-02
2.973286e+02	-1.581299e-02
2.990459e+02	-1.599585e-02
3.007732e+02	-1.618082e-02
3.025104e+02	-1.636793e-02
3.042577e+02	-1.655719e-02
3.060151e+02	-1.674864e-02
3.077826e+02	-1.694229e-02
3.095604e+02	-1.713819e-02
3.113484e+02	-1.733634e-02
3.131467e+02	-1.753678e-02
3.149554e+02	-1.773953e-02
3.167746e+02	-1.794462e-02
3.186043e+02	-1.815208e-02
3.204445e+02	-1.836193e-02
3.222954e+02	-1.857420e-02
3.241570e+02	-1.878892e-02
3.260293e+02	-1.900611e-02
3.279124e+02	-1.922582e-02
3.298064e+02	-1.944805e-02
3.317114e+02	-1.967285e-02
3.336273e+02	-1.990024e-02
3.355544e+02	-2.013025e-02
3.374925e+02	-2.036292e-02
3.394418e+02	-2.059827e-02
3.414024e+02	-2.083633e-02
3.433744e+02	-2.107713e-02
3.453577e+02	-2.132072e-02
3.473525e+02	-2.156711e-02
3.493588e+02	-2.181634e-02
3.513766e+02	-2.206844e-02
3.534062e+02	-2.232345e-02
3.554474e+02	-2.258140e-02
3.575005e+02	-2.284232e-02
3.595654e+02	-2.310625e-02
3.616422e+02	-2.337321e-02
3.637311e+02	-2.364326e-02
3.658320e+02	-2.391642e-02
3.679450e+02	-2.419272e-02
3.700702e+02	-2.447220e-02
3.722077e+02	-2.475491e-02
3.743576e+02	-2.504087e-02
3.765199e+02	-2.533013e-02
3.786946e+02	-2.562272e-02
3.808820e+02	-2.591867e-02
3.830819e+02	-2.621804e-02
3.852946e+02	-2.652085e-02
3.875200e+02	-2.682715e-02
3.897583e+02	-2.713697e-02
3.920096e+02	-2.745036e-02
3.942738e+02	-2.776736e-02
3.965511e+02	-2.808801e-02
3.988416e+02	-2.841235e-02
4.011452e+02	-2.874042e-02
4.034622e+02	-2.907227e-02
4.057926e+02	-2.940793e-02
4.081365e+02	-2.974746e-02
4.104938e+02	-3.009090e-02
4.128648e+02	-3.043828e-02
4.152495e+02	-3.078966e-02
4.176480e+02	-3.114508e-02
4.200603e+02	-3.150460e-02
4.224866e+02	-3.186824e-02
4.249268e+02	-3.223607e-02
4.273812e+02	-3.260812e-02
4.298497e+02	-3.298446e-02
4.323325e+02	-3.336512e-02
4.348297e+02	-3.375016e-02
4.373412e+02	-3.413962e-02
4.398673e+02	-3.453356e-02
4.424079e+02	-3.493202e-02
4.449633e+02	-3.533507e-02
4.475334e+02	-3.574275e-02
4.501183e+02	-3.615511e-02
4.527182e+02	-3.657220e-02
4.553330e+02	-3.699409e-02
4.579630e+02	-3.742082e-02
4.606082e+02	-3.785246e-02
4.632687e+02	-3.828905e-02
4.659445e+02	-3.873066e-02
4.686358e+02	-3.917733e-02
4.713426e+02	-3.962913e-02
4.740650e+02	-4.008612e-02
4.768032e+02	-4.054836e-02
4.795572e+02	-4.101590e-02
4.823271e+02	-4.148880e-02
4.851130e+02	-4.196713e-02
4.879150e+02	-4.245095e-02
4.907332e+02	-4.294032e-02
4.935676e+02	-4.343530e-02
4.964185e+02	-4.393595e-02
4.992858e+02	-4.444235e-02
5.021696e+02	-4.495456e-02
5.050701e+02	-4.547263e-02
5.079874e+02	-4.599665e-02
5.109215e+02	-4.652667e-02
5.138726e+02	-4.706277e-02
5.168407e+02	-4.760501e-02
5.198259e+02	-4.815346e-02
5.228284e+02	-4.870819e-02
5.258482e+02	-4.926928e-02
5.288855e+02	-4.983680e-02
5.319403e+02	-5.041081e-02
5.350128e+02	-5.099140e-02
5.381030e+02	-5.157863e-02
5.412111e+02	-5.217259e-02
5.443371e+02	-5.277334e-02
5.474812e+02	-5.338097e-02
5.506434e+02	-5.399555e-02
5.538239e+02	-5.461716e-02
5.570228e+02	-5.524588e-02
5.602401e+02	-5.588180e-02
5.634760e+02	-5.652498e-02
5.667306e+02	-5.717552e-02
5.700040e+02	-5.783349e-02
5.732964e+02	-5.849899e-02
5.766077e+02	-5.917209e-02
5.799382e+02	-5.985289e-02
5.832879e+02	-6.054146e-02
5.866569e+02	-6.123789e-02
5.900454e+02	-6.194229e-02
5.934535e+02	-6.265472e-02
5.968813e+02	-6.337529e-02
6.003288e+02	-6.410408e-02
6.037963e+02	-6.484120e-02
6.072838e+02	-6.558672e-02
6.107914e+02	-6.634075e-02
6.143194e+02	-6.710338e-02
6.178676e+02	-6.787471e-02
6.214364e+02	-6.865484e-02
6.250258e+02	-6.944386e-02
6.286359e+02	-7.024187e-02
6.322669e+02	-7.104898e-02
6.359189e+02	-7.186529e-02
6.395919e+02	-7.269089e-02
6.432862e+02	-7.352590e-02
6.470017e+02	-7.437042e-02
6.507388e+02	-7.522456e-02
6.544974e+02	-7.608842e-02
6.582778e+02	-7.696211e-02
6.620800e+02	-7.784575e-02
6.659041e+02	-7.873943e-02
6.697504e+02	-7.964328e-02
6.736188e+02	-8.055742e-02
6.775096e+02	-8.148194e-02
6.814229e+02	-8.241697e-02
6.853587e+02	-8.336263e-02
6.893173e+02	-8.431904e-02
6.932988e+02	-8.528631e-02
6.973033e+02	-8.626456e-02
7.013309e+02	-8.725393e-02
