Frequency(Hz)	Magnitude(dB)
1.000000e+01	-1.663567e-05
1.005776e+01	-1.682840e-05
1.011585e+01	-1.702336e-05
1.017428e+01	-1.722058e-05
1.023305e+01	-1.742008e-05
1.029215e+01	-1.762190e-05
1.035160e+01	-1.782605e-05
1.041139e+01	-1.803257e-05
1.047153e+01	-1.824148e-05
1.053201e+01	-1.845282e-05
1.059284e+01	-1.866660e-05
1.065403e+01	-1.888285e-05
1.071556e+01	-1.910162e-05
1.077746e+01	-1.932291e-05
1.083971e+01	-1.954677e-05
1.090232e+01	-1.977323e-05
1.096529e+01	-2.000231e-05
1.102862e+01	-2.023404e-05
1.109232e+01	-2.046845e-05
1.115639e+01	-2.070559e-05
1.122083e+01	-2.094547e-05
1.128564e+01	-2.118812e-05
1.135083e+01	-2.143359e-05
1.141639e+01	-2.168191e-05
1.148233e+01	-2.193310e-05
1.154865e+01	-2.218720e-05
1.161536e+01	-2.244424e-05
1.168245e+01	-2.270426e-05
1.174992e+01	-2.296730e-05
1.181779e+01	-2.323338e-05
1.188605e+01	-2.350255e-05
1.195470e+01	-2.377483e-05
1.202375e+01	-2.405027e-05
1.209320e+01	-2.432889e-05
1.216305e+01	-2.461075e-05
1.223330e+01	-2.489587e-05
1.230396e+01	-2.518430e-05
1.237503e+01	-2.547606e-05
1.244651e+01	-2.577121e-05
1.251840e+01	-2.606978e-05
1.259070e+01	-2.637180e-05
1.266343e+01	-2.667732e-05
1.273657e+01	-2.698639e-05
1.281014e+01	-2.729903e-05
1.288413e+01	-2.761530e-05
1.295855e+01	-2.793523e-05
1.303339e+01	-2.825886e-05
1.310867e+01	-2.858625e-05
1.318439e+01	-2.891743e-05
1.326054e+01	-2.925244e-05
1.333713e+01	-2.959134e-05
1.341417e+01	-2.993416e-05
1.349165e+01	-3.028096e-05
1.356958e+01	-3.063177e-05
1.364795e+01	-3.098665e-05
1.372678e+01	-3.134563e-05
1.380607e+01	-3.170878e-05
1.388581e+01	-3.207613e-05
1.396602e+01	-3.244774e-05
1.404668e+01	-3.282366e-05
1.412782e+01	-3.320393e-05
1.420942e+01	-3.358860e-05
1.429149e+01	-3.397773e-05
1.437404e+01	-3.437137e-05
1.445706e+01	-3.476957e-05
1.454057e+01	-3.517239e-05
1.462455e+01	-3.557987e-05
1.470902e+01	-3.599207e-05
1.479398e+01	-3.640905e-05
1.487943e+01	-3.683085e-05
1.496537e+01	-3.725755e-05
1.505181e+01	-3.768918e-05
1.513875e+01	-3.812582e-05
1.522619e+01	-3.856752e-05
1.531414e+01	-3.901433e-05
1.540259e+01	-3.946632e-05
1.549156e+01	-3.992355e-05
1.558103e+01	-4.038607e-05
1.567103e+01	-4.085395e-05
1.576155e+01	-4.132726e-05
1.585258e+01	-4.180604e-05
1.594415e+01	-4.229037e-05
1.603624e+01	-4.278032e-05
1.612886e+01	-4.327594e-05
1.622202e+01	-4.377730e-05
1.631572e+01	-4.428447e-05
1.640996e+01	-4.479751e-05
1.650474e+01	-4.531650e-05
1.660008e+01	-4.584150e-05
1.669596e+01	-4.637259e-05
1.679239e+01	-4.690982e-05
1.688938e+01	-4.745328e-05
1.698694e+01	-4.800304e-05
1.708505e+01	-4.855917e-05
1.718373e+01	-4.912174e-05
1.728299e+01	-4.969082e-05
1.738281e+01	-5.026650e-05
1.748322e+01	-5.084885e-05
1.758420e+01	-5.143794e-05
1.768576e+01	-5.203386e-05
1.778792e+01	-5.263668e-05
1.789066e+01	-5.324649e-05
1.799399e+01	-5.386336e-05
1.809793e+01	-5.448738e-05
1.820246e+01	-5.511863e-05
1.830760e+01	-5.575719e-05
1.841334e+01	-5.640315e-05
1.851969e+01	-5.705659e-05
1.862666e+01	-5.771760e-05
1.873425e+01	-5.838627e-05
1.884246e+01	-5.906269e-05
1.895129e+01	-5.974694e-05
1.906075e+01	-6.043912e-05
1.917085e+01	-6.113932e-05
1.928158e+01	-6.184763e-05
1.939295e+01	-6.256415e-05
1.950496e+01	-6.328897e-05
1.961762e+01	-6.402218e-05
1.973093e+01	-6.476389e-05
1.984490e+01	-6.551419e-05
1.995952e+01	-6.627319e-05
2.007480e+01	-6.704098e-05
2.019076e+01	-6.781766e-05
2.030738e+01	-6.860334e-05
2.042467e+01	-6.939812e-05
2.054264e+01	-7.020211e-05
2.066130e+01	-7.101542e-05
2.078064e+01	-7.183814e-05
2.090066e+01	-7.267040e-05
2.102139e+01	-7.351230e-05
2.114280e+01	-7.436395e-05
2.126492e+01	-7.522547e-05
2.138775e+01	-7.609697e-05
2.151128e+01	-7.697857e-05
2.163553e+01	-7.787038e-05
2.176050e+01	-7.877252e-05
2.188619e+01	-7.968512e-05
2.201260e+01	-8.060828e-05
2.213974e+01	-8.154214e-05
2.226762e+01	-8.248682e-05
2.239624e+01	-8.344245e-05
2.252560e+01	-8.440914e-05
2.265571e+01	-8.538703e-05
2.278656e+01	-8.637626e-05
2.291818e+01	-8.737694e-05
2.305055e+01	-8.838922e-05
2.318369e+01	-8.941322e-05
2.331760e+01	-9.044909e-05
2.345228e+01	-9.149695e-05
2.358774e+01	-9.255696e-05
2.372398e+01	-9.362925e-05
2.386101e+01	-9.471396e-05
2.399883e+01	-9.581123e-05
2.413745e+01	-9.692122e-05
2.427686e+01	-9.804407e-05
2.441709e+01	-9.917992e-05
2.455812e+01	-1.003289e-04
2.469997e+01	-1.014913e-04
2.484263e+01	-1.026671e-04
2.498612e+01	-1.038565e-04
2.513044e+01	-1.050597e-04
2.527559e+01	-1.062768e-04
2.542158e+01	-1.075080e-04
2.556842e+01	-1.087535e-04
2.571610e+01	-1.100134e-04
2.586463e+01	-1.112880e-04
2.601403e+01	-1.125772e-04
2.616428e+01	-1.138815e-04
2.631541e+01	-1.152008e-04
2.646740e+01	-1.165354e-04
2.662028e+01	-1.178855e-04
2.677404e+01	-1.192512e-04
2.692868e+01	-1.206327e-04
2.708422e+01	-1.220303e-04
2.724066e+01	-1.234440e-04
2.739800e+01	-1.248741e-04
2.755625e+01	-1.263208e-04
2.771541e+01	-1.277843e-04
2.787550e+01	-1.292646e-04
2.803650e+01	-1.307622e-04
2.819844e+01	-1.322771e-04
2.836131e+01	-1.338095e-04
2.852513e+01	-1.353597e-04
2.868989e+01	-1.369279e-04
2.885560e+01	-1.385142e-04
2.902227e+01	-1.401189e-04
2.918990e+01	-1.417422e-04
2.935850e+01	-1.433843e-04
2.952807e+01	-1.450454e-04
2.969863e+01	-1.467258e-04
2.987016e+01	-1.484256e-04
3.004269e+01	-1.501451e-04
3.021622e+01	-1.518846e-04
3.039075e+01	-1.536442e-04
3.056628e+01	-1.554241e-04
3.074283e+01	-1.572247e-04
3.092040e+01	-1.590462e-04
3.109900e+01	-1.608888e-04
3.127862e+01	-1.627527e-04
3.145929e+01	-1.646382e-04
3.164099e+01	-1.665455e-04
3.182375e+01	-1.684749e-04
3.200756e+01	-1.704267e-04
3.219244e+01	-1.724011e-04
3.237838e+01	-1.743984e-04
3.256540e+01	-1.764188e-04
3.275349e+01	-1.784626e-04
3.294268e+01	-1.805301e-04
3.313295e+01	-1.826216e-04
3.332433e+01	-1.847373e-04
3.351681e+01	-1.868775e-04
3.371040e+01	-1.890424e-04
3.390511e+01	-1.912325e-04
3.410094e+01	-1.934479e-04
3.429791e+01	-1.956890e-04
3.449601e+01	-1.979561e-04
3.469526e+01	-2.002494e-04
3.489566e+01	-2.025693e-04
3.509721e+01	-2.049161e-04
3.529993e+01	-2.072900e-04
3.550382e+01	-2.096915e-04
3.570889e+01	-2.121208e-04
3.591515e+01	-2.145782e-04
3.612259e+01	-2.170641e-04
3.633123e+01	-2.195787e-04
3.654108e+01	-2.221226e-04
3.675214e+01	-2.246958e-04
3.696442e+01	-2.272989e-04
3.717792e+01	-2.299322e-04
3.739266e+01	-2.325959e-04
3.760864e+01	-2.352906e-04
3.782587e+01	-2.380164e-04
3.804435e+01	-2.407738e-04
3.826409e+01	-2.435632e-04
3.848510e+01	-2.463848e-04
3.870739e+01	-2.492392e-04
3.893096e+01	-2.521266e-04
3.915583e+01	-2.550475e-04
3.938199e+01	-2.580022e-04
3.960946e+01	-2.609911e-04
3.983824e+01	-2.640147e-04
4.006834e+01	-2.670733e-04
4.029978e+01	-2.701673e-04
4.053255e+01	-2.732972e-04
4.076666e+01	-2.764633e-04
4.100213e+01	-2.796661e-04
4.123896e+01	-2.829060e-04
4.147715e+01	-2.861834e-04
4.171672e+01	-2.894988e-04
4.195767e+01	-2.928526e-04
4.220002e+01	-2.962453e-04
4.244377e+01	-2.996773e-04
4.268892e+01	-3.031490e-04
4.293549e+01	-3.066609e-04
4.318348e+01	-3.102135e-04
4.343291e+01	-3.138073e-04
4.368377e+01	-3.174427e-04
4.393609e+01	-3.211203e-04
4.418986e+01	-3.248404e-04
4.444510e+01	-3.286036e-04
4.470182e+01	-3.324104e-04
4.496001e+01	-3.362614e-04
4.521970e+01	-3.401569e-04
4.548089e+01	-3.440975e-04
4.574358e+01	-3.480838e-04
4.600779e+01	-3.521163e-04
4.627353e+01	-3.561955e-04
4.654081e+01	-3.603220e-04
4.680963e+01	-3.644962e-04
4.708000e+01	-3.687188e-04
4.735193e+01	-3.729904e-04
4.762543e+01	-3.773114e-04
4.790051e+01	-3.816824e-04
4.817719e+01	-3.861041e-04
4.845545e+01	-3.905771e-04
4.873533e+01	-3.951018e-04
4.901682e+01	-3.996790e-04
4.929994e+01	-4.043091e-04
4.958470e+01	-4.089930e-04
4.987110e+01	-4.137310e-04
5.015915e+01	-4.185240e-04
5.044887e+01	-4.233725e-04
5.074026e+01	-4.282771e-04
5.103333e+01	-4.332386e-04
5.132810e+01	-4.382575e-04
5.162457e+01	-4.433346e-04
5.192275e+01	-4.484705e-04
5.222265e+01	-4.536658e-04
5.252429e+01	-4.589214e-04
5.282767e+01	-4.642379e-04
5.313280e+01	-4.696159e-04
5.343969e+01	-4.750562e-04
5.374836e+01	-4.805596e-04
5.405880e+01	-4.861267e-04
5.437105e+01	-4.917583e-04
5.468509e+01	-4.974551e-04
5.500095e+01	-5.032179e-04
5.531863e+01	-5.090475e-04
5.563815e+01	-5.149446e-04
5.595951e+01	-5.209100e-04
5.628273e+01	-5.269445e-04
5.660782e+01	-5.330490e-04
5.693479e+01	-5.392241e-04
5.726364e+01	-5.454708e-04
5.759439e+01	-5.517898e-04
5.792705e+01	-5.581820e-04
5.826164e+01	-5.646483e-04
5.859815e+01	-5.711895e-04
5.893662e+01	-5.778064e-04
5.927703e+01	-5.845000e-04
5.961941e+01	-5.912712e-04
5.996377e+01	-5.981207e-04
6.031012e+01	-6.050496e-04
6.065847e+01	-6.120588e-04
6.100883e+01	-6.191492e-04
6.136121e+01	-6.263217e-04
6.171563e+01	-6.335772e-04
6.207210e+01	-6.409169e-04
6.243063e+01	-6.483415e-04
6.279122e+01	-6.558522e-04
6.315390e+01	-6.634498e-04
6.351868e+01	-6.711355e-04
6.388556e+01	-6.789101e-04
6.425456e+01	-6.867749e-04
6.462569e+01	-6.947307e-04
6.499897e+01	-7.027787e-04
6.537440e+01	-7.109199e-04
6.575200e+01	-7.191555e-04
6.613178e+01	-7.274864e-04
6.651375e+01	-7.359138e-04
6.689793e+01	-7.444388e-04
6.728433e+01	-7.530626e-04
6.767297e+01	-7.617863e-04
6.806384e+01	-7.706110e-04
6.845698e+01	-7.795379e-04
6.885238e+01	-7.885683e-04
6.925007e+01	-7.977032e-04
6.965005e+01	-8.069440e-04
7.005235e+01	-8.162917e-04
7.045697e+01	-8.257478e-04
7.086393e+01	-8.353134e-04
7.127323e+01	-8.449898e-04
7.168490e+01	-8.547783e-04
7.209895e+01	-8.646801e-04
7.251539e+01	-8.746967e-04
7.293424e+01	-8.848292e-04
7.335551e+01	-8.950792e-04
7.377920e+01	-9.054478e-04
7.420535e+01	-9.159366e-04
7.463396e+01	-9.265468e-04
7.506504e+01	-9.372800e-04
7.549861e+01	-9.481374e-04
7.593469e+01	-9.591206e-04
7.637328e+01	-9.702311e-04
7.681441e+01	-9.814702e-04
7.725809e+01	-9.928395e-04
7.770433e+01	-1.004340e-03
7.815315e+01	-1.015975e-03
7.860456e+01	-1.027744e-03
7.905857e+01	-1.039649e-03
7.951521e+01	-1.051692e-03
7.997449e+01	-1.063875e-03
8.043642e+01	-1.076198e-03
8.090102e+01	-1.088665e-03
8.136830e+01	-1.101276e-03
8.183828e+01	-1.114033e-03
8.231097e+01	-1.126937e-03
8.278640e+01	-1.139992e-03
8.326457e+01	-1.153197e-03
8.374550e+01	-1.166555e-03
8.422921e+01	-1.180068e-03
8.471572e+01	-1.193738e-03
8.520503e+01	-1.207566e-03
8.569717e+01	-1.221554e-03
8.619215e+01	-1.235704e-03
8.669000e+01	-1.250018e-03
8.719071e+01	-1.264497e-03
8.769432e+01	-1.279145e-03
8.820084e+01	-1.293962e-03
8.871029e+01	-1.308950e-03
8.922267e+01	-1.324113e-03
8.973802e+01	-1.339450e-03
9.025634e+01	-1.354966e-03
9.077766e+01	-1.370661e-03
9.130199e+01	-1.386538e-03
9.182935e+01	-1.402599e-03
9.235975e+01	-1.418846e-03
9.289321e+01	-1.435281e-03
9.342976e+01	-1.451906e-03
9.396941e+01	-1.468724e-03
9.451217e+01	-1.485736e-03
9.505807e+01	-1.502946e-03
9.560712e+01	-1.520355e-03
9.615934e+01	-1.537966e-03
9.671476e+01	-1.555780e-03
9.727338e+01	-1.573801e-03
9.783522e+01	-1.592031e-03
9.840032e+01	-1.610471e-03
9.896867e+01	-1.629126e-03
9.954031e+01	-1.647996e-03
1.001153e+02	-1.667085e-03
1.006935e+02	-1.686395e-03
1.012751e+02	-1.705928e-03
1.018601e+02	-1.725688e-03
1.024484e+02	-1.745676e-03
1.030402e+02	-1.765896e-03
1.036353e+02	-1.786351e-03
1.042339e+02	-1.807042e-03
1.048360e+02	-1.827972e-03
1.054415e+02	-1.849145e-03
1.060505e+02	-1.870563e-03
1.066631e+02	-1.892230e-03
1.072791e+02	-1.914147e-03
1.078988e+02	-1.936318e-03
1.085220e+02	-1.958746e-03
1.091488e+02	-1.981433e-03
1.097793e+02	-2.004383e-03
1.104133e+02	-2.027599e-03
1.110511e+02	-2.051084e-03
1.116925e+02	-2.074840e-03
1.123376e+02	-2.098872e-03
1.129865e+02	-2.123182e-03
1.136391e+02	-2.147774e-03
1.142955e+02	-2.172650e-03
1.149556e+02	-2.197814e-03
1.156196e+02	-2.223270e-03
1.162874e+02	-2.249021e-03
1.169591e+02	-2.275069e-03
1.176347e+02	-2.301420e-03
1.183141e+02	-2.328075e-03
1.189975e+02	-2.355039e-03
1.196848e+02	-2.382315e-03
1.203761e+02	-2.409907e-03
1.210714e+02	-2.437819e-03
1.217707e+02	-2.466054e-03
1.224740e+02	-2.494615e-03
1.231814e+02	-2.523508e-03
1.238929e+02	-2.552735e-03
1.246085e+02	-2.582300e-03
1.253283e+02	-2.612207e-03
1.260522e+02	-2.642461e-03
1.267802e+02	-2.673066e-03
1.275125e+02	-2.704024e-03
1.282490e+02	-2.735341e-03
1.289898e+02	-2.767021e-03
1.297348e+02	-2.799067e-03
1.304842e+02	-2.831484e-03
1.312378e+02	-2.864277e-03
1.319959e+02	-2.897449e-03
1.327583e+02	-2.931006e-03
1.335251e+02	-2.964950e-03
1.342963e+02	-2.999288e-03
1.350720e+02	-3.034024e-03
1.358522e+02	-3.069161e-03
1.366368e+02	-3.104705e-03
1.374260e+02	-3.140661e-03
1.382198e+02	-3.177033e-03
1.390182e+02	-3.213826e-03
1.398211e+02	-3.251045e-03
1.406287e+02	-3.288695e-03
1.414410e+02	-3.326781e-03
1.422579e+02	-3.365308e-03
1.430796e+02	-3.404281e-03
1.439060e+02	-3.443704e-03
1.447372e+02	-3.483585e-03
1.455732e+02	-3.523926e-03
1.464141e+02	-3.564735e-03
1.472597e+02	-3.606016e-03
1.481103e+02	-3.647775e-03
1.489658e+02	-3.690018e-03
1.498262e+02	-3.732749e-03
1.506916e+02	-3.775975e-03
1.515620e+02	-3.819702e-03
1.524374e+02	-3.863934e-03
1.533179e+02	-3.908679e-03
1.542034e+02	-3.953941e-03
1.550941e+02	-3.999727e-03
1.559899e+02	-4.046044e-03
1.568909e+02	-4.092896e-03
1.577971e+02	-4.140291e-03
1.587085e+02	-4.188234e-03
1.596252e+02	-4.236732e-03
1.605472e+02	-4.285791e-03
1.614745e+02	-4.335418e-03
1.624072e+02	-4.385620e-03
1.633453e+02	-4.436402e-03
1.642887e+02	-4.487773e-03
1.652377e+02	-4.539737e-03
1.661921e+02	-4.592304e-03
1.671520e+02	-4.645478e-03
1.681175e+02	-4.699268e-03
1.690885e+02	-4.753680e-03
1.700651e+02	-4.808722e-03
1.710474e+02	-4.864401e-03
1.720354e+02	-4.920725e-03
1.730291e+02	-4.977700e-03
1.740285e+02	-5.035334e-03
1.750337e+02	-5.093636e-03
1.760446e+02	-5.152612e-03
1.770615e+02	-5.212270e-03
1.780842e+02	-5.272619e-03
1.791128e+02	-5.333666e-03
1.801473e+02	-5.395419e-03
1.811878e+02	-5.457887e-03
1.822344e+02	-5.521078e-03
1.832870e+02	-5.585000e-03
1.843456e+02	-5.649661e-03
1.854104e+02	-5.715071e-03
1.864813e+02	-5.781237e-03
1.875584e+02	-5.848169e-03
1.886418e+02	-5.915875e-03
1.897313e+02	-5.984365e-03
1.908272e+02	-6.053647e-03
1.919294e+02	-6.123730e-03
1.930380e+02	-6.194625e-03
1.941530e+02	-6.266339e-03
1.952744e+02	-6.338883e-03
1.964023e+02	-6.412266e-03
1.975367e+02	-6.486498e-03
1.986777e+02	-6.561589e-03
1.998252e+02	-6.637548e-03
2.009794e+02	-6.714387e-03
2.021403e+02	-6.792113e-03
2.033078e+02	-6.870739e-03
2.044821e+02	-6.950275e-03
2.056632e+02	-7.030730e-03
2.068511e+02	-7.112116e-03
2.080459e+02	-7.194443e-03
2.092475e+02	-7.277723e-03
2.104561e+02	-7.361965e-03
2.116717e+02	-7.447182e-03
2.128943e+02	-7.533385e-03
2.141240e+02	-7.620584e-03
2.153608e+02	-7.708792e-03
2.166047e+02	-7.798020e-03
2.178558e+02	-7.888279e-03
2.191141e+02	-7.979583e-03
2.203797e+02	-8.071942e-03
2.216526e+02	-8.165369e-03
2.229329e+02	-8.259877e-03
2.242205e+02	-8.355477e-03
2.255156e+02	-8.452183e-03
2.268182e+02	-8.550007e-03
2.281283e+02	-8.648962e-03
2.294459e+02	-8.749061e-03
2.307712e+02	-8.850318e-03
2.321041e+02	-8.952745e-03
2.334447e+02	-9.056356e-03
2.347931e+02	-9.161166e-03
2.361493e+02	-9.267186e-03
2.375133e+02	-9.374433e-03
2.388851e+02	-9.482919e-03
2.402649e+02	-9.592659e-03
2.416527e+02	-9.703668e-03
2.430484e+02	-9.815960e-03
2.444523e+02	-9.929550e-03
2.458642e+02	-1.004445e-02
2.472843e+02	-1.016068e-02
2.487126e+02	-1.027826e-02
2.501492e+02	-1.039719e-02
2.515940e+02	-1.051750e-02
2.530472e+02	-1.063920e-02
2.545088e+02	-1.076230e-02
2.559789e+02	-1.088683e-02
2.574574e+02	-1.101279e-02
2.589444e+02	-1.114022e-02
2.604401e+02	-1.126911e-02
2.619444e+02	-1.139949e-02
2.634574e+02	-1.153138e-02
2.649791e+02	-1.166480e-02
2.665096e+02	-1.179975e-02
2.680489e+02	-1.193627e-02
2.695972e+02	-1.207436e-02
2.711544e+02	-1.221405e-02
2.727205e+02	-1.235535e-02
2.742958e+02	-1.249828e-02
2.758801e+02	-1.264287e-02
2.774736e+02	-1.278912e-02
2.790762e+02	-1.293706e-02
2.806882e+02	-1.308672e-02
2.823094e+02	-1.323810e-02
2.839400e+02	-1.339123e-02
2.855800e+02	-1.354612e-02
2.872295e+02	-1.370281e-02
2.888886e+02	-1.386131e-02
2.905572e+02	-1.402163e-02
2.922354e+02	-1.418381e-02
2.939234e+02	-1.434786e-02
2.956211e+02	-1.451381e-02
2.973286e+02	-1.468167e-02
2.990459e+02	-1.485147e-02
3.007732e+02	-1.502323e-02
3.025104e+02	-1.519697e-02
3.042577e+02	-1.537272e-02
3.060151e+02	-1.555049e-02
3.077826e+02	-1.573032e-02
3.095604e+02	-1.591223e-02
3.113484e+02	-1.609623e-02
3.131467e+02	-1.628236e-02
3.149554e+02	-1.647064e-02
3.167746e+02	-1.666108e-02
3.186043e+02	-1.685373e-02
3.204445e+02	-1.704860e-02
3.222954e+02	-1.724572e-02
3.241570e+02	-1.744511e-02
3.260293e+02	-1.764681e-02
3.279124e+02	-1.785083e-02
3.298064e+02	-1.805720e-02
3.317114e+02	-1.826596e-02
3.336273e+02	-1.847712e-02
3.355544e+02	-1.869072e-02
3.374925e+02	-1.890679e-02
3.394418e+02	-1.912534e-02
3.414024e+02	-1.934642e-02
3.433744e+02	-1.957004e-02
3.453577e+02	-1.979625e-02
3.473525e+02	-2.002506e-02
3.493588e+02	-2.025652e-02
3.513766e+02	-2.049064e-02
3.534062e+02	-2.072746e-02
3.554474e+02	-2.096701e-02
3.575005e+02	-2.120932e-02
3.595654e+02	-2.145443e-02
3.616422e+02	-2.170236e-02
3.637311e+02	-2.195315e-02
3.658320e+02	-2.220683e-02
3.679450e+02	-2.246343e-02
3.700702e+02	-2.272299e-02
3.722077e+02	-2.298555e-02
3.743576e+02	-2.325113e-02
3.765199e+02	-2.351976e-02
3.786946e+02	-2.379150e-02
3.808820e+02	-2.406636e-02
3.830819e+02	-2.434439e-02
3.852946e+02	-2.462563e-02
3.875200e+02	-2.491010e-02
3.897583e+02	-2.519785e-02
3.920096e+02	-2.548891e-02
3.942738e+02	-2.578333e-02
3.965511e+02	-2.608113e-02
3.988416e+02	-2.638237e-02
4.011452e+02	-2.668707e-02
4.034622e+02	-2.699529e-02
4.057926e+02	-2.730705e-02
4.081365e+02	-2.762240e-02
4.104938e+02	-2.794138e-02
4.128648e+02	-2.826403e-02
4.152495e+02	-2.859039e-02
4.176480e+02	-2.892051e-02
4.200603e+02	-2.925443e-02
4.224866e+02	-2.959219e-02
4.249268e+02	-2.993384e-02
4.273812e+02	-3.027942e-02
4.298497e+02	-3.062897e-02
4.323325e+02	-3.098255e-02
4.348297e+02	-3.134019e-02
4.373412e+02	-3.170194e-02
4.398673e+02	-3.206786e-02
4.424079e+02	-3.243798e-02
4.449633e+02	-3.281236e-02
4.475334e+02	-3.319104e-02
4.501183e+02	-3.357408e-02
4.527182e+02	-3.396151e-02
4.553330e+02	-3.435341e-02
4.579630e+02	-3.474980e-02
4.606082e+02	-3.515075e-02
4.632687e+02	-3.555631e-02
4.659445e+02	-3.596653e-02
4.686358e+02	-3.638146e-02
4.713426e+02	-3.680116e-02
4.740650e+02	-3.722568e-02
4.768032e+02	-3.765507e-02
4.795572e+02	-3.808939e-02
4.823271e+02	-3.852871e-02
4.851130e+02	-3.897306e-02
4.879150e+02	-3.942252e-02
4.907332e+02	-3.987714e-02
4.935676e+02	-4.033697e-02
4.964185e+02	-4.080209e-02
4.992858e+02	-4.127254e-02
5.021696e+02	-4.174839e-02
5.050701e+02	-4.222969e-02
5.079874e+02	-4.271652e-02
5.109215e+02	-4.320894e-02
5.138726e+02	-4.370700e-02
5.168407e+02	-4.421077e-02
5.198259e+02	-4.472032e-02
5.228284e+02	-4.523571e-02
5.258482e+02	-4.575701e-02
5.288855e+02	-4.628429e-02
5.319403e+02	-4.681761e-02
5.350128e+02	-4.735704e-02
5.381030e+02	-4.790265e-02
5.412111e+02	-4.845451e-02
5.443371e+02	-4.901269e-02
5.474812e+02	-4.957727e-02
5.506434e+02	-5.014831e-02
5.538239e+02	-5.072589e-02
5.570228e+02	-5.131009e-02
5.602401e+02	-5.190097e-02
5.634760e+02	-5.249861e-02
5.667306e+02	-5.310310e-02
5.700040e+02	-5.371450e-02
5.732964e+02	-5.433290e-02
5.766077e+02	-5.495837e-02
5.799382e+02	-5.559099e-02
5.832879e+02	-5.623085e-02
5.866569e+02	-5.687803e-02
5.900454e+02	-5.753260e-02
5.934535e+02	-5.819466e-02
5.968813e+02	-5.886429e-02
6.003288e+02	-5.954156e-02
6.037963e+02	-6.022658e-02
6.072838e+02	-6.091942e-02
6.107914e+02	-6.162017e-02
6.143194e+02	-6.232893e-02
6.178676e+02	-6.304578e-02
6.214364e+02	-6.377081e-02
6.250258e+02	-6.450412e-02
6.286359e+02	-6.524579e-02
6.322669e+02	-6.599594e-02
6.359189e+02	-6.675463e-02
6.395919e+02	-6.752199e-02
6.432862e+02	-6.829809e-02
6.470017e+02	-6.908304e-02
6.507388e+02	-6.987694e-02
6.544974e+02	-7.067990e-02
6.582778e+02	-7.149200e-02
6.620800e+02	-7.231335e-02
6.659041e+02	-7.314406e-02
6.697504e+02	-7.398423e-02
6.736188e+02	-7.483397e-02
6.775096e+02	-7.569339e-02
6.814229e+02	-7.656258e-02
6.853587e+02	-7.744167e-02
6.893173e+02	-7.833076e-02
6.932988e+02	-7.922996e-02
6.973033e+02	-8.013939e-02
7.013309e+02	-8.105917e-02
