Frequency(Hz)	Magnitude(dB)
1.000000e+01	-2.171235e+00
1.005776e+01	-2.190901e+00
1.011585e+01	-2.211089e+00
1.017428e+01	-2.230970e+00
1.023305e+01	-2.251334e+00
1.029215e+01	-2.271314e+00
1.035160e+01	-2.291663e+00
1.041139e+01	-2.312409e+00
1.047153e+01	-2.333087e+00
1.053201e+01	-2.354237e+00
1.059284e+01	-2.374881e+00
1.065403e+01	-2.396067e+00
1.071556e+01	-2.417616e+00
1.077746e+01	-2.438855e+00
1.083971e+01	-2.460465e+00
1.090232e+01	-2.482226e+00
1.096529e+01	-2.504113e+00
1.102862e+01	-2.526156e+00
1.109232e+01	-2.548166e+00
1.115639e+01	-2.570510e+00
1.122083e+01	-2.592615e+00
1.128564e+01	-2.615503e+00
1.135083e+01	-2.638035e+00
1.141639e+01	-2.661068e+00
1.148233e+01	-2.684094e+00
1.154865e+01	-2.707179e+00
1.161536e+01	-2.730436e+00
1.168245e+01	-2.753540e+00
1.174992e+01	-2.777060e+00
1.181779e+01	-2.800975e+00
1.188605e+01	-2.825124e+00
1.195470e+01	-2.848954e+00
1.202375e+01	-2.873023e+00
1.209320e+01	-2.897276e+00
1.216305e+01	-2.921702e+00
1.223330e+01	-2.946373e+00
1.230396e+01	-2.970980e+00
1.237503e+01	-2.996005e+00
1.244651e+01	-3.020891e+00
1.251840e+01	-3.046056e+00
1.259070e+01	-3.071300e+00
1.266343e+01	-3.096925e+00
1.273657e+01	-3.122421e+00
1.281014e+01	-3.148213e+00
1.288413e+01	-3.173854e+00
1.295855e+01	-3.200062e+00
1.303339e+01	-3.225998e+00
1.310867e+01	-3.252443e+00
1.318439e+01	-3.278782e+00
1.326054e+01	-3.305252e+00
1.333713e+01	-3.332111e+00
1.341417e+01	-3.358944e+00
1.349165e+01	-3.385974e+00
1.356958e+01	-3.413244e+00
1.364795e+01	-3.440247e+00
1.372678e+01	-3.467990e+00
1.380607e+01	-3.495466e+00
1.388581e+01	-3.523527e+00
1.396602e+01	-3.551220e+00
1.404668e+01	-3.579056e+00
1.412782e+01	-3.607430e+00
1.420942e+01	-3.635558e+00
1.429149e+01	-3.663817e+00
1.437404e+01	-3.692562e+00
1.445706e+01	-3.721330e+00
1.454057e+01	-3.749992e+00
1.462455e+01	-3.779122e+00
1.470902e+01	-3.808676e+00
1.479398e+01	-3.837359e+00
1.487943e+01	-3.867122e+00
1.496537e+01	-3.896575e+00
1.505181e+01	-3.926449e+00
1.513875e+01	-3.956115e+00
1.522619e+01	-3.986164e+00
1.531414e+01	-4.016443e+00
1.540259e+01	-4.046475e+00
1.549156e+01	-4.076716e+00
1.558103e+01	-4.107342e+00
1.567103e+01	-4.137970e+00
1.576155e+01	-4.169019e+00
1.585258e+01	-4.199609e+00
1.594415e+01	-4.230800e+00
1.603624e+01	-4.261830e+00
1.612886e+01	-4.293376e+00
1.622202e+01	-4.324910e+00
1.631572e+01	-4.356258e+00
1.640996e+01	-4.388067e+00
1.650474e+01	-4.420103e+00
1.660008e+01	-4.452216e+00
1.669596e+01	-4.484304e+00
1.679239e+01	-4.516538e+00
1.688938e+01	-4.548882e+00
1.698694e+01	-4.581047e+00
1.708505e+01	-4.614199e+00
1.718373e+01	-4.647019e+00
1.728299e+01	-4.679828e+00
1.738281e+01	-4.712915e+00
1.748322e+01	-4.746181e+00
1.758420e+01	-4.779159e+00
1.768576e+01	-4.812754e+00
1.778792e+01	-4.846532e+00
1.789066e+01	-4.880089e+00
1.799399e+01	-4.913963e+00
1.809793e+01	-4.947439e+00
1.820246e+01	-4.982055e+00
1.830760e+01	-5.016302e+00
1.841334e+01	-5.050670e+00
1.851969e+01	-5.084878e+00
1.862666e+01	-5.119700e+00
1.873425e+01	-5.154233e+00
1.884246e+01	-5.189223e+00
1.895129e+01	-5.224190e+00
1.906075e+01	-5.259179e+00
1.917085e+01	-5.294438e+00
1.928158e+01	-5.329459e+00
1.939295e+01	-5.365039e+00
1.950496e+01	-5.400399e+00
1.961762e+01	-5.436311e+00
1.973093e+01	-5.472016e+00
1.984490e+01	-5.507948e+00
1.995952e+01	-5.544133e+00
2.007480e+01	-5.579899e+00
2.019076e+01	-5.616261e+00
2.030738e+01	-5.652690e+00
2.042467e+01	-5.689309e+00
2.054264e+01	-5.725848e+00
2.066130e+01	-5.762472e+00
2.078064e+01	-5.799124e+00
2.090066e+01	-5.836085e+00
2.102139e+01	-5.873141e+00
2.114280e+01	-5.910235e+00
2.126492e+01	-5.947476e+00
2.138775e+01	-5.984761e+00
2.151128e+01	-6.022363e+00
2.163553e+01	-6.060193e+00
2.176050e+01	-6.097656e+00
2.188619e+01	-6.135091e+00
2.201260e+01	-6.173265e+00
2.213974e+01	-6.211281e+00
2.226762e+01	-6.249529e+00
2.239624e+01	-6.287724e+00
2.252560e+01	-6.326062e+00
2.265571e+01	-6.364041e+00
2.278656e+01	-6.402807e+00
2.291818e+01	-6.441818e+00
2.305055e+01	-6.480098e+00
2.318369e+01	-6.518773e+00
2.331760e+01	-6.557970e+00
2.345228e+01	-6.597301e+00
2.358774e+01	-6.636214e+00
2.372398e+01	-6.675484e+00
2.386101e+01	-6.714584e+00
2.399883e+01	-6.754004e+00
2.413745e+01	-6.793660e+00
2.427686e+01	-6.833239e+00
2.441709e+01	-6.872675e+00
2.455812e+01	-6.912835e+00
2.469997e+01	-6.952584e+00
2.484263e+01	-6.992681e+00
2.498612e+01	-7.032534e+00
2.513044e+01	-7.072946e+00
2.527559e+01	-7.113470e+00
2.542158e+01	-7.153732e+00
2.556842e+01	-7.193611e+00
2.571610e+01	-7.234176e+00
2.586463e+01	-7.275285e+00
2.601403e+01	-7.315729e+00
2.616428e+01	-7.356285e+00
2.631541e+01	-7.397306e+00
2.646740e+01	-7.438112e+00
2.662028e+01	-7.479411e+00
2.677404e+01	-7.520529e+00
2.692868e+01	-7.561387e+00
2.708422e+01	-7.603004e+00
2.724066e+01	-7.644759e+00
2.739800e+01	-7.685767e+00
2.755625e+01	-7.727932e+00
2.771541e+01	-7.768904e+00
2.787550e+01	-7.810793e+00
2.803650e+01	-7.852511e+00
2.819844e+01	-7.894435e+00
2.836131e+01	-7.936274e+00
2.852513e+01	-7.978016e+00
2.868989e+01	-8.020433e+00
2.885560e+01	-8.062686e+00
2.902227e+01	-8.104822e+00
2.918990e+01	-8.147127e+00
2.935850e+01	-8.189681e+00
2.952807e+01	-8.231731e+00
2.969863e+01	-8.274159e+00
2.987016e+01	-8.317203e+00
3.004269e+01	-8.359907e+00
3.021622e+01	-8.402475e+00
3.039075e+01	-8.445542e+00
3.056628e+01	-8.488535e+00
3.074283e+01	-8.531698e+00
3.092040e+01	-8.574277e+00
3.109900e+01	-8.617872e+00
3.127862e+01	-8.660899e+00
3.145929e+01	-8.704136e+00
3.164099e+01	-8.747091e+00
3.182375e+01	-8.790555e+00
3.200756e+01	-8.833962e+00
3.219244e+01	-8.877202e+00
3.237838e+01	-8.920634e+00
3.256540e+01	-8.964824e+00
3.275349e+01	-9.008415e+00
3.294268e+01	-9.052429e+00
3.313295e+01	-9.096010e+00
3.332433e+01	-9.139862e+00
3.351681e+01	-9.184315e+00
3.371040e+01	-9.227861e+00
3.390511e+01	-9.271722e+00
3.410094e+01	-9.316142e+00
3.429791e+01	-9.360107e+00
3.449601e+01	-9.405100e+00
3.469526e+01	-9.448998e+00
3.489566e+01	-9.493040e+00
3.509721e+01	-9.537871e+00
3.529993e+01	-9.582513e+00
3.550382e+01	-9.626388e+00
3.570889e+01	-9.671882e+00
3.591515e+01	-9.716127e+00
3.612259e+01	-9.761104e+00
3.633123e+01	-9.805666e+00
3.654108e+01	-9.850352e+00
3.675214e+01	-9.895108e+00
3.696442e+01	-9.939735e+00
3.717792e+01	-9.985218e+00
3.739266e+01	-1.003024e+01
3.760864e+01	-1.007557e+01
3.782587e+01	-1.012062e+01
3.804435e+01	-1.016536e+01
3.826409e+01	-1.021073e+01
3.848510e+01	-1.025602e+01
3.870739e+01	-1.030205e+01
3.893096e+01	-1.034700e+01
3.915583e+01	-1.039256e+01
3.938199e+01	-1.043780e+01
3.960946e+01	-1.048279e+01
3.983824e+01	-1.052895e+01
4.006834e+01	-1.057406e+01
4.029978e+01	-1.062005e+01
4.053255e+01	-1.066546e+01
4.076666e+01	-1.071172e+01
4.100213e+01	-1.075777e+01
4.123896e+01	-1.080324e+01
4.147715e+01	-1.084960e+01
4.171672e+01	-1.089517e+01
4.195767e+01	-1.094130e+01
4.220002e+01	-1.098728e+01
4.244377e+01	-1.103280e+01
4.268892e+01	-1.107858e+01
4.293549e+01	-1.112526e+01
4.318348e+01	-1.117168e+01
4.343291e+01	-1.121789e+01
4.368377e+01	-1.126446e+01
4.393609e+01	-1.131025e+01
4.418986e+01	-1.135658e+01
4.444510e+01	-1.140335e+01
4.470182e+01	-1.144987e+01
4.496001e+01	-1.149655e+01
4.521970e+01	-1.154244e+01
4.548089e+01	-1.158873e+01
4.574358e+01	-1.163594e+01
4.600779e+01	-1.168204e+01
4.627353e+01	-1.172852e+01
4.654081e+01	-1.177596e+01
4.680963e+01	-1.182196e+01
4.708000e+01	-1.186952e+01
4.735193e+01	-1.191594e+01
4.762543e+01	-1.196228e+01
4.790051e+01	-1.200984e+01
4.817719e+01	-1.205667e+01
4.845545e+01	-1.210367e+01
4.873533e+01	-1.215025e+01
4.901682e+01	-1.219704e+01
4.929994e+01	-1.224537e+01
4.958470e+01	-1.229153e+01
4.987110e+01	-1.233849e+01
5.015915e+01	-1.238541e+01
5.044887e+01	-1.243274e+01
5.074026e+01	-1.248046e+01
5.103333e+01	-1.252704e+01
5.132810e+01	-1.257482e+01
5.162457e+01	-1.262168e+01
5.192275e+01	-1.266876e+01
5.222265e+01	-1.271624e+01
5.252429e+01	-1.276381e+01
5.282767e+01	-1.281122e+01
5.313280e+01	-1.285869e+01
5.343969e+01	-1.290637e+01
5.374836e+01	-1.295373e+01
5.405880e+01	-1.300123e+01
5.437105e+01	-1.304787e+01
5.468509e+01	-1.309604e+01
5.500095e+01	-1.314346e+01
5.531863e+01	-1.319016e+01
5.563815e+01	-1.323845e+01
5.595951e+01	-1.328650e+01
5.628273e+01	-1.333413e+01
5.660782e+01	-1.338209e+01
5.693479e+01	-1.342919e+01
5.726364e+01	-1.347744e+01
5.759439e+01	-1.352551e+01
5.792705e+01	-1.357266e+01
5.826164e+01	-1.362057e+01
5.859815e+01	-1.366871e+01
5.893662e+01	-1.371640e+01
5.927703e+01	-1.376460e+01
5.961941e+01	-1.381257e+01
5.996377e+01	-1.386050e+01
6.031012e+01	-1.390854e+01
6.065847e+01	-1.395689e+01
6.100883e+01	-1.400512e+01
6.136121e+01	-1.405326e+01
6.171563e+01	-1.409999e+01
6.207210e+01	-1.414797e+01
6.243063e+01	-1.419659e+01
6.279122e+01	-1.424587e+01
6.315390e+01	-1.429338e+01
6.351868e+01	-1.434095e+01
6.388556e+01	-1.438872e+01
6.425456e+01	-1.443773e+01
6.462569e+01	-1.448573e+01
6.499897e+01	-1.453447e+01
6.537440e+01	-1.458227e+01
6.575200e+01	-1.463013e+01
6.613178e+01	-1.467934e+01
6.651375e+01	-1.472732e+01
6.689793e+01	-1.477540e+01
6.728433e+01	-1.482526e+01
6.767297e+01	-1.487329e+01
6.806384e+01	-1.492086e+01
6.845698e+01	-1.496924e+01
6.885238e+01	-1.501726e+01
6.925007e+01	-1.506719e+01
6.965005e+01	-1.511472e+01
7.005235e+01	-1.516404e+01
7.045697e+01	-1.521099e+01
7.086393e+01	-1.525968e+01
7.127323e+01	-1.530927e+01
7.168490e+01	-1.535682e+01
7.209895e+01	-1.540665e+01
7.251539e+01	-1.545472e+01
7.293424e+01	-1.550329e+01
7.335551e+01	-1.555134e+01
7.377920e+01	-1.559896e+01
7.420535e+01	-1.564934e+01
7.463396e+01	-1.569719e+01
7.506504e+01	-1.574605e+01
7.549861e+01	-1.579591e+01
7.593469e+01	-1.584376e+01
7.637328e+01	-1.589281e+01
7.681441e+01	-1.594145e+01
7.725809e+01	-1.598975e+01
7.770433e+01	-1.603848e+01
7.815315e+01	-1.608803e+01
7.860456e+01	-1.613700e+01
7.905857e+01	-1.618611e+01
7.951521e+01	-1.623442e+01
7.997449e+01	-1.628361e+01
8.043642e+01	-1.633047e+01
8.090102e+01	-1.638014e+01
8.136830e+01	-1.642881e+01
8.183828e+01	-1.647812e+01
8.231097e+01	-1.652768e+01
8.278640e+01	-1.657618e+01
8.326457e+01	-1.662622e+01
8.374550e+01	-1.667421e+01
8.422921e+01	-1.672337e+01
8.471572e+01	-1.677295e+01
8.520503e+01	-1.682091e+01
8.569717e+01	-1.687042e+01
8.619215e+01	-1.691950e+01
8.669000e+01	-1.696779e+01
8.719071e+01	-1.701777e+01
8.769432e+01	-1.706668e+01
8.820084e+01	-1.711590e+01
8.871029e+01	-1.716399e+01
8.922267e+01	-1.721414e+01
8.973802e+01	-1.726318e+01
9.025634e+01	-1.731170e+01
9.077766e+01	-1.736040e+01
9.130199e+01	-1.740963e+01
9.182935e+01	-1.745852e+01
9.235975e+01	-1.750871e+01
9.289321e+01	-1.755812e+01
9.342976e+01	-1.760552e+01
9.396941e+01	-1.765612e+01
9.451217e+01	-1.770423e+01
9.505807e+01	-1.775426e+01
9.560712e+01	-1.780347e+01
9.615934e+01	-1.785328e+01
9.671476e+01	-1.790170e+01
9.727338e+01	-1.795225e+01
9.783522e+01	-1.800105e+01
9.840032e+01	-1.804888e+01
9.896867e+01	-1.809770e+01
9.954031e+01	-1.814889e+01
1.001153e+02	-1.819651e+01
1.006935e+02	-1.824639e+01
1.012751e+02	-1.829580e+01
1.018601e+02	-1.834467e+01
1.024484e+02	-1.839502e+01
1.030402e+02	-1.844398e+01
1.036353e+02	-1.849448e+01
1.042339e+02	-1.854236e+01
1.048360e+02	-1.859104e+01
1.054415e+02	-1.864110e+01
1.060505e+02	-1.869253e+01
1.066631e+02	-1.873878e+01
1.072791e+02	-1.878917e+01
1.078988e+02	-1.883843e+01
1.085220e+02	-1.888783e+01
1.091488e+02	-1.893723e+01
1.097793e+02	-1.898819e+01
1.104133e+02	-1.903600e+01
1.110511e+02	-1.908499e+01
1.116925e+02	-1.913516e+01
1.123376e+02	-1.918426e+01
1.129865e+02	-1.923300e+01
1.136391e+02	-1.928262e+01
1.142955e+02	-1.933175e+01
1.149556e+02	-1.938124e+01
1.156196e+02	-1.943200e+01
1.162874e+02	-1.948120e+01
1.169591e+02	-1.953161e+01
1.176347e+02	-1.958077e+01
1.183141e+02	-1.962829e+01
1.189975e+02	-1.967963e+01
1.196848e+02	-1.972997e+01
1.203761e+02	-1.977766e+01
1.210714e+02	-1.982813e+01
1.217707e+02	-1.987752e+01
1.224740e+02	-1.992554e+01
1.231814e+02	-1.997767e+01
1.238929e+02	-2.002665e+01
1.246085e+02	-2.007602e+01
1.253283e+02	-2.012587e+01
1.260522e+02	-2.017505e+01
1.267802e+02	-2.022265e+01
1.275125e+02	-2.027202e+01
1.282490e+02	-2.032241e+01
1.289898e+02	-2.037220e+01
1.297348e+02	-2.042215e+01
1.304842e+02	-2.047164e+01
1.312378e+02	-2.052170e+01
1.319959e+02	-2.057198e+01
1.327583e+02	-2.062109e+01
1.335251e+02	-2.067123e+01
1.342963e+02	-2.072066e+01
1.350720e+02	-2.076893e+01
1.358522e+02	-2.081882e+01
1.366368e+02	-2.086987e+01
1.374260e+02	-2.091846e+01
1.382198e+02	-2.096797e+01
1.390182e+02	-2.101853e+01
1.398211e+02	-2.106709e+01
1.406287e+02	-2.111689e+01
1.414410e+02	-2.116671e+01
1.422579e+02	-2.121770e+01
1.430796e+02	-2.126577e+01
1.439060e+02	-2.131444e+01
1.447372e+02	-2.136517e+01
1.455732e+02	-2.141408e+01
1.464141e+02	-2.146525e+01
1.472597e+02	-2.151662e+01
1.481103e+02	-2.156630e+01
1.489658e+02	-2.161380e+01
1.498262e+02	-2.166384e+01
1.506916e+02	-2.171049e+01
1.515620e+02	-2.176227e+01
1.524374e+02	-2.181229e+01
1.533179e+02	-2.186232e+01
1.542034e+02	-2.191126e+01
1.550941e+02	-2.196029e+01
1.559899e+02	-2.201252e+01
1.568909e+02	-2.205962e+01
1.577971e+02	-2.211109e+01
1.587085e+02	-2.216060e+01
1.596252e+02	-2.221086e+01
1.605472e+02	-2.225884e+01
1.614745e+02	-2.230884e+01
1.624072e+02	-2.235788e+01
1.633453e+02	-2.241095e+01
1.642887e+02	-2.245885e+01
1.652377e+02	-2.250956e+01
1.661921e+02	-2.255790e+01
1.671520e+02	-2.261031e+01
1.681175e+02	-2.265797e+01
1.690885e+02	-2.270927e+01
1.700651e+02	-2.275787e+01
1.710474e+02	-2.280508e+01
1.720354e+02	-2.285628e+01
1.730291e+02	-2.290723e+01
1.740285e+02	-2.295574e+01
1.750337e+02	-2.300685e+01
1.760446e+02	-2.305606e+01
1.770615e+02	-2.310340e+01
1.780842e+02	-2.315453e+01
1.791128e+02	-2.320568e+01
1.801473e+02	-2.325552e+01
1.811878e+02	-2.330692e+01
1.822344e+02	-2.335597e+01
1.832870e+02	-2.340407e+01
1.843456e+02	-2.345460e+01
1.854104e+02	-2.350668e+01
1.864813e+02	-2.355188e+01
1.875584e+02	-2.360459e+01
1.886418e+02	-2.365604e+01
1.897313e+02	-2.370591e+01
1.908272e+02	-2.375236e+01
1.919294e+02	-2.380296e+01
1.930380e+02	-2.385139e+01
1.941530e+02	-2.390237e+01
1.952744e+02	-2.395182e+01
1.964023e+02	-2.400356e+01
1.975367e+02	-2.405225e+01
1.986777e+02	-2.410331e+01
1.998252e+02	-2.415401e+01
2.009794e+02	-2.420347e+01
2.021403e+02	-2.425370e+01
2.033078e+02	-2.430174e+01
2.044821e+02	-2.435588e+01
2.056632e+02	-2.440466e+01
2.068511e+02	-2.444953e+01
2.080459e+02	-2.450106e+01
2.092475e+02	-2.455273e+01
2.104561e+02	-2.460165e+01
2.116717e+02	-2.464837e+01
2.128943e+02	-2.470096e+01
2.141240e+02	-2.475130e+01
2.153608e+02	-2.480473e+01
2.166047e+02	-2.485246e+01
2.178558e+02	-2.489976e+01
2.191141e+02	-2.494964e+01
2.203797e+02	-2.500299e+01
2.216526e+02	-2.505078e+01
2.229329e+02	-2.510096e+01
2.242205e+02	-2.514847e+01
2.255156e+02	-2.520037e+01
2.268182e+02	-2.524982e+01
2.281283e+02	-2.530322e+01
2.294459e+02	-2.535425e+01
2.307712e+02	-2.540209e+01
2.321041e+02	-2.545332e+01
2.334447e+02	-2.550062e+01
2.347931e+02	-2.554862e+01
2.361493e+02	-2.560226e+01
2.375133e+02	-2.564739e+01
2.388851e+02	-2.569708e+01
2.402649e+02	-2.575141e+01
2.416527e+02	-2.580028e+01
2.430484e+02	-2.584830e+01
2.444523e+02	-2.590216e+01
2.458642e+02	-2.594750e+01
2.472843e+02	-2.599696e+01
2.487126e+02	-2.605049e+01
2.501492e+02	-2.609813e+01
2.515940e+02	-2.614958e+01
2.530472e+02	-2.619782e+01
2.545088e+02	-2.625199e+01
2.559789e+02	-2.630200e+01
2.574574e+02	-2.634873e+01
2.589444e+02	-2.639851e+01
2.604401e+02	-2.645143e+01
2.619444e+02	-2.650135e+01
2.634574e+02	-2.654885e+01
2.649791e+02	-2.660045e+01
2.665096e+02	-2.664783e+01
2.680489e+02	-2.669688e+01
2.695972e+02	-2.674660e+01
2.711544e+02	-2.680264e+01
2.727205e+02	-2.685057e+01
2.742958e+02	-2.689942e+01
2.758801e+02	-2.694911e+01
2.774736e+02	-2.700010e+01
2.790762e+02	-2.705214e+01
2.806882e+02	-2.710071e+01
2.823094e+02	-2.714859e+01
2.839400e+02	-2.719442e+01
2.855800e+02	-2.724816e+01
2.872295e+02	-2.730064e+01
2.888886e+02	-2.734879e+01
2.905572e+02	-2.740032e+01
2.922354e+02	-2.744994e+01
2.939234e+02	-2.750084e+01
2.956211e+02	-2.754835e+01
2.973286e+02	-2.760064e+01
2.990459e+02	-2.764919e+01
3.007732e+02	-2.770093e+01
3.025104e+02	-2.775104e+01
3.042577e+02	-2.779956e+01
3.060151e+02	-2.785269e+01
3.077826e+02	-2.789664e+01
3.095604e+02	-2.795006e+01
3.113484e+02	-2.800195e+01
3.131467e+02	-2.804758e+01
3.149554e+02	-2.810145e+01
3.167746e+02	-2.815164e+01
3.186043e+02	-2.819649e+01
3.204445e+02	-2.825045e+01
3.222954e+02	-2.830137e+01
3.241570e+02	-2.834925e+01
3.260293e+02	-2.839923e+01
3.279124e+02	-2.844782e+01
3.298064e+02	-2.850398e+01
3.317114e+02	-2.854892e+01
3.336273e+02	-2.860171e+01
3.355544e+02	-2.864784e+01
3.374925e+02	-2.869999e+01
3.394418e+02	-2.874342e+01
3.414024e+02	-2.880115e+01
3.433744e+02	-2.885270e+01
3.453577e+02	-2.890100e+01
3.473525e+02	-2.895005e+01
3.493588e+02	-2.899874e+01
3.513766e+02	-2.905156e+01
3.534062e+02	-2.910000e+01
3.554474e+02	-2.915189e+01
3.575005e+02	-2.920151e+01
3.595654e+02	-2.924695e+01
3.616422e+02	-2.930355e+01
3.637311e+02	-2.935423e+01
3.658320e+02	-2.940374e+01
3.679450e+02	-2.945625e+01
3.700702e+02	-2.950467e+01
3.722077e+02	-2.955246e+01
3.743576e+02	-2.960271e+01
3.765199e+02	-2.964826e+01
3.786946e+02	-2.969976e+01
3.808820e+02	-2.975288e+01
3.830819e+02	-2.980344e+01
3.852946e+02	-2.985319e+01
3.875200e+02	-2.989923e+01
3.897583e+02	-2.995802e+01
3.920096e+02	-2.999760e+01
3.942738e+02	-3.005391e+01
3.965511e+02	-3.009943e+01
3.988416e+02	-3.015278e+01
4.011452e+02	-3.020033e+01
4.034622e+02	-3.025178e+01
4.057926e+02	-3.029879e+01
4.081365e+02	-3.035007e+01
4.104938e+02	-3.040630e+01
4.128648e+02	-3.045331e+01
4.152495e+02	-3.050657e+01
4.176480e+02	-3.055336e+01
4.200603e+02	-3.060442e+01
4.224866e+02	-3.065628e+01
4.249268e+02	-3.070091e+01
4.273812e+02	-3.075543e+01
4.298497e+02	-3.080320e+01
4.323325e+02	-3.085247e+01
4.348297e+02	-3.089747e+01
4.373412e+02	-3.096011e+01
4.398673e+02	-3.100176e+01
4.424079e+02	-3.105440e+01
4.449633e+02	-3.110784e+01
4.475334e+02	-3.115756e+01
4.501183e+02	-3.120322e+01
4.527182e+02	-3.125530e+01
4.553330e+02	-3.130558e+01
4.579630e+02	-3.135718e+01
4.606082e+02	-3.140580e+01
4.632687e+02	-3.145986e+01
4.659445e+02	-3.150585e+01
4.686358e+02	-3.155645e+01
4.713426e+02	-3.160701e+01
4.740650e+02	-3.165364e+01
4.768032e+02	-3.170921e+01
4.795572e+02	-3.175512e+01
4.823271e+02	-3.181011e+01
4.851130e+02	-3.185891e+01
4.879150e+02	-3.190306e+01
4.907332e+02	-3.196647e+01
4.935676e+02	-3.200410e+01
4.964185e+02	-3.206540e+01
4.992858e+02	-3.210249e+01
5.021696e+02	-3.215562e+01
5.050701e+02	-3.221604e+01
5.079874e+02	-3.226216e+01
5.109215e+02	-3.231133e+01
5.138726e+02	-3.235355e+01
5.168407e+02	-3.241109e+01
5.198259e+02	-3.246069e+01
5.228284e+02	-3.251117e+01
5.258482e+02	-3.256199e+01
5.288855e+02	-3.261041e+01
5.319403e+02	-3.265464e+01
5.350128e+02	-3.270431e+01
5.381030e+02	-3.275933e+01
5.412111e+02	-3.281212e+01
5.443371e+02	-3.286477e+01
5.474812e+02	-3.291425e+01
5.506434e+02	-3.295913e+01
5.538239e+02	-3.301270e+01
5.570228e+02	-3.306125e+01
5.602401e+02	-3.311176e+01
5.634760e+02	-3.315971e+01
5.667306e+02	-3.321247e+01
5.700040e+02	-3.326851e+01
5.732964e+02	-3.331860e+01
5.766077e+02	-3.336804e+01
5.799382e+02	-3.341135e+01
5.832879e+02	-3.346319e+01
5.866569e+02	-3.351462e+01
5.900454e+02	-3.356777e+01
5.934535e+02	-3.361498e+01
5.968813e+02	-3.366642e+01
6.003288e+02	-3.371964e+01
6.037963e+02	-3.376471e+01
6.072838e+02	-3.381385e+01
6.107914e+02	-3.386174e+01
6.143194e+02	-3.392113e+01
6.178676e+02	-3.396800e+01
6.214364e+02	-3.401851e+01
6.250258e+02	-3.407045e+01
6.286359e+02	-3.412453e+01
6.322669e+02	-3.417593e+01
6.359189e+02	-3.422424e+01
6.395919e+02	-3.426946e+01
6.432862e+02	-3.431692e+01
6.470017e+02	-3.436968e+01
6.507388e+02	-3.442848e+01
6.544974e+02	-3.448065e+01
6.582778e+02	-3.452133e+01
6.620800e+02	-3.457160e+01
6.659041e+02	-3.461515e+01
6.697504e+02	-3.467961e+01
6.736188e+02	-3.472017e+01
6.775096e+02	-3.477784e+01
6.814229e+02	-3.482666e+01
6.853587e+02	-3.487412e+01
6.893173e+02	-3.492048e+01
6.932988e+02	-3.497890e+01
6.973033e+02	-3.502519e+01
7.013309e+02	-3.507470e+01
