Frequency(Hz)	Magnitude(dB)
1.000000e+01	-2.091701e+00
1.005776e+01	-2.110805e+00
1.011585e+01	-2.130129e+00
1.017428e+01	-2.149645e+00
1.023305e+01	-2.169257e+00
1.029215e+01	-2.188986e+00
1.035160e+01	-2.208911e+00
1.041139e+01	-2.228941e+00
1.047153e+01	-2.248951e+00
1.053201e+01	-2.269371e+00
1.059284e+01	-2.289860e+00
1.065403e+01	-2.310259e+00
1.071556e+01	-2.331227e+00
1.077746e+01	-2.351811e+00
1.083971e+01	-2.373028e+00
1.090232e+01	-2.394179e+00
1.096529e+01	-2.415317e+00
1.102862e+01	-2.436584e+00
1.109232e+01	-2.458241e+00
1.115639e+01	-2.479993e+00
1.122083e+01	-2.502001e+00
1.128564e+01	-2.523814e+00
1.135083e+01	-2.545738e+00
1.141639e+01	-2.568294e+00
1.148233e+01	-2.590428e+00
1.154865e+01	-2.613127e+00
1.161536e+01	-2.635732e+00
1.168245e+01	-2.658720e+00
1.174992e+01	-2.681728e+00
1.181779e+01	-2.704692e+00
1.188605e+01	-2.728137e+00
1.195470e+01	-2.751391e+00
1.202375e+01	-2.774829e+00
1.209320e+01	-2.798492e+00
1.216305e+01	-2.822281e+00
1.223330e+01	-2.846270e+00
1.230396e+01	-2.870543e+00
1.237503e+01	-2.894875e+00
1.244651e+01	-2.919417e+00
1.251840e+01	-2.943753e+00
1.259070e+01	-2.968332e+00
1.266343e+01	-2.993204e+00
1.273657e+01	-3.018249e+00
1.281014e+01	-3.043416e+00
1.288413e+01	-3.068519e+00
1.295855e+01	-3.094181e+00
1.303339e+01	-3.119874e+00
1.310867e+01	-3.145384e+00
1.318439e+01	-3.171235e+00
1.326054e+01	-3.197003e+00
1.333713e+01	-3.223277e+00
1.341417e+01	-3.249497e+00
1.349165e+01	-3.276114e+00
1.356958e+01	-3.302743e+00
1.364795e+01	-3.329379e+00
1.372678e+01	-3.356233e+00
1.380607e+01	-3.383322e+00
1.388581e+01	-3.410579e+00
1.396602e+01	-3.437676e+00
1.404668e+01	-3.465012e+00
1.412782e+01	-3.492719e+00
1.420942e+01	-3.520394e+00
1.429149e+01	-3.548215e+00
1.437404e+01	-3.576333e+00
1.445706e+01	-3.604399e+00
1.454057e+01	-3.632614e+00
1.462455e+01	-3.660991e+00
1.470902e+01	-3.689602e+00
1.479398e+01	-3.718312e+00
1.487943e+01	-3.747074e+00
1.496537e+01	-3.775948e+00
1.505181e+01	-3.804995e+00
1.513875e+01	-3.834437e+00
1.522619e+01	-3.863890e+00
1.531414e+01	-3.893347e+00
1.540259e+01	-3.923058e+00
1.549156e+01	-3.953003e+00
1.558103e+01	-3.982973e+00
1.567103e+01	-4.013138e+00
1.576155e+01	-4.043377e+00
1.585258e+01	-4.073618e+00
1.594415e+01	-4.104299e+00
1.603624e+01	-4.134795e+00
1.612886e+01	-4.165603e+00
1.622202e+01	-4.196641e+00
1.631572e+01	-4.227564e+00
1.640996e+01	-4.258808e+00
1.650474e+01	-4.290323e+00
1.660008e+01	-4.321746e+00
1.669596e+01	-4.353115e+00
1.679239e+01	-4.384731e+00
1.688938e+01	-4.416761e+00
1.698694e+01	-4.448803e+00
1.708505e+01	-4.481186e+00
1.718373e+01	-4.513330e+00
1.728299e+01	-4.545607e+00
1.738281e+01	-4.577919e+00
1.748322e+01	-4.610789e+00
1.758420e+01	-4.643696e+00
1.768576e+01	-4.676314e+00
1.778792e+01	-4.709333e+00
1.789066e+01	-4.742635e+00
1.799399e+01	-4.776114e+00
1.809793e+01	-4.809248e+00
1.820246e+01	-4.842910e+00
1.830760e+01	-4.876607e+00
1.841334e+01	-4.910426e+00
1.851969e+01	-4.944665e+00
1.862666e+01	-4.978641e+00
1.873425e+01	-5.012498e+00
1.884246e+01	-5.047038e+00
1.895129e+01	-5.081620e+00
1.906075e+01	-5.115977e+00
1.917085e+01	-5.150578e+00
1.928158e+01	-5.185346e+00
1.939295e+01	-5.220482e+00
1.950496e+01	-5.255618e+00
1.961762e+01	-5.290593e+00
1.973093e+01	-5.325758e+00
1.984490e+01	-5.361256e+00
1.995952e+01	-5.396493e+00
2.007480e+01	-5.432669e+00
2.019076e+01	-5.468258e+00
2.030738e+01	-5.504308e+00
2.042467e+01	-5.540127e+00
2.054264e+01	-5.576346e+00
2.066130e+01	-5.612446e+00
2.078064e+01	-5.648670e+00
2.090066e+01	-5.685308e+00
2.102139e+01	-5.721893e+00
2.114280e+01	-5.758564e+00
2.126492e+01	-5.795404e+00
2.138775e+01	-5.832119e+00
2.151128e+01	-5.869381e+00
2.163553e+01	-5.906081e+00
2.176050e+01	-5.943843e+00
2.188619e+01	-5.980651e+00
2.201260e+01	-6.018113e+00
2.213974e+01	-6.056324e+00
2.226762e+01	-6.093911e+00
2.239624e+01	-6.131496e+00
2.252560e+01	-6.169408e+00
2.265571e+01	-6.207314e+00
2.278656e+01	-6.245561e+00
2.291818e+01	-6.283865e+00
2.305055e+01	-6.321936e+00
2.318369e+01	-6.360570e+00
2.331760e+01	-6.398934e+00
2.345228e+01	-6.437471e+00
2.358774e+01	-6.476263e+00
2.372398e+01	-6.514899e+00
2.386101e+01	-6.553876e+00
2.399883e+01	-6.592912e+00
2.413745e+01	-6.631806e+00
2.427686e+01	-6.671402e+00
2.441709e+01	-6.710333e+00
2.455812e+01	-6.749800e+00
2.469997e+01	-6.789638e+00
2.484263e+01	-6.829238e+00
2.498612e+01	-6.868625e+00
2.513044e+01	-6.908526e+00
2.527559e+01	-6.948702e+00
2.542158e+01	-6.988721e+00
2.556842e+01	-7.028257e+00
2.571610e+01	-7.068959e+00
2.586463e+01	-7.108930e+00
2.601403e+01	-7.149320e+00
2.616428e+01	-7.189712e+00
2.631541e+01	-7.230199e+00
2.646740e+01	-7.271077e+00
2.662028e+01	-7.311322e+00
2.677404e+01	-7.352348e+00
2.692868e+01	-7.393481e+00
2.708422e+01	-7.433934e+00
2.724066e+01	-7.474947e+00
2.739800e+01	-7.516736e+00
2.755625e+01	-7.557509e+00
2.771541e+01	-7.598814e+00
2.787550e+01	-7.639987e+00
2.803650e+01	-7.681698e+00
2.819844e+01	-7.723423e+00
2.836131e+01	-7.764296e+00
2.852513e+01	-7.806531e+00
2.868989e+01	-7.848292e+00
2.885560e+01	-7.889469e+00
2.902227e+01	-7.931824e+00
2.918990e+01	-7.973643e+00
2.935850e+01	-8.016164e+00
2.952807e+01	-8.058240e+00
2.969863e+01	-8.100242e+00
2.987016e+01	-8.143056e+00
3.004269e+01	-8.185583e+00
3.021622e+01	-8.227698e+00
3.039075e+01	-8.269683e+00
3.056628e+01	-8.312722e+00
3.074283e+01	-8.355644e+00
3.092040e+01	-8.398205e+00
3.109900e+01	-8.441017e+00
3.127862e+01	-8.484282e+00
3.145929e+01	-8.526613e+00
3.164099e+01	-8.569807e+00
3.182375e+01	-8.612492e+00
3.200756e+01	-8.656454e+00
3.219244e+01	-8.699911e+00
3.237838e+01	-8.742724e+00
3.256540e+01	-8.786022e+00
3.275349e+01	-8.829862e+00
3.294268e+01	-8.872941e+00
3.313295e+01	-8.916545e+00
3.332433e+01	-8.960219e+00
3.351681e+01	-9.004242e+00
3.371040e+01	-9.047622e+00
3.390511e+01	-9.091440e+00
3.410094e+01	-9.135406e+00
3.429791e+01	-9.179406e+00
3.449601e+01	-9.223602e+00
3.469526e+01	-9.267721e+00
3.489566e+01	-9.311795e+00
3.509721e+01	-9.356512e+00
3.529993e+01	-9.400291e+00
3.550382e+01	-9.444187e+00
3.570889e+01	-9.488642e+00
3.591515e+01	-9.533154e+00
3.612259e+01	-9.578066e+00
3.633123e+01	-9.622471e+00
3.654108e+01	-9.667060e+00
3.675214e+01	-9.711545e+00
3.696442e+01	-9.756228e+00
3.717792e+01	-9.800972e+00
3.739266e+01	-9.845846e+00
3.760864e+01	-9.890475e+00
3.782587e+01	-9.935252e+00
3.804435e+01	-9.980919e+00
3.826409e+01	-1.002612e+01
3.848510e+01	-1.007047e+01
3.870739e+01	-1.011563e+01
3.893096e+01	-1.016070e+01
3.915583e+01	-1.020607e+01
3.938199e+01	-1.025180e+01
3.960946e+01	-1.029696e+01
3.983824e+01	-1.034245e+01
4.006834e+01	-1.038768e+01
4.029978e+01	-1.043344e+01
4.053255e+01	-1.047873e+01
4.076666e+01	-1.052420e+01
4.100213e+01	-1.056887e+01
4.123896e+01	-1.061522e+01
4.147715e+01	-1.066096e+01
4.171672e+01	-1.070721e+01
4.195767e+01	-1.075314e+01
4.220002e+01	-1.079853e+01
4.244377e+01	-1.084411e+01
4.268892e+01	-1.089062e+01
4.293549e+01	-1.093652e+01
4.318348e+01	-1.098235e+01
4.343291e+01	-1.102826e+01
4.368377e+01	-1.107457e+01
4.393609e+01	-1.112058e+01
4.418986e+01	-1.116712e+01
4.444510e+01	-1.121321e+01
4.470182e+01	-1.125913e+01
4.496001e+01	-1.130567e+01
4.521970e+01	-1.135204e+01
4.548089e+01	-1.139852e+01
4.574358e+01	-1.144496e+01
4.600779e+01	-1.149121e+01
4.627353e+01	-1.153771e+01
4.654081e+01	-1.158425e+01
4.680963e+01	-1.163102e+01
4.708000e+01	-1.167738e+01
4.735193e+01	-1.172374e+01
4.762543e+01	-1.177071e+01
4.790051e+01	-1.181765e+01
4.817719e+01	-1.186485e+01
4.845545e+01	-1.191071e+01
4.873533e+01	-1.195771e+01
4.901682e+01	-1.200496e+01
4.929994e+01	-1.205200e+01
4.958470e+01	-1.209833e+01
4.987110e+01	-1.214512e+01
5.015915e+01	-1.219223e+01
5.044887e+01	-1.223946e+01
5.074026e+01	-1.228664e+01
5.103333e+01	-1.233352e+01
5.132810e+01	-1.238082e+01
5.162457e+01	-1.242731e+01
5.192275e+01	-1.247509e+01
5.222265e+01	-1.252283e+01
5.252429e+01	-1.256943e+01
5.282767e+01	-1.261717e+01
5.313280e+01	-1.266449e+01
5.343969e+01	-1.271150e+01
5.374836e+01	-1.275807e+01
5.405880e+01	-1.280603e+01
5.437105e+01	-1.285329e+01
5.468509e+01	-1.290131e+01
5.500095e+01	-1.294837e+01
5.531863e+01	-1.299596e+01
5.563815e+01	-1.304408e+01
5.595951e+01	-1.309155e+01
5.628273e+01	-1.313928e+01
5.660782e+01	-1.318600e+01
5.693479e+01	-1.323381e+01
5.726364e+01	-1.328189e+01
5.759439e+01	-1.332880e+01
5.792705e+01	-1.337703e+01
5.826164e+01	-1.342513e+01
5.859815e+01	-1.347240e+01
5.893662e+01	-1.352021e+01
5.927703e+01	-1.356805e+01
5.961941e+01	-1.361615e+01
5.996377e+01	-1.366399e+01
6.031012e+01	-1.371207e+01
6.065847e+01	-1.375832e+01
6.100883e+01	-1.380697e+01
6.136121e+01	-1.385568e+01
6.171563e+01	-1.390329e+01
6.207210e+01	-1.395263e+01
6.243063e+01	-1.399960e+01
6.279122e+01	-1.404839e+01
6.315390e+01	-1.409594e+01
6.351868e+01	-1.414357e+01
6.388556e+01	-1.419204e+01
6.425456e+01	-1.423955e+01
6.462569e+01	-1.428855e+01
6.499897e+01	-1.433632e+01
6.537440e+01	-1.438475e+01
6.575200e+01	-1.443334e+01
6.613178e+01	-1.448103e+01
6.651375e+01	-1.452956e+01
6.689793e+01	-1.457784e+01
6.728433e+01	-1.462532e+01
6.767297e+01	-1.467453e+01
6.806384e+01	-1.472216e+01
6.845698e+01	-1.477088e+01
6.885238e+01	-1.482004e+01
6.925007e+01	-1.486692e+01
6.965005e+01	-1.491596e+01
7.005235e+01	-1.496464e+01
7.045697e+01	-1.501304e+01
7.086393e+01	-1.506112e+01
7.127323e+01	-1.511081e+01
7.168490e+01	-1.515878e+01
7.209895e+01	-1.520704e+01
7.251539e+01	-1.525502e+01
7.293424e+01	-1.530395e+01
7.335551e+01	-1.535206e+01
7.377920e+01	-1.540098e+01
7.420535e+01	-1.545068e+01
7.463396e+01	-1.549841e+01
7.506504e+01	-1.554693e+01
7.549861e+01	-1.559549e+01
7.593469e+01	-1.564431e+01
7.637328e+01	-1.569262e+01
7.681441e+01	-1.574176e+01
7.725809e+01	-1.578967e+01
7.770433e+01	-1.583877e+01
7.815315e+01	-1.588870e+01
7.860456e+01	-1.593729e+01
7.905857e+01	-1.598509e+01
7.951521e+01	-1.603368e+01
7.997449e+01	-1.608381e+01
8.043642e+01	-1.613205e+01
8.090102e+01	-1.617931e+01
8.136830e+01	-1.622997e+01
8.183828e+01	-1.627688e+01
8.231097e+01	-1.632639e+01
8.278640e+01	-1.637607e+01
8.326457e+01	-1.642452e+01
8.374550e+01	-1.647366e+01
8.422921e+01	-1.652127e+01
8.471572e+01	-1.657036e+01
8.520503e+01	-1.662025e+01
8.569717e+01	-1.666874e+01
8.619215e+01	-1.671752e+01
8.669000e+01	-1.676681e+01
8.719071e+01	-1.681588e+01
8.769432e+01	-1.686607e+01
8.820084e+01	-1.691441e+01
8.871029e+01	-1.696341e+01
8.922267e+01	-1.701276e+01
8.973802e+01	-1.706102e+01
9.025634e+01	-1.710970e+01
9.077766e+01	-1.715978e+01
9.130199e+01	-1.720770e+01
9.182935e+01	-1.725576e+01
9.235975e+01	-1.730586e+01
9.289321e+01	-1.735590e+01
9.342976e+01	-1.740570e+01
9.396941e+01	-1.745325e+01
9.451217e+01	-1.750293e+01
9.505807e+01	-1.755279e+01
9.560712e+01	-1.760161e+01
9.615934e+01	-1.765020e+01
9.671476e+01	-1.769925e+01
9.727338e+01	-1.774783e+01
9.783522e+01	-1.779798e+01
9.840032e+01	-1.784800e+01
9.896867e+01	-1.789677e+01
9.954031e+01	-1.794608e+01
1.001153e+02	-1.799583e+01
1.006935e+02	-1.804459e+01
1.012751e+02	-1.809333e+01
1.018601e+02	-1.814324e+01
1.024484e+02	-1.819207e+01
1.030402e+02	-1.824112e+01
1.036353e+02	-1.829169e+01
1.042339e+02	-1.833962e+01
1.048360e+02	-1.838882e+01
1.054415e+02	-1.843876e+01
1.060505e+02	-1.848771e+01
1.066631e+02	-1.853678e+01
1.072791e+02	-1.858588e+01
1.078988e+02	-1.863615e+01
1.085220e+02	-1.868552e+01
1.091488e+02	-1.873412e+01
1.097793e+02	-1.878385e+01
1.104133e+02	-1.883258e+01
1.110511e+02	-1.888361e+01
1.116925e+02	-1.893174e+01
1.123376e+02	-1.898040e+01
1.129865e+02	-1.903169e+01
1.136391e+02	-1.908044e+01
1.142955e+02	-1.913017e+01
1.149556e+02	-1.917839e+01
1.156196e+02	-1.922866e+01
1.162874e+02	-1.927829e+01
1.169591e+02	-1.932626e+01
1.176347e+02	-1.937652e+01
1.183141e+02	-1.942674e+01
1.189975e+02	-1.947685e+01
1.196848e+02	-1.952625e+01
1.203761e+02	-1.957427e+01
1.210714e+02	-1.962434e+01
1.217707e+02	-1.967395e+01
1.224740e+02	-1.972348e+01
1.231814e+02	-1.977326e+01
1.238929e+02	-1.982181e+01
1.246085e+02	-1.987229e+01
1.253283e+02	-1.992088e+01
1.260522e+02	-1.997133e+01
1.267802e+02	-2.002073e+01
1.275125e+02	-2.007072e+01
1.282490e+02	-2.011996e+01
1.289898e+02	-2.016881e+01
1.297348e+02	-2.021955e+01
1.304842e+02	-2.026955e+01
1.312378e+02	-2.031766e+01
1.319959e+02	-2.036731e+01
1.327583e+02	-2.041788e+01
1.335251e+02	-2.046644e+01
1.342963e+02	-2.051656e+01
1.350720e+02	-2.056627e+01
1.358522e+02	-2.061626e+01
1.366368e+02	-2.066428e+01
1.374260e+02	-2.071436e+01
1.382198e+02	-2.076282e+01
1.390182e+02	-2.081283e+01
1.398211e+02	-2.086380e+01
1.406287e+02	-2.091361e+01
1.414410e+02	-2.096226e+01
1.422579e+02	-2.101317e+01
1.430796e+02	-2.106004e+01
1.439060e+02	-2.111182e+01
1.447372e+02	-2.116093e+01
1.455732e+02	-2.120963e+01
1.464141e+02	-2.125954e+01
1.472597e+02	-2.130964e+01
1.481103e+02	-2.136164e+01
1.489658e+02	-2.141095e+01
1.498262e+02	-2.146141e+01
1.506916e+02	-2.150927e+01
1.515620e+02	-2.155920e+01
1.524374e+02	-2.160876e+01
1.533179e+02	-2.165726e+01
1.542034e+02	-2.170671e+01
1.550941e+02	-2.175808e+01
1.559899e+02	-2.180619e+01
1.568909e+02	-2.185857e+01
1.577971e+02	-2.190650e+01
1.587085e+02	-2.195573e+01
1.596252e+02	-2.200732e+01
1.605472e+02	-2.205623e+01
1.614745e+02	-2.210596e+01
1.624072e+02	-2.215559e+01
1.633453e+02	-2.220665e+01
1.642887e+02	-2.225750e+01
1.652377e+02	-2.230547e+01
1.661921e+02	-2.235360e+01
1.671520e+02	-2.240335e+01
1.681175e+02	-2.245100e+01
1.690885e+02	-2.250345e+01
1.700651e+02	-2.255254e+01
1.710474e+02	-2.260438e+01
1.720354e+02	-2.265568e+01
1.730291e+02	-2.270036e+01
1.740285e+02	-2.275232e+01
1.750337e+02	-2.280210e+01
1.760446e+02	-2.285333e+01
1.770615e+02	-2.290239e+01
1.780842e+02	-2.295220e+01
1.791128e+02	-2.300139e+01
1.801473e+02	-2.305305e+01
1.811878e+02	-2.310072e+01
1.822344e+02	-2.315198e+01
1.832870e+02	-2.320146e+01
1.843456e+02	-2.325123e+01
1.854104e+02	-2.329937e+01
1.864813e+02	-2.334998e+01
1.875584e+02	-2.339805e+01
1.886418e+02	-2.345019e+01
1.897313e+02	-2.350168e+01
1.908272e+02	-2.354917e+01
1.919294e+02	-2.359796e+01
1.930380e+02	-2.365114e+01
1.941530e+02	-2.369946e+01
1.952744e+02	-2.374955e+01
1.964023e+02	-2.379829e+01
1.975367e+02	-2.385027e+01
1.986777e+02	-2.389877e+01
1.998252e+02	-2.394879e+01
2.009794e+02	-2.399872e+01
2.021403e+02	-2.404890e+01
2.033078e+02	-2.409857e+01
2.044821e+02	-2.414812e+01
2.056632e+02	-2.419599e+01
2.068511e+02	-2.424399e+01
2.080459e+02	-2.429744e+01
2.092475e+02	-2.434724e+01
2.104561e+02	-2.439741e+01
2.116717e+02	-2.444545e+01
2.128943e+02	-2.449635e+01
2.141240e+02	-2.454519e+01
2.153608e+02	-2.459920e+01
2.166047e+02	-2.464685e+01
2.178558e+02	-2.469859e+01
2.191141e+02	-2.474596e+01
2.203797e+02	-2.479699e+01
2.216526e+02	-2.484398e+01
2.229329e+02	-2.489177e+01
2.242205e+02	-2.494462e+01
2.255156e+02	-2.499388e+01
2.268182e+02	-2.504359e+01
2.281283e+02	-2.509608e+01
2.294459e+02	-2.514483e+01
2.307712e+02	-2.519481e+01
2.321041e+02	-2.524239e+01
2.334447e+02	-2.529463e+01
2.347931e+02	-2.534371e+01
2.361493e+02	-2.539468e+01
2.375133e+02	-2.544145e+01
2.388851e+02	-2.549486e+01
2.402649e+02	-2.554329e+01
2.416527e+02	-2.559191e+01
2.430484e+02	-2.564561e+01
2.444523e+02	-2.569401e+01
2.458642e+02	-2.574270e+01
2.472843e+02	-2.579254e+01
2.487126e+02	-2.584192e+01
2.501492e+02	-2.589507e+01
2.515940e+02	-2.594303e+01
2.530472e+02	-2.599293e+01
2.545088e+02	-2.604357e+01
2.559789e+02	-2.609622e+01
2.574574e+02	-2.614184e+01
2.589444e+02	-2.619534e+01
2.604401e+02	-2.624418e+01
2.619444e+02	-2.629283e+01
2.634574e+02	-2.634490e+01
2.649791e+02	-2.639471e+01
2.665096e+02	-2.644280e+01
2.680489e+02	-2.649115e+01
2.695972e+02	-2.654626e+01
2.711544e+02	-2.659602e+01
2.727205e+02	-2.664671e+01
2.742958e+02	-2.669517e+01
2.758801e+02	-2.674357e+01
2.774736e+02	-2.679061e+01
2.790762e+02	-2.684265e+01
2.806882e+02	-2.689603e+01
2.823094e+02	-2.694741e+01
2.839400e+02	-2.699501e+01
2.855800e+02	-2.703989e+01
2.872295e+02	-2.709202e+01
2.888886e+02	-2.714229e+01
2.905572e+02	-2.719464e+01
2.922354e+02	-2.724739e+01
2.939234e+02	-2.729245e+01
2.956211e+02	-2.734318e+01
2.973286e+02	-2.739425e+01
2.990459e+02	-2.744415e+01
3.007732e+02	-2.749231e+01
3.025104e+02	-2.753979e+01
3.042577e+02	-2.759238e+01
3.060151e+02	-2.764303e+01
3.077826e+02	-2.769247e+01
3.095604e+02	-2.773800e+01
3.113484e+02	-2.779047e+01
3.131467e+02	-2.784335e+01
3.149554e+02	-2.789491e+01
3.167746e+02	-2.794223e+01
3.186043e+02	-2.799942e+01
3.204445e+02	-2.804537e+01
3.222954e+02	-2.809053e+01
3.241570e+02	-2.814385e+01
3.260293e+02	-2.819281e+01
3.279124e+02	-2.824074e+01
3.298064e+02	-2.829493e+01
3.317114e+02	-2.834472e+01
3.336273e+02	-2.839178e+01
3.355544e+02	-2.844637e+01
3.374925e+02	-2.849154e+01
3.394418e+02	-2.854298e+01
3.414024e+02	-2.859227e+01
3.433744e+02	-2.864413e+01
3.453577e+02	-2.869334e+01
3.473525e+02	-2.874125e+01
3.493588e+02	-2.879217e+01
3.513766e+02	-2.884376e+01
3.534062e+02	-2.889361e+01
3.554474e+02	-2.894833e+01
3.575005e+02	-2.899580e+01
3.595654e+02	-2.904428e+01
3.616422e+02	-2.909314e+01
3.637311e+02	-2.914243e+01
3.658320e+02	-2.919353e+01
3.679450e+02	-2.924025e+01
3.700702e+02	-2.929467e+01
3.722077e+02	-2.934662e+01
3.743576e+02	-2.939041e+01
3.765199e+02	-2.943891e+01
3.786946e+02	-2.949968e+01
3.808820e+02	-2.954627e+01
3.830819e+02	-2.959973e+01
3.852946e+02	-2.964625e+01
3.875200e+02	-2.969971e+01
3.897583e+02	-2.974383e+01
3.920096e+02	-2.979559e+01
3.942738e+02	-2.984391e+01
3.965511e+02	-2.989695e+01
3.988416e+02	-2.994139e+01
4.011452e+02	-2.999546e+01
4.034622e+02	-3.004979e+01
4.057926e+02	-3.009764e+01
4.081365e+02	-3.014726e+01
4.104938e+02	-3.020033e+01
4.128648e+02	-3.024573e+01
4.152495e+02	-3.029425e+01
4.176480e+02	-3.035097e+01
4.200603e+02	-3.039570e+01
4.224866e+02	-3.044953e+01
4.249268e+02	-3.049610e+01
4.273812e+02	-3.054432e+01
4.298497e+02	-3.060206e+01
4.323325e+02	-3.064458e+01
4.348297e+02	-3.069938e+01
4.373412e+02	-3.074921e+01
4.398673e+02	-3.079140e+01
4.424079e+02	-3.084894e+01
4.449633e+02	-3.090455e+01
4.475334e+02	-3.094547e+01
4.501183e+02	-3.100274e+01
4.527182e+02	-3.104088e+01
4.553330e+02	-3.109553e+01
4.579630e+02	-3.114782e+01
4.606082e+02	-3.119927e+01
4.632687e+02	-3.124804e+01
4.659445e+02	-3.130033e+01
4.686358e+02	-3.134584e+01
4.713426e+02	-3.139343e+01
4.740650e+02	-3.145069e+01
4.768032e+02	-3.149783e+01
4.795572e+02	-3.154751e+01
4.823271e+02	-3.159479e+01
4.851130e+02	-3.164891e+01
4.879150e+02	-3.170233e+01
4.907332e+02	-3.174696e+01
4.935676e+02	-3.179439e+01
4.964185e+02	-3.185192e+01
4.992858e+02	-3.190387e+01
5.021696e+02	-3.194441e+01
5.050701e+02	-3.200301e+01
5.079874e+02	-3.204913e+01
5.109215e+02	-3.210033e+01
5.138726e+02	-3.215279e+01
5.168407e+02	-3.220007e+01
5.198259e+02	-3.225098e+01
5.228284e+02	-3.230687e+01
5.258482e+02	-3.235644e+01
5.288855e+02	-3.239924e+01
5.319403e+02	-3.244952e+01
5.350128e+02	-3.250384e+01
5.381030e+02	-3.255429e+01
5.412111e+02	-3.260688e+01
5.443371e+02	-3.265606e+01
5.474812e+02	-3.270370e+01
5.506434e+02	-3.275628e+01
5.538239e+02	-3.280890e+01
5.570228e+02	-3.285122e+01
5.602401e+02	-3.290019e+01
5.634760e+02	-3.295937e+01
5.667306e+02	-3.301143e+01
5.700040e+02	-3.304980e+01
5.732964e+02	-3.310289e+01
5.766077e+02	-3.316154e+01
5.799382e+02	-3.320964e+01
5.832879e+02	-3.325097e+01
5.866569e+02	-3.331288e+01
5.900454e+02	-3.335210e+01
5.934535e+02	-3.340903e+01
5.968813e+02	-3.346029e+01
6.003288e+02	-3.351118e+01
6.037963e+02	-3.355560e+01
6.072838e+02	-3.360998e+01
6.107914e+02	-3.366465e+01
6.143194e+02	-3.371159e+01
6.178676e+02	-3.375441e+01
6.214364e+02	-3.381019e+01
6.250258e+02	-3.385920e+01
6.286359e+02	-3.391554e+01
6.322669e+02	-3.395981e+01
6.359189e+02	-3.400375e+01
6.395919e+02	-3.406136e+01
6.432862e+02	-3.411353e+01
6.470017e+02	-3.416579e+01
6.507388e+02	-3.421876e+01
6.544974e+02	-3.426042e+01
6.582778e+02	-3.431419e+01
6.620800e+02	-3.436171e+01
6.659041e+02	-3.441859e+01
6.697504e+02	-3.446578e+01
6.736188e+02	-3.451584e+01
6.775096e+02	-3.457117e+01
6.814229e+02	-3.461097e+01
6.853587e+02	-3.466103e+01
6.893173e+02	-3.471476e+01
6.932988e+02	-3.476612e+01
6.973033e+02	-3.481142e+01
7.013309e+02	-3.487729e+01
