Frequency(Hz)	Magnitude(dB)
1.000000e+01	-2.065514e+00
1.005776e+01	-2.084411e+00
1.011585e+01	-2.103611e+00
1.017428e+01	-2.122722e+00
1.023305e+01	-2.142064e+00
1.029215e+01	-2.161760e+00
1.035160e+01	-2.181552e+00
1.041139e+01	-2.201135e+00
1.047153e+01	-2.221051e+00
1.053201e+01	-2.241471e+00
1.059284e+01	-2.261660e+00
1.065403e+01	-2.282155e+00
1.071556e+01	-2.302486e+00
1.077746e+01	-2.323155e+00
1.083971e+01	-2.344008e+00
1.090232e+01	-2.364758e+00
1.096529e+01	-2.385882e+00
1.102862e+01	-2.407067e+00
1.109232e+01	-2.428286e+00
1.115639e+01	-2.449794e+00
1.122083e+01	-2.471671e+00
1.128564e+01	-2.493390e+00
1.135083e+01	-2.515495e+00
1.141639e+01	-2.537481e+00
1.148233e+01	-2.559632e+00
1.154865e+01	-2.582062e+00
1.161536e+01	-2.604351e+00
1.168245e+01	-2.627058e+00
1.174992e+01	-2.650049e+00
1.181779e+01	-2.672900e+00
1.188605e+01	-2.695835e+00
1.195470e+01	-2.719252e+00
1.202375e+01	-2.742293e+00
1.209320e+01	-2.765775e+00
1.216305e+01	-2.789454e+00
1.223330e+01	-2.813352e+00
1.230396e+01	-2.837279e+00
1.237503e+01	-2.861321e+00
1.244651e+01	-2.885565e+00
1.251840e+01	-2.909692e+00
1.259070e+01	-2.934323e+00
1.266343e+01	-2.958861e+00
1.273657e+01	-2.983538e+00
1.281014e+01	-3.008798e+00
1.288413e+01	-3.033972e+00
1.295855e+01	-3.058972e+00
1.303339e+01	-3.084365e+00
1.310867e+01	-3.109928e+00
1.318439e+01	-3.135851e+00
1.326054e+01	-3.161337e+00
1.333713e+01	-3.187484e+00
1.341417e+01	-3.213298e+00
1.349165e+01	-3.239735e+00
1.356958e+01	-3.266045e+00
1.364795e+01	-3.292432e+00
1.372678e+01	-3.319295e+00
1.380607e+01	-3.345727e+00
1.388581e+01	-3.372871e+00
1.396602e+01	-3.400110e+00
1.404668e+01	-3.427239e+00
1.412782e+01	-3.454289e+00
1.420942e+01	-3.482243e+00
1.429149e+01	-3.509497e+00
1.437404e+01	-3.537656e+00
1.445706e+01	-3.565359e+00
1.454057e+01	-3.593562e+00
1.462455e+01	-3.621560e+00
1.470902e+01	-3.650095e+00
1.479398e+01	-3.678709e+00
1.487943e+01	-3.707446e+00
1.496537e+01	-3.736006e+00
1.505181e+01	-3.765146e+00
1.513875e+01	-3.794403e+00
1.522619e+01	-3.823313e+00
1.531414e+01	-3.852605e+00
1.540259e+01	-3.882346e+00
1.549156e+01	-3.911873e+00
1.558103e+01	-3.941584e+00
1.567103e+01	-3.971583e+00
1.576155e+01	-4.001490e+00
1.585258e+01	-4.031742e+00
1.594415e+01	-4.061735e+00
1.603624e+01	-4.092347e+00
1.612886e+01	-4.122971e+00
1.622202e+01	-4.153669e+00
1.631572e+01	-4.184731e+00
1.640996e+01	-4.215675e+00
1.650474e+01	-4.246798e+00
1.660008e+01	-4.278054e+00
1.669596e+01	-4.309572e+00
1.679239e+01	-4.341163e+00
1.688938e+01	-4.372655e+00
1.698694e+01	-4.404850e+00
1.708505e+01	-4.436431e+00
1.718373e+01	-4.468540e+00
1.728299e+01	-4.500795e+00
1.738281e+01	-4.532978e+00
1.748322e+01	-4.565447e+00
1.758420e+01	-4.598373e+00
1.768576e+01	-4.630999e+00
1.778792e+01	-4.663808e+00
1.789066e+01	-4.696629e+00
1.799399e+01	-4.729709e+00
1.809793e+01	-4.763236e+00
1.820246e+01	-4.796519e+00
1.830760e+01	-4.830002e+00
1.841334e+01	-4.863809e+00
1.851969e+01	-4.897727e+00
1.862666e+01	-4.931348e+00
1.873425e+01	-4.965448e+00
1.884246e+01	-4.999421e+00
1.895129e+01	-5.033890e+00
1.906075e+01	-5.068074e+00
1.917085e+01	-5.102665e+00
1.928158e+01	-5.137531e+00
1.939295e+01	-5.171829e+00
1.950496e+01	-5.206843e+00
1.961762e+01	-5.242192e+00
1.973093e+01	-5.277265e+00
1.984490e+01	-5.312418e+00
1.995952e+01	-5.347959e+00
2.007480e+01	-5.383359e+00
2.019076e+01	-5.418633e+00
2.030738e+01	-5.454526e+00
2.042467e+01	-5.490269e+00
2.054264e+01	-5.526354e+00
2.066130e+01	-5.562345e+00
2.078064e+01	-5.598860e+00
2.090066e+01	-5.634879e+00
2.102139e+01	-5.671402e+00
2.114280e+01	-5.707844e+00
2.126492e+01	-5.744605e+00
2.138775e+01	-5.781572e+00
2.151128e+01	-5.818039e+00
2.163553e+01	-5.855350e+00
2.176050e+01	-5.892288e+00
2.188619e+01	-5.929172e+00
2.201260e+01	-5.966689e+00
2.213974e+01	-6.003904e+00
2.226762e+01	-6.041804e+00
2.239624e+01	-6.079117e+00
2.252560e+01	-6.117075e+00
2.265571e+01	-6.155115e+00
2.278656e+01	-6.192537e+00
2.291818e+01	-6.230817e+00
2.305055e+01	-6.269083e+00
2.318369e+01	-6.307270e+00
2.331760e+01	-6.345501e+00
2.345228e+01	-6.384508e+00
2.358774e+01	-6.422639e+00
2.372398e+01	-6.461403e+00
2.386101e+01	-6.500281e+00
2.399883e+01	-6.538974e+00
2.413745e+01	-6.578129e+00
2.427686e+01	-6.616967e+00
2.441709e+01	-6.655965e+00
2.455812e+01	-6.695298e+00
2.469997e+01	-6.734858e+00
2.484263e+01	-6.774353e+00
2.498612e+01	-6.814005e+00
2.513044e+01	-6.853630e+00
2.527559e+01	-6.893422e+00
2.542158e+01	-6.933330e+00
2.556842e+01	-6.973162e+00
2.571610e+01	-7.013223e+00
2.586463e+01	-7.053302e+00
2.601403e+01	-7.093270e+00
2.616428e+01	-7.134042e+00
2.631541e+01	-7.174388e+00
2.646740e+01	-7.214570e+00
2.662028e+01	-7.254851e+00
2.677404e+01	-7.295544e+00
2.692868e+01	-7.336471e+00
2.708422e+01	-7.377413e+00
2.724066e+01	-7.418640e+00
2.739800e+01	-7.459335e+00
2.755625e+01	-7.500556e+00
2.771541e+01	-7.541607e+00
2.787550e+01	-7.583041e+00
2.803650e+01	-7.624201e+00
2.819844e+01	-7.665763e+00
2.836131e+01	-7.707020e+00
2.852513e+01	-7.748646e+00
2.868989e+01	-7.790160e+00
2.885560e+01	-7.832299e+00
2.902227e+01	-7.874132e+00
2.918990e+01	-7.915722e+00
2.935850e+01	-7.957878e+00
2.952807e+01	-7.999932e+00
2.969863e+01	-8.042133e+00
2.987016e+01	-8.084491e+00
3.004269e+01	-8.126749e+00
3.021622e+01	-8.168673e+00
3.039075e+01	-8.211085e+00
3.056628e+01	-8.253864e+00
3.074283e+01	-8.296675e+00
3.092040e+01	-8.339182e+00
3.109900e+01	-8.381701e+00
3.127862e+01	-8.424780e+00
3.145929e+01	-8.467499e+00
3.164099e+01	-8.510116e+00
3.182375e+01	-8.553749e+00
3.200756e+01	-8.596482e+00
3.219244e+01	-8.639829e+00
3.237838e+01	-8.683066e+00
3.256540e+01	-8.726117e+00
3.275349e+01	-8.769716e+00
3.294268e+01	-8.812532e+00
3.313295e+01	-8.856331e+00
3.332433e+01	-8.899709e+00
3.351681e+01	-8.943713e+00
3.371040e+01	-8.987481e+00
3.390511e+01	-9.030973e+00
3.410094e+01	-9.074285e+00
3.429791e+01	-9.118752e+00
3.449601e+01	-9.162489e+00
3.469526e+01	-9.206476e+00
3.489566e+01	-9.250529e+00
3.509721e+01	-9.295197e+00
3.529993e+01	-9.338805e+00
3.550382e+01	-9.383543e+00
3.570889e+01	-9.427520e+00
3.591515e+01	-9.471521e+00
3.612259e+01	-9.516010e+00
3.633123e+01	-9.560650e+00
3.654108e+01	-9.605296e+00
3.675214e+01	-9.649917e+00
3.696442e+01	-9.694602e+00
3.717792e+01	-9.739146e+00
3.739266e+01	-9.784141e+00
3.760864e+01	-9.828653e+00
3.782587e+01	-9.873363e+00
3.804435e+01	-9.918801e+00
3.826409e+01	-9.962909e+00
3.848510e+01	-1.000784e+01
3.870739e+01	-1.005324e+01
3.893096e+01	-1.009858e+01
3.915583e+01	-1.014363e+01
3.938199e+01	-1.018928e+01
3.960946e+01	-1.023389e+01
3.983824e+01	-1.027885e+01
4.006834e+01	-1.032456e+01
4.029978e+01	-1.037083e+01
4.053255e+01	-1.041585e+01
4.076666e+01	-1.046102e+01
4.100213e+01	-1.050609e+01
4.123896e+01	-1.055228e+01
4.147715e+01	-1.059820e+01
4.171672e+01	-1.064435e+01
4.195767e+01	-1.068962e+01
4.220002e+01	-1.073516e+01
4.244377e+01	-1.078108e+01
4.268892e+01	-1.082693e+01
4.293549e+01	-1.087279e+01
4.318348e+01	-1.091823e+01
4.343291e+01	-1.096518e+01
4.368377e+01	-1.101041e+01
4.393609e+01	-1.105701e+01
4.418986e+01	-1.110269e+01
4.444510e+01	-1.114913e+01
4.470182e+01	-1.119519e+01
4.496001e+01	-1.124137e+01
4.521970e+01	-1.128815e+01
4.548089e+01	-1.133408e+01
4.574358e+01	-1.138140e+01
4.600779e+01	-1.142722e+01
4.627353e+01	-1.147372e+01
4.654081e+01	-1.151934e+01
4.680963e+01	-1.156659e+01
4.708000e+01	-1.161252e+01
4.735193e+01	-1.165963e+01
4.762543e+01	-1.170614e+01
4.790051e+01	-1.175256e+01
4.817719e+01	-1.179912e+01
4.845545e+01	-1.184622e+01
4.873533e+01	-1.189339e+01
4.901682e+01	-1.193968e+01
4.929994e+01	-1.198576e+01
4.958470e+01	-1.203378e+01
4.987110e+01	-1.208085e+01
5.015915e+01	-1.212702e+01
5.044887e+01	-1.217395e+01
5.074026e+01	-1.222178e+01
5.103333e+01	-1.226875e+01
5.132810e+01	-1.231629e+01
5.162457e+01	-1.236249e+01
5.192275e+01	-1.240965e+01
5.222265e+01	-1.245675e+01
5.252429e+01	-1.250412e+01
5.282767e+01	-1.255172e+01
5.313280e+01	-1.259898e+01
5.343969e+01	-1.264548e+01
5.374836e+01	-1.269300e+01
5.405880e+01	-1.274084e+01
5.437105e+01	-1.278784e+01
5.468509e+01	-1.283592e+01
5.500095e+01	-1.288214e+01
5.531863e+01	-1.292976e+01
5.563815e+01	-1.297841e+01
5.595951e+01	-1.302571e+01
5.628273e+01	-1.307340e+01
5.660782e+01	-1.312026e+01
5.693479e+01	-1.316782e+01
5.726364e+01	-1.321568e+01
5.759439e+01	-1.326180e+01
5.792705e+01	-1.331104e+01
5.826164e+01	-1.335891e+01
5.859815e+01	-1.340618e+01
5.893662e+01	-1.345424e+01
5.927703e+01	-1.350213e+01
5.961941e+01	-1.354937e+01
5.996377e+01	-1.359729e+01
6.031012e+01	-1.364554e+01
6.065847e+01	-1.369436e+01
6.100883e+01	-1.374064e+01
6.136121e+01	-1.378894e+01
6.171563e+01	-1.383726e+01
6.207210e+01	-1.388509e+01
6.243063e+01	-1.393398e+01
6.279122e+01	-1.398140e+01
6.315390e+01	-1.402939e+01
6.351868e+01	-1.407735e+01
6.388556e+01	-1.412557e+01
6.425456e+01	-1.417373e+01
6.462569e+01	-1.422179e+01
6.499897e+01	-1.427093e+01
6.537440e+01	-1.431807e+01
6.575200e+01	-1.436592e+01
6.613178e+01	-1.441528e+01
6.651375e+01	-1.446209e+01
6.689793e+01	-1.451023e+01
6.728433e+01	-1.455950e+01
6.767297e+01	-1.460702e+01
6.806384e+01	-1.465528e+01
6.845698e+01	-1.470356e+01
6.885238e+01	-1.475217e+01
6.925007e+01	-1.480024e+01
6.965005e+01	-1.484857e+01
7.005235e+01	-1.489816e+01
7.045697e+01	-1.494643e+01
7.086393e+01	-1.499415e+01
7.127323e+01	-1.504340e+01
7.168490e+01	-1.509149e+01
7.209895e+01	-1.513955e+01
7.251539e+01	-1.518820e+01
7.293424e+01	-1.523624e+01
7.335551e+01	-1.528447e+01
7.377920e+01	-1.533439e+01
7.420535e+01	-1.538223e+01
7.463396e+01	-1.543186e+01
7.506504e+01	-1.547956e+01
7.549861e+01	-1.552855e+01
7.593469e+01	-1.557738e+01
7.637328e+01	-1.562568e+01
7.681441e+01	-1.567468e+01
7.725809e+01	-1.572239e+01
7.770433e+01	-1.577079e+01
7.815315e+01	-1.582072e+01
7.860456e+01	-1.586913e+01
7.905857e+01	-1.591841e+01
7.951521e+01	-1.596748e+01
7.997449e+01	-1.601552e+01
8.043642e+01	-1.606446e+01
8.090102e+01	-1.611209e+01
8.136830e+01	-1.616152e+01
8.183828e+01	-1.621110e+01
8.231097e+01	-1.625953e+01
8.278640e+01	-1.630829e+01
8.326457e+01	-1.635676e+01
8.374550e+01	-1.640540e+01
8.422921e+01	-1.645463e+01
8.471572e+01	-1.650257e+01
8.520503e+01	-1.655218e+01
8.569717e+01	-1.660190e+01
8.619215e+01	-1.665112e+01
8.669000e+01	-1.669872e+01
8.719071e+01	-1.674841e+01
8.769432e+01	-1.679742e+01
8.820084e+01	-1.684613e+01
8.871029e+01	-1.689409e+01
8.922267e+01	-1.694573e+01
8.973802e+01	-1.699384e+01
9.025634e+01	-1.704221e+01
9.077766e+01	-1.709054e+01
9.130199e+01	-1.714096e+01
9.182935e+01	-1.718900e+01
9.235975e+01	-1.723725e+01
9.289321e+01	-1.728652e+01
9.342976e+01	-1.733653e+01
9.396941e+01	-1.738646e+01
9.451217e+01	-1.743568e+01
9.505807e+01	-1.748480e+01
9.560712e+01	-1.753433e+01
9.615934e+01	-1.758366e+01
9.671476e+01	-1.763214e+01
9.727338e+01	-1.768193e+01
9.783522e+01	-1.772935e+01
9.840032e+01	-1.778054e+01
9.896867e+01	-1.782918e+01
9.954031e+01	-1.787694e+01
1.001153e+02	-1.792801e+01
1.006935e+02	-1.797754e+01
1.012751e+02	-1.802467e+01
1.018601e+02	-1.807375e+01
1.024484e+02	-1.812424e+01
1.030402e+02	-1.817269e+01
1.036353e+02	-1.822316e+01
1.042339e+02	-1.827181e+01
1.048360e+02	-1.832126e+01
1.054415e+02	-1.837122e+01
1.060505e+02	-1.841987e+01
1.066631e+02	-1.846983e+01
1.072791e+02	-1.851935e+01
1.078988e+02	-1.856752e+01
1.085220e+02	-1.861629e+01
1.091488e+02	-1.866507e+01
1.097793e+02	-1.871514e+01
1.104133e+02	-1.876481e+01
1.110511e+02	-1.881466e+01
1.116925e+02	-1.886424e+01
1.123376e+02	-1.891301e+01
1.129865e+02	-1.896460e+01
1.136391e+02	-1.901183e+01
1.142955e+02	-1.906231e+01
1.149556e+02	-1.911198e+01
1.156196e+02	-1.916009e+01
1.162874e+02	-1.921067e+01
1.169591e+02	-1.925955e+01
1.176347e+02	-1.931039e+01
1.183141e+02	-1.935705e+01
1.189975e+02	-1.940673e+01
1.196848e+02	-1.945734e+01
1.203761e+02	-1.950467e+01
1.210714e+02	-1.955546e+01
1.217707e+02	-1.960475e+01
1.224740e+02	-1.965460e+01
1.231814e+02	-1.970506e+01
1.238929e+02	-1.975412e+01
1.246085e+02	-1.980465e+01
1.253283e+02	-1.985284e+01
1.260522e+02	-1.990204e+01
1.267802e+02	-1.995158e+01
1.275125e+02	-2.000200e+01
1.282490e+02	-2.005082e+01
1.289898e+02	-2.009967e+01
1.297348e+02	-2.014962e+01
1.304842e+02	-2.020027e+01
1.312378e+02	-2.024797e+01
1.319959e+02	-2.029848e+01
1.327583e+02	-2.034818e+01
1.335251e+02	-2.039816e+01
1.342963e+02	-2.044542e+01
1.350720e+02	-2.049693e+01
1.358522e+02	-2.054605e+01
1.366368e+02	-2.059706e+01
1.374260e+02	-2.064496e+01
1.382198e+02	-2.069605e+01
1.390182e+02	-2.074528e+01
1.398211e+02	-2.079462e+01
1.406287e+02	-2.084454e+01
1.414410e+02	-2.089349e+01
1.422579e+02	-2.094525e+01
1.430796e+02	-2.099259e+01
1.439060e+02	-2.104352e+01
1.447372e+02	-2.109195e+01
1.455732e+02	-2.114185e+01
1.464141e+02	-2.119148e+01
1.472597e+02	-2.124247e+01
1.481103e+02	-2.129246e+01
1.489658e+02	-2.134021e+01
1.498262e+02	-2.139035e+01
1.506916e+02	-2.144155e+01
1.515620e+02	-2.149120e+01
1.524374e+02	-2.154118e+01
1.533179e+02	-2.158860e+01
1.542034e+02	-2.163997e+01
1.550941e+02	-2.168814e+01
1.559899e+02	-2.173795e+01
1.568909e+02	-2.178742e+01
1.577971e+02	-2.183493e+01
1.587085e+02	-2.188897e+01
1.596252e+02	-2.193583e+01
1.605472e+02	-2.198613e+01
1.614745e+02	-2.203767e+01
1.624072e+02	-2.208627e+01
1.633453e+02	-2.213604e+01
1.642887e+02	-2.218654e+01
1.652377e+02	-2.223595e+01
1.661921e+02	-2.228705e+01
1.671520e+02	-2.233768e+01
1.681175e+02	-2.238566e+01
1.690885e+02	-2.243171e+01
1.700651e+02	-2.248332e+01
1.710474e+02	-2.253467e+01
1.720354e+02	-2.258625e+01
1.730291e+02	-2.263397e+01
1.740285e+02	-2.268274e+01
1.750337e+02	-2.273584e+01
1.760446e+02	-2.278284e+01
1.770615e+02	-2.283109e+01
1.780842e+02	-2.288018e+01
1.791128e+02	-2.293384e+01
1.801473e+02	-2.298183e+01
1.811878e+02	-2.303396e+01
1.822344e+02	-2.308179e+01
1.832870e+02	-2.313342e+01
1.843456e+02	-2.318196e+01
1.854104e+02	-2.323325e+01
1.864813e+02	-2.328180e+01
1.875584e+02	-2.332989e+01
1.886418e+02	-2.338177e+01
1.897313e+02	-2.343140e+01
1.908272e+02	-2.348098e+01
1.919294e+02	-2.353195e+01
1.930380e+02	-2.357967e+01
1.941530e+02	-2.362908e+01
1.952744e+02	-2.367903e+01
1.964023e+02	-2.372981e+01
1.975367e+02	-2.378098e+01
1.986777e+02	-2.383064e+01
1.998252e+02	-2.387775e+01
2.009794e+02	-2.393120e+01
2.021403e+02	-2.397779e+01
2.033078e+02	-2.403165e+01
2.044821e+02	-2.407910e+01
2.056632e+02	-2.412949e+01
2.068511e+02	-2.417830e+01
2.080459e+02	-2.422654e+01
2.092475e+02	-2.427732e+01
2.104561e+02	-2.432831e+01
2.116717e+02	-2.437985e+01
2.128943e+02	-2.442870e+01
2.141240e+02	-2.447898e+01
2.153608e+02	-2.452680e+01
2.166047e+02	-2.457784e+01
2.178558e+02	-2.462727e+01
2.191141e+02	-2.467759e+01
2.203797e+02	-2.472501e+01
2.216526e+02	-2.477762e+01
2.229329e+02	-2.482669e+01
2.242205e+02	-2.487879e+01
2.255156e+02	-2.492527e+01
2.268182e+02	-2.497617e+01
2.281283e+02	-2.502820e+01
2.294459e+02	-2.507702e+01
2.307712e+02	-2.512198e+01
2.321041e+02	-2.517853e+01
2.334447e+02	-2.522458e+01
2.347931e+02	-2.527771e+01
2.361493e+02	-2.532577e+01
2.375133e+02	-2.537630e+01
2.388851e+02	-2.542521e+01
2.402649e+02	-2.547418e+01
2.416527e+02	-2.552566e+01
2.430484e+02	-2.557717e+01
2.444523e+02	-2.562391e+01
2.458642e+02	-2.567609e+01
2.472843e+02	-2.572633e+01
2.487126e+02	-2.577321e+01
2.501492e+02	-2.582469e+01
2.515940e+02	-2.587382e+01
2.530472e+02	-2.592798e+01
2.545088e+02	-2.597376e+01
2.559789e+02	-2.602540e+01
2.574574e+02	-2.607722e+01
2.589444e+02	-2.612819e+01
2.604401e+02	-2.617423e+01
2.619444e+02	-2.622371e+01
2.634574e+02	-2.627506e+01
2.649791e+02	-2.632804e+01
2.665096e+02	-2.637479e+01
2.680489e+02	-2.642560e+01
2.695972e+02	-2.647398e+01
2.711544e+02	-2.652243e+01
2.727205e+02	-2.657621e+01
2.742958e+02	-2.662712e+01
2.758801e+02	-2.667684e+01
2.774736e+02	-2.672768e+01
2.790762e+02	-2.677662e+01
2.806882e+02	-2.682084e+01
2.823094e+02	-2.687781e+01
2.839400e+02	-2.692414e+01
2.855800e+02	-2.697848e+01
2.872295e+02	-2.702059e+01
2.888886e+02	-2.707424e+01
2.905572e+02	-2.712340e+01
2.922354e+02	-2.717644e+01
2.939234e+02	-2.722416e+01
2.956211e+02	-2.727351e+01
2.973286e+02	-2.732962e+01
2.990459e+02	-2.737725e+01
3.007732e+02	-2.742871e+01
3.025104e+02	-2.747438e+01
3.042577e+02	-2.752222e+01
3.060151e+02	-2.757656e+01
3.077826e+02	-2.762573e+01
3.095604e+02	-2.767419e+01
3.113484e+02	-2.772514e+01
3.131467e+02	-2.777333e+01
3.149554e+02	-2.782520e+01
3.167746e+02	-2.787147e+01
3.186043e+02	-2.792432e+01
3.204445e+02	-2.797414e+01
3.222954e+02	-2.802864e+01
3.241570e+02	-2.807813e+01
3.260293e+02	-2.812920e+01
3.279124e+02	-2.817410e+01
3.298064e+02	-2.822586e+01
3.317114e+02	-2.827328e+01
3.336273e+02	-2.832422e+01
3.355544e+02	-2.837931e+01
3.374925e+02	-2.842522e+01
3.394418e+02	-2.847265e+01
3.414024e+02	-2.852637e+01
3.433744e+02	-2.857682e+01
3.453577e+02	-2.862496e+01
3.473525e+02	-2.867812e+01
3.493588e+02	-2.872669e+01
3.513766e+02	-2.877372e+01
3.534062e+02	-2.882259e+01
3.554474e+02	-2.887478e+01
3.575005e+02	-2.892206e+01
3.595654e+02	-2.898124e+01
3.616422e+02	-2.902568e+01
3.637311e+02	-2.907392e+01
3.658320e+02	-2.912929e+01
3.679450e+02	-2.918023e+01
3.700702e+02	-2.922428e+01
3.722077e+02	-2.927701e+01
3.743576e+02	-2.932778e+01
3.765199e+02	-2.937290e+01
3.786946e+02	-2.942848e+01
3.808820e+02	-2.947687e+01
3.830819e+02	-2.952616e+01
3.852946e+02	-2.958181e+01
3.875200e+02	-2.962759e+01
3.897583e+02	-2.967415e+01
3.920096e+02	-2.972507e+01
3.942738e+02	-2.977705e+01
3.965511e+02	-2.982463e+01
3.988416e+02	-2.987352e+01
4.011452e+02	-2.992662e+01
4.034622e+02	-2.997938e+01
4.057926e+02	-3.002933e+01
4.081365e+02	-3.007916e+01
4.104938e+02	-3.012805e+01
4.128648e+02	-3.018042e+01
4.152495e+02	-3.022737e+01
4.176480e+02	-3.028244e+01
4.200603e+02	-3.032619e+01
4.224866e+02	-3.037872e+01
4.249268e+02	-3.043491e+01
4.273812e+02	-3.047694e+01
4.298497e+02	-3.052869e+01
4.323325e+02	-3.058347e+01
4.348297e+02	-3.062961e+01
4.373412e+02	-3.067643e+01
4.398673e+02	-3.073506e+01
4.424079e+02	-3.078469e+01
4.449633e+02	-3.083336e+01
4.475334e+02	-3.087753e+01
4.501183e+02	-3.093570e+01
4.527182e+02	-3.097948e+01
4.553330e+02	-3.103366e+01
4.579630e+02	-3.107902e+01
4.606082e+02	-3.113168e+01
4.632687e+02	-3.118020e+01
4.659445e+02	-3.123005e+01
4.686358e+02	-3.127800e+01
4.713426e+02	-3.133424e+01
4.740650e+02	-3.138407e+01
4.768032e+02	-3.142979e+01
4.795572e+02	-3.147819e+01
4.823271e+02	-3.153077e+01
4.851130e+02	-3.157974e+01
4.879150e+02	-3.163613e+01
4.907332e+02	-3.168688e+01
4.935676e+02	-3.173070e+01
4.964185e+02	-3.177936e+01
4.992858e+02	-3.183941e+01
5.021696e+02	-3.188146e+01
5.050701e+02	-3.193563e+01
5.079874e+02	-3.198677e+01
5.109215e+02	-3.204003e+01
5.138726e+02	-3.208550e+01
5.168407e+02	-3.213620e+01
5.198259e+02	-3.219000e+01
5.228284e+02	-3.223630e+01
5.258482e+02	-3.229127e+01
5.288855e+02	-3.233876e+01
5.319403e+02	-3.239083e+01
5.350128e+02	-3.243715e+01
5.381030e+02	-3.248754e+01
5.412111e+02	-3.253395e+01
5.443371e+02	-3.258778e+01
5.474812e+02	-3.263252e+01
5.506434e+02	-3.269324e+01
5.538239e+02	-3.274241e+01
5.570228e+02	-3.278763e+01
5.602401e+02	-3.283889e+01
5.634760e+02	-3.288337e+01
5.667306e+02	-3.294031e+01
5.700040e+02	-3.298382e+01
5.732964e+02	-3.305070e+01
5.766077e+02	-3.309608e+01
5.799382e+02	-3.313608e+01
5.832879e+02	-3.318531e+01
5.866569e+02	-3.324045e+01
5.900454e+02	-3.329848e+01
5.934535e+02	-3.334312e+01
5.968813e+02	-3.338635e+01
6.003288e+02	-3.344209e+01
6.037963e+02	-3.349247e+01
6.072838e+02	-3.354182e+01
6.107914e+02	-3.359827e+01
6.143194e+02	-3.363934e+01
6.178676e+02	-3.369733e+01
6.214364e+02	-3.373937e+01
6.250258e+02	-3.380198e+01
6.286359e+02	-3.384807e+01
6.322669e+02	-3.390331e+01
6.359189e+02	-3.395265e+01
6.395919e+02	-3.398909e+01
6.432862e+02	-3.405032e+01
6.470017e+02	-3.408831e+01
6.507388e+02	-3.415133e+01
6.544974e+02	-3.420184e+01
6.582778e+02	-3.425334e+01
6.620800e+02	-3.429213e+01
6.659041e+02	-3.434405e+01
6.697504e+02	-3.439282e+01
6.736188e+02	-3.444444e+01
6.775096e+02	-3.449872e+01
6.814229e+02	-3.454940e+01
6.853587e+02	-3.459997e+01
6.893173e+02	-3.465558e+01
6.932988e+02	-3.470179e+01
6.973033e+02	-3.475992e+01
7.013309e+02	-3.480134e+01
