Frequency(Hz)	Magnitude(dB)
1.000000e+01	-1.844463e-05
1.005776e+01	-1.865832e-05
1.011585e+01	-1.887448e-05
1.017428e+01	-1.909314e-05
1.023305e+01	-1.931434e-05
1.029215e+01	-1.953810e-05
1.035160e+01	-1.976446e-05
1.041139e+01	-1.999343e-05
1.047153e+01	-2.022506e-05
1.053201e+01	-2.045938e-05
1.059284e+01	-2.069640e-05
1.065403e+01	-2.093618e-05
1.071556e+01	-2.117873e-05
1.077746e+01	-2.142409e-05
1.083971e+01	-2.167229e-05
1.090232e+01	-2.192337e-05
1.096529e+01	-2.217736e-05
1.102862e+01	-2.243429e-05
1.109232e+01	-2.269420e-05
1.115639e+01	-2.295711e-05
1.122083e+01	-2.322308e-05
1.128564e+01	-2.349212e-05
1.135083e+01	-2.376428e-05
1.141639e+01	-2.403960e-05
1.148233e+01	-2.431810e-05
1.154865e+01	-2.459984e-05
1.161536e+01	-2.488483e-05
1.168245e+01	-2.517313e-05
1.174992e+01	-2.546476e-05
1.181779e+01	-2.575978e-05
1.188605e+01	-2.605821e-05
1.195470e+01	-2.636010e-05
1.202375e+01	-2.666549e-05
1.209320e+01	-2.697442e-05
1.216305e+01	-2.728692e-05
1.223330e+01	-2.760305e-05
1.230396e+01	-2.792284e-05
1.237503e+01	-2.824633e-05
1.244651e+01	-2.857357e-05
1.251840e+01	-2.890460e-05
1.259070e+01	-2.923947e-05
1.266343e+01	-2.957822e-05
1.273657e+01	-2.992089e-05
1.281014e+01	-3.026753e-05
1.288413e+01	-3.061818e-05
1.295855e+01	-3.097290e-05
1.303339e+01	-3.133173e-05
1.310867e+01	-3.169472e-05
1.318439e+01	-3.206191e-05
1.326054e+01	-3.243335e-05
1.333713e+01	-3.280910e-05
1.341417e+01	-3.318920e-05
1.349165e+01	-3.357371e-05
1.356958e+01	-3.396267e-05
1.364795e+01	-3.435613e-05
1.372678e+01	-3.475415e-05
1.380607e+01	-3.515679e-05
1.388581e+01	-3.556409e-05
1.396602e+01	-3.597611e-05
1.404668e+01	-3.639290e-05
1.412782e+01	-3.681452e-05
1.420942e+01	-3.724102e-05
1.429149e+01	-3.767247e-05
1.437404e+01	-3.810891e-05
1.445706e+01	-3.855041e-05
1.454057e+01	-3.899703e-05
1.462455e+01	-3.944882e-05
1.470902e+01	-3.990584e-05
1.479398e+01	-4.036816e-05
1.487943e+01	-4.083584e-05
1.496537e+01	-4.130893e-05
1.505181e+01	-4.178750e-05
1.513875e+01	-4.227162e-05
1.522619e+01	-4.276134e-05
1.531414e+01	-4.325674e-05
1.540259e+01	-4.375788e-05
1.549156e+01	-4.426483e-05
1.558103e+01	-4.477765e-05
1.567103e+01	-4.529640e-05
1.576155e+01	-4.582117e-05
1.585258e+01	-4.635202e-05
1.594415e+01	-4.688902e-05
1.603624e+01	-4.743224e-05
1.612886e+01	-4.798175e-05
1.622202e+01	-4.853763e-05
1.631572e+01	-4.909995e-05
1.640996e+01	-4.966878e-05
1.650474e+01	-5.024421e-05
1.660008e+01	-5.082630e-05
1.669596e+01	-5.141513e-05
1.679239e+01	-5.201078e-05
1.688938e+01	-5.261334e-05
1.698694e+01	-5.322288e-05
1.708505e+01	-5.383948e-05
1.718373e+01	-5.446322e-05
1.728299e+01	-5.509418e-05
1.738281e+01	-5.573246e-05
1.748322e+01	-5.637813e-05
1.758420e+01	-5.703129e-05
1.768576e+01	-5.769201e-05
1.778792e+01	-5.836038e-05
1.789066e+01	-5.903650e-05
1.799399e+01	-5.972045e-05
1.809793e+01	-6.041232e-05
1.820246e+01	-6.111221e-05
1.830760e+01	-6.182020e-05
1.841334e+01	-6.253640e-05
1.851969e+01	-6.326090e-05
1.862666e+01	-6.399379e-05
1.873425e+01	-6.473517e-05
1.884246e+01	-6.548514e-05
1.895129e+01	-6.624380e-05
1.906075e+01	-6.701124e-05
1.917085e+01	-6.778758e-05
1.928158e+01	-6.857291e-05
1.939295e+01	-6.936734e-05
1.950496e+01	-7.017098e-05
1.961762e+01	-7.098392e-05
1.973093e+01	-7.180628e-05
1.984490e+01	-7.263817e-05
1.995952e+01	-7.347970e-05
2.007480e+01	-7.433097e-05
2.019076e+01	-7.519211e-05
2.030738e+01	-7.606323e-05
2.042467e+01	-7.694443e-05
2.054264e+01	-7.783585e-05
2.066130e+01	-7.873759e-05
2.078064e+01	-7.964978e-05
2.090066e+01	-8.057253e-05
2.102139e+01	-8.150598e-05
2.114280e+01	-8.245024e-05
2.126492e+01	-8.340544e-05
2.138775e+01	-8.437171e-05
2.151128e+01	-8.534917e-05
2.163553e+01	-8.633795e-05
2.176050e+01	-8.733819e-05
2.188619e+01	-8.835002e-05
2.201260e+01	-8.937357e-05
2.213974e+01	-9.040897e-05
2.226762e+01	-9.145638e-05
2.239624e+01	-9.251591e-05
2.252560e+01	-9.358772e-05
2.265571e+01	-9.467195e-05
2.278656e+01	-9.576874e-05
2.291818e+01	-9.687824e-05
2.305055e+01	-9.800058e-05
2.318369e+01	-9.913594e-05
2.331760e+01	-1.002844e-04
2.345228e+01	-1.014462e-04
2.358774e+01	-1.026215e-04
2.372398e+01	-1.038104e-04
2.386101e+01	-1.050131e-04
2.399883e+01	-1.062297e-04
2.413745e+01	-1.074603e-04
2.427686e+01	-1.087053e-04
2.441709e+01	-1.099646e-04
2.455812e+01	-1.112386e-04
2.469997e+01	-1.125273e-04
2.484263e+01	-1.138310e-04
2.498612e+01	-1.151497e-04
2.513044e+01	-1.164837e-04
2.527559e+01	-1.178332e-04
2.542158e+01	-1.191983e-04
2.556842e+01	-1.205792e-04
2.571610e+01	-1.219762e-04
2.586463e+01	-1.233893e-04
2.601403e+01	-1.248188e-04
2.616428e+01	-1.262648e-04
2.631541e+01	-1.277276e-04
2.646740e+01	-1.292073e-04
2.662028e+01	-1.307042e-04
2.677404e+01	-1.322184e-04
2.692868e+01	-1.337502e-04
2.708422e+01	-1.352997e-04
2.724066e+01	-1.368672e-04
2.739800e+01	-1.384528e-04
2.755625e+01	-1.400568e-04
2.771541e+01	-1.416793e-04
2.787550e+01	-1.433207e-04
2.803650e+01	-1.449811e-04
2.819844e+01	-1.466607e-04
2.836131e+01	-1.483598e-04
2.852513e+01	-1.500785e-04
2.868989e+01	-1.518172e-04
2.885560e+01	-1.535760e-04
2.902227e+01	-1.553552e-04
2.918990e+01	-1.571550e-04
2.935850e+01	-1.589757e-04
2.952807e+01	-1.608174e-04
2.969863e+01	-1.626805e-04
2.987016e+01	-1.645652e-04
3.004269e+01	-1.664716e-04
3.021622e+01	-1.684002e-04
3.039075e+01	-1.703512e-04
3.056628e+01	-1.723247e-04
3.074283e+01	-1.743211e-04
3.092040e+01	-1.763406e-04
3.109900e+01	-1.783835e-04
3.127862e+01	-1.804501e-04
3.145929e+01	-1.825406e-04
3.164099e+01	-1.846553e-04
3.182375e+01	-1.867946e-04
3.200756e+01	-1.889586e-04
3.219244e+01	-1.911477e-04
3.237838e+01	-1.933621e-04
3.256540e+01	-1.956022e-04
3.275349e+01	-1.978683e-04
3.294268e+01	-2.001606e-04
3.313295e+01	-2.024795e-04
3.332433e+01	-2.048252e-04
3.351681e+01	-2.071981e-04
3.371040e+01	-2.095985e-04
3.390511e+01	-2.120267e-04
3.410094e+01	-2.144830e-04
3.429791e+01	-2.169678e-04
3.449601e+01	-2.194814e-04
3.469526e+01	-2.220241e-04
3.489566e+01	-2.245962e-04
3.509721e+01	-2.271981e-04
3.529993e+01	-2.298302e-04
3.550382e+01	-2.324928e-04
3.570889e+01	-2.351862e-04
3.591515e+01	-2.379108e-04
3.612259e+01	-2.406670e-04
3.633123e+01	-2.434551e-04
3.654108e+01	-2.462756e-04
3.675214e+01	-2.491286e-04
3.696442e+01	-2.520148e-04
3.717792e+01	-2.549344e-04
3.739266e+01	-2.578878e-04
3.760864e+01	-2.608754e-04
3.782587e+01	-2.638976e-04
3.804435e+01	-2.669548e-04
3.826409e+01	-2.700475e-04
3.848510e+01	-2.731760e-04
3.870739e+01	-2.763407e-04
3.893096e+01	-2.795421e-04
3.915583e+01	-2.827805e-04
3.938199e+01	-2.860565e-04
3.960946e+01	-2.893704e-04
3.983824e+01	-2.927228e-04
4.006834e+01	-2.961139e-04
4.029978e+01	-2.995444e-04
4.053255e+01	-3.030146e-04
4.076666e+01	-3.065249e-04
4.100213e+01	-3.100760e-04
4.123896e+01	-3.136682e-04
4.147715e+01	-3.173020e-04
4.171672e+01	-3.209779e-04
4.195767e+01	-3.246963e-04
4.220002e+01	-3.284579e-04
4.244377e+01	-3.322630e-04
4.268892e+01	-3.361122e-04
4.293549e+01	-3.400060e-04
4.318348e+01	-3.439450e-04
4.343291e+01	-3.479295e-04
4.368377e+01	-3.519602e-04
4.393609e+01	-3.560376e-04
4.418986e+01	-3.601622e-04
4.444510e+01	-3.643346e-04
4.470182e+01	-3.685553e-04
4.496001e+01	-3.728250e-04
4.521970e+01	-3.771441e-04
4.548089e+01	-3.815132e-04
4.574358e+01	-3.859329e-04
4.600779e+01	-3.904039e-04
4.627353e+01	-3.949266e-04
4.654081e+01	-3.995017e-04
4.680963e+01	-4.041299e-04
4.708000e+01	-4.088116e-04
4.735193e+01	-4.135476e-04
4.762543e+01	-4.183384e-04
4.790051e+01	-4.231847e-04
4.817719e+01	-4.280872e-04
4.845545e+01	-4.330465e-04
4.873533e+01	-4.380632e-04
4.901682e+01	-4.431380e-04
4.929994e+01	-4.482716e-04
4.958470e+01	-4.534647e-04
4.987110e+01	-4.587179e-04
5.015915e+01	-4.640320e-04
5.044887e+01	-4.694077e-04
5.074026e+01	-4.748456e-04
5.103333e+01	-4.803465e-04
5.132810e+01	-4.859111e-04
5.162457e+01	-4.915402e-04
5.192275e+01	-4.972345e-04
5.222265e+01	-5.029948e-04
5.252429e+01	-5.088218e-04
5.282767e+01	-5.147163e-04
5.313280e+01	-5.206790e-04
5.343969e+01	-5.267109e-04
5.374836e+01	-5.328126e-04
5.405880e+01	-5.389850e-04
5.437105e+01	-5.452289e-04
5.468509e+01	-5.515451e-04
5.500095e+01	-5.579345e-04
5.531863e+01	-5.643979e-04
5.563815e+01	-5.709362e-04
5.595951e+01	-5.775502e-04
5.628273e+01	-5.842408e-04
5.660782e+01	-5.910090e-04
5.693479e+01	-5.978555e-04
5.726364e+01	-6.047814e-04
5.759439e+01	-6.117874e-04
5.792705e+01	-6.188746e-04
5.826164e+01	-6.260440e-04
5.859815e+01	-6.332963e-04
5.893662e+01	-6.406327e-04
5.927703e+01	-6.480540e-04
5.961941e+01	-6.555614e-04
5.996377e+01	-6.631556e-04
6.031012e+01	-6.708379e-04
6.065847e+01	-6.786091e-04
6.100883e+01	-6.864704e-04
6.136121e+01	-6.944227e-04
6.171563e+01	-7.024671e-04
6.207210e+01	-7.106047e-04
6.243063e+01	-7.188366e-04
6.279122e+01	-7.271638e-04
6.315390e+01	-7.355875e-04
6.351868e+01	-7.441087e-04
6.388556e+01	-7.527287e-04
6.425456e+01	-7.614485e-04
6.462569e+01	-7.702693e-04
6.499897e+01	-7.791923e-04
6.537440e+01	-7.882186e-04
6.575200e+01	-7.973495e-04
6.613178e+01	-8.065862e-04
6.651375e+01	-8.159298e-04
6.689793e+01	-8.253817e-04
6.728433e+01	-8.349431e-04
6.767297e+01	-8.446152e-04
6.806384e+01	-8.543993e-04
6.845698e+01	-8.642968e-04
6.885238e+01	-8.743089e-04
6.925007e+01	-8.844369e-04
6.965005e+01	-8.946823e-04
7.005235e+01	-9.050464e-04
7.045697e+01	-9.155305e-04
7.086393e+01	-9.261360e-04
7.127323e+01	-9.368644e-04
7.168490e+01	-9.477171e-04
7.209895e+01	-9.586954e-04
7.251539e+01	-9.698009e-04
7.293424e+01	-9.810351e-04
7.335551e+01	-9.923993e-04
7.377920e+01	-1.003895e-03
7.420535e+01	-1.015524e-03
7.463396e+01	-1.027288e-03
7.506504e+01	-1.039188e-03
7.549861e+01	-1.051226e-03
7.593469e+01	-1.063403e-03
7.637328e+01	-1.075721e-03
7.681441e+01	-1.088182e-03
7.725809e+01	-1.100788e-03
7.770433e+01	-1.113539e-03
7.815315e+01	-1.126438e-03
7.860456e+01	-1.139486e-03
7.905857e+01	-1.152686e-03
7.951521e+01	-1.166038e-03
7.997449e+01	-1.179545e-03
8.043642e+01	-1.193209e-03
8.090102e+01	-1.207030e-03
8.136830e+01	-1.221012e-03
8.183828e+01	-1.235156e-03
8.231097e+01	-1.249463e-03
8.278640e+01	-1.263937e-03
8.326457e+01	-1.278578e-03
8.374550e+01	-1.293388e-03
8.422921e+01	-1.308370e-03
8.471572e+01	-1.323526e-03
8.520503e+01	-1.338857e-03
8.569717e+01	-1.354365e-03
8.619215e+01	-1.370053e-03
8.669000e+01	-1.385923e-03
8.719071e+01	-1.401977e-03
8.769432e+01	-1.418217e-03
8.820084e+01	-1.434644e-03
8.871029e+01	-1.451262e-03
8.922267e+01	-1.468073e-03
8.973802e+01	-1.485078e-03
9.025634e+01	-1.502280e-03
9.077766e+01	-1.519681e-03
9.130199e+01	-1.537284e-03
9.182935e+01	-1.555091e-03
9.235975e+01	-1.573104e-03
9.289321e+01	-1.591325e-03
9.342976e+01	-1.609758e-03
9.396941e+01	-1.628404e-03
9.451217e+01	-1.647265e-03
9.505807e+01	-1.666346e-03
9.560712e+01	-1.685647e-03
9.615934e+01	-1.705172e-03
9.671476e+01	-1.724923e-03
9.727338e+01	-1.744903e-03
9.783522e+01	-1.765114e-03
9.840032e+01	-1.785559e-03
9.896867e+01	-1.806241e-03
9.954031e+01	-1.827162e-03
1.001153e+02	-1.848326e-03
1.006935e+02	-1.869734e-03
1.012751e+02	-1.891391e-03
1.018601e+02	-1.913299e-03
1.024484e+02	-1.935460e-03
1.030402e+02	-1.957877e-03
1.036353e+02	-1.980555e-03
1.042339e+02	-2.003495e-03
1.048360e+02	-2.026700e-03
1.054415e+02	-2.050175e-03
1.060505e+02	-2.073921e-03
1.066631e+02	-2.097942e-03
1.072791e+02	-2.122241e-03
1.078988e+02	-2.146822e-03
1.085220e+02	-2.171687e-03
1.091488e+02	-2.196840e-03
1.097793e+02	-2.222285e-03
1.104133e+02	-2.248024e-03
1.110511e+02	-2.274061e-03
1.116925e+02	-2.300400e-03
1.123376e+02	-2.327043e-03
1.129865e+02	-2.353995e-03
1.136391e+02	-2.381260e-03
1.142955e+02	-2.408839e-03
1.149556e+02	-2.436739e-03
1.156196e+02	-2.464961e-03
1.162874e+02	-2.493510e-03
1.169591e+02	-2.522390e-03
1.176347e+02	-2.551603e-03
1.183141e+02	-2.581156e-03
1.189975e+02	-2.611050e-03
1.196848e+02	-2.641291e-03
1.203761e+02	-2.671881e-03
1.210714e+02	-2.702826e-03
1.217707e+02	-2.734129e-03
1.224740e+02	-2.765795e-03
1.231814e+02	-2.797827e-03
1.238929e+02	-2.830230e-03
1.246085e+02	-2.863008e-03
1.253283e+02	-2.896166e-03
1.260522e+02	-2.929707e-03
1.267802e+02	-2.963637e-03
1.275125e+02	-2.997960e-03
1.282490e+02	-3.032680e-03
1.289898e+02	-3.067802e-03
1.297348e+02	-3.103330e-03
1.304842e+02	-3.139270e-03
1.312378e+02	-3.175626e-03
1.319959e+02	-3.212403e-03
1.327583e+02	-3.249605e-03
1.335251e+02	-3.287239e-03
1.342963e+02	-3.325308e-03
1.350720e+02	-3.363817e-03
1.358522e+02	-3.402773e-03
1.366368e+02	-3.442179e-03
1.374260e+02	-3.482042e-03
1.382198e+02	-3.522366e-03
1.390182e+02	-3.563156e-03
1.398211e+02	-3.604419e-03
1.406287e+02	-3.646160e-03
1.414410e+02	-3.688384e-03
1.422579e+02	-3.731096e-03
1.430796e+02	-3.774303e-03
1.439060e+02	-3.818010e-03
1.447372e+02	-3.862223e-03
1.455732e+02	-3.906948e-03
1.464141e+02	-3.952190e-03
1.472597e+02	-3.997956e-03
1.481103e+02	-4.044252e-03
1.489658e+02	-4.091084e-03
1.498262e+02	-4.138457e-03
1.506916e+02	-4.186379e-03
1.515620e+02	-4.234856e-03
1.524374e+02	-4.283893e-03
1.533179e+02	-4.333499e-03
1.542034e+02	-4.383678e-03
1.550941e+02	-4.434438e-03
1.559899e+02	-4.485786e-03
1.568909e+02	-4.537727e-03
1.577971e+02	-4.590270e-03
1.587085e+02	-4.643421e-03
1.596252e+02	-4.697187e-03
1.605472e+02	-4.751576e-03
1.614745e+02	-4.806594e-03
1.624072e+02	-4.862248e-03
1.633453e+02	-4.918546e-03
1.642887e+02	-4.975496e-03
1.652377e+02	-5.033105e-03
1.661921e+02	-5.091381e-03
1.671520e+02	-5.150331e-03
1.681175e+02	-5.209963e-03
1.690885e+02	-5.270285e-03
1.700651e+02	-5.331305e-03
1.710474e+02	-5.393031e-03
1.720354e+02	-5.455471e-03
1.730291e+02	-5.518634e-03
1.740285e+02	-5.582528e-03
1.750337e+02	-5.647161e-03
1.760446e+02	-5.712542e-03
1.770615e+02	-5.778679e-03
1.780842e+02	-5.845581e-03
1.791128e+02	-5.913257e-03
1.801473e+02	-5.981717e-03
1.811878e+02	-6.050968e-03
1.822344e+02	-6.121021e-03
1.832870e+02	-6.191884e-03
1.843456e+02	-6.263566e-03
1.854104e+02	-6.336078e-03
1.864813e+02	-6.409429e-03
1.875584e+02	-6.483628e-03
1.886418e+02	-6.558686e-03
1.897313e+02	-6.634612e-03
1.908272e+02	-6.711416e-03
1.919294e+02	-6.789109e-03
1.930380e+02	-6.867700e-03
1.941530e+02	-6.947200e-03
1.952744e+02	-7.027620e-03
1.964023e+02	-7.108970e-03
1.975367e+02	-7.191261e-03
1.986777e+02	-7.274504e-03
1.998252e+02	-7.358709e-03
2.009794e+02	-7.443888e-03
2.021403e+02	-7.530053e-03
2.033078e+02	-7.617214e-03
2.044821e+02	-7.705383e-03
2.056632e+02	-7.794571e-03
2.068511e+02	-7.884791e-03
2.080459e+02	-7.976054e-03
2.092475e+02	-8.068373e-03
2.104561e+02	-8.161759e-03
2.116717e+02	-8.256225e-03
2.128943e+02	-8.351783e-03
2.141240e+02	-8.448446e-03
2.153608e+02	-8.546227e-03
2.166047e+02	-8.645139e-03
2.178558e+02	-8.745194e-03
2.191141e+02	-8.846406e-03
2.203797e+02	-8.948788e-03
2.216526e+02	-9.052353e-03
2.229329e+02	-9.157116e-03
2.242205e+02	-9.263090e-03
2.255156e+02	-9.370290e-03
2.268182e+02	-9.478728e-03
2.281283e+02	-9.588420e-03
2.294459e+02	-9.699380e-03
2.307712e+02	-9.811623e-03
2.321041e+02	-9.925162e-03
2.334447e+02	-1.004001e-02
2.347931e+02	-1.015619e-02
2.361493e+02	-1.027372e-02
2.375133e+02	-1.039260e-02
2.388851e+02	-1.051285e-02
2.402649e+02	-1.063450e-02
2.416527e+02	-1.075755e-02
2.430484e+02	-1.088202e-02
2.444523e+02	-1.100793e-02
2.458642e+02	-1.113530e-02
2.472843e+02	-1.126413e-02
2.487126e+02	-1.139446e-02
2.501492e+02	-1.152629e-02
2.515940e+02	-1.165965e-02
2.530472e+02	-1.179454e-02
2.545088e+02	-1.193100e-02
2.559789e+02	-1.206903e-02
2.574574e+02	-1.220865e-02
2.589444e+02	-1.234989e-02
2.604401e+02	-1.249276e-02
2.619444e+02	-1.263728e-02
2.634574e+02	-1.278347e-02
2.649791e+02	-1.293135e-02
2.665096e+02	-1.308094e-02
2.680489e+02	-1.323225e-02
2.695972e+02	-1.338532e-02
2.711544e+02	-1.354015e-02
2.727205e+02	-1.369676e-02
2.742958e+02	-1.385519e-02
2.758801e+02	-1.401545e-02
2.774736e+02	-1.417755e-02
2.790762e+02	-1.434153e-02
2.806882e+02	-1.450740e-02
2.823094e+02	-1.467519e-02
2.839400e+02	-1.484492e-02
2.855800e+02	-1.501660e-02
2.872295e+02	-1.519027e-02
2.888886e+02	-1.536594e-02
2.905572e+02	-1.554364e-02
2.922354e+02	-1.572339e-02
2.939234e+02	-1.590521e-02
2.956211e+02	-1.608913e-02
2.973286e+02	-1.627518e-02
2.990459e+02	-1.646338e-02
3.007732e+02	-1.665374e-02
3.025104e+02	-1.684630e-02
3.042577e+02	-1.704109e-02
3.060151e+02	-1.723812e-02
3.077826e+02	-1.743743e-02
3.095604e+02	-1.763903e-02
3.113484e+02	-1.784296e-02
3.131467e+02	-1.804925e-02
3.149554e+02	-1.825791e-02
3.167746e+02	-1.846898e-02
3.186043e+02	-1.868249e-02
3.204445e+02	-1.889846e-02
3.222954e+02	-1.911692e-02
3.241570e+02	-1.933790e-02
3.260293e+02	-1.956143e-02
3.279124e+02	-1.978753e-02
3.298064e+02	-2.001625e-02
3.317114e+02	-2.024760e-02
3.336273e+02	-2.048162e-02
3.355544e+02	-2.071834e-02
3.374925e+02	-2.095778e-02
3.394418e+02	-2.119999e-02
3.414024e+02	-2.144499e-02
3.433744e+02	-2.169281e-02
3.453577e+02	-2.194349e-02
3.473525e+02	-2.219706e-02
3.493588e+02	-2.245355e-02
3.513766e+02	-2.271300e-02
3.534062e+02	-2.297544e-02
3.554474e+02	-2.324090e-02
3.575005e+02	-2.350942e-02
3.595654e+02	-2.378104e-02
3.616422e+02	-2.405578e-02
3.637311e+02	-2.433369e-02
3.658320e+02	-2.461480e-02
3.679450e+02	-2.489915e-02
3.700702e+02	-2.518678e-02
3.722077e+02	-2.547771e-02
3.743576e+02	-2.577200e-02
3.765199e+02	-2.606968e-02
3.786946e+02	-2.637078e-02
3.808820e+02	-2.667535e-02
3.830819e+02	-2.698343e-02
3.852946e+02	-2.729506e-02
3.875200e+02	-2.761027e-02
3.897583e+02	-2.792911e-02
3.920096e+02	-2.825162e-02
3.942738e+02	-2.857785e-02
3.965511e+02	-2.890782e-02
3.988416e+02	-2.924160e-02
4.011452e+02	-2.957921e-02
4.034622e+02	-2.992071e-02
4.057926e+02	-3.026614e-02
4.081365e+02	-3.061554e-02
4.104938e+02	-3.096896e-02
4.128648e+02	-3.132645e-02
4.152495e+02	-3.168805e-02
4.176480e+02	-3.205380e-02
4.200603e+02	-3.242377e-02
4.224866e+02	-3.279798e-02
4.249268e+02	-3.317650e-02
4.273812e+02	-3.355937e-02
4.298497e+02	-3.394664e-02
4.323325e+02	-3.433836e-02
4.348297e+02	-3.473459e-02
4.373412e+02	-3.513537e-02
4.398673e+02	-3.554075e-02
4.424079e+02	-3.595079e-02
4.449633e+02	-3.636554e-02
4.475334e+02	-3.678506e-02
4.501183e+02	-3.720939e-02
4.527182e+02	-3.763860e-02
4.553330e+02	-3.807274e-02
4.579630e+02	-3.851186e-02
4.606082e+02	-3.895603e-02
4.632687e+02	-3.940529e-02
4.659445e+02	-3.985971e-02
4.686358e+02	-4.031935e-02
4.713426e+02	-4.078427e-02
4.740650e+02	-4.125451e-02
4.768032e+02	-4.173016e-02
4.795572e+02	-4.221126e-02
4.823271e+02	-4.269788e-02
4.851130e+02	-4.319008e-02
4.879150e+02	-4.368793e-02
4.907332e+02	-4.419149e-02
4.935676e+02	-4.470082e-02
4.964185e+02	-4.521599e-02
4.992858e+02	-4.573706e-02
5.021696e+02	-4.626411e-02
5.050701e+02	-4.679720e-02
5.079874e+02	-4.733640e-02
5.109215e+02	-4.788178e-02
5.138726e+02	-4.843341e-02
5.168407e+02	-4.899135e-02
5.198259e+02	-4.955569e-02
5.228284e+02	-5.012649e-02
5.258482e+02	-5.070382e-02
5.288855e+02	-5.128776e-02
5.319403e+02	-5.187839e-02
5.350128e+02	-5.247578e-02
5.381030e+02	-5.308001e-02
5.412111e+02	-5.369115e-02
5.443371e+02	-5.430929e-02
5.474812e+02	-5.493449e-02
5.506434e+02	-5.556685e-02
5.538239e+02	-5.620643e-02
5.570228e+02	-5.685333e-02
5.602401e+02	-5.750763e-02
5.634760e+02	-5.816941e-02
5.667306e+02	-5.883875e-02
5.700040e+02	-5.951574e-02
5.732964e+02	-6.020046e-02
5.766077e+02	-6.089301e-02
5.799382e+02	-6.159347e-02
5.832879e+02	-6.230192e-02
5.866569e+02	-6.301847e-02
5.900454e+02	-6.374319e-02
5.934535e+02	-6.447619e-02
5.968813e+02	-6.521756e-02
6.003288e+02	-6.596738e-02
6.037963e+02	-6.672576e-02
6.072838e+02	-6.749279e-02
6.107914e+02	-6.826857e-02
6.143194e+02	-6.905319e-02
6.178676e+02	-6.984676e-02
6.214364e+02	-7.064937e-02
6.250258e+02	-7.146113e-02
6.286359e+02	-7.228214e-02
6.322669e+02	-7.311250e-02
6.359189e+02	-7.395232e-02
6.395919e+02	-7.480170e-02
6.432862e+02	-7.566076e-02
6.470017e+02	-7.652959e-02
6.507388e+02	-7.740831e-02
6.544974e+02	-7.829703e-02
6.582778e+02	-7.919586e-02
6.620800e+02	-8.010491e-02
6.659041e+02	-8.102430e-02
6.697504e+02	-8.195414e-02
6.736188e+02	-8.289455e-02
6.775096e+02	-8.384564e-02
6.814229e+02	-8.480754e-02
6.853587e+02	-8.578037e-02
6.893173e+02	-8.676425e-02
6.932988e+02	-8.775929e-02
6.973033e+02	-8.876564e-02
7.013309e+02	-8.978340e-02
