Frequency(Hz)	Magnitude(dB)
1.000000e+01	-2.120175e+00
1.005776e+01	-2.139793e+00
1.011585e+01	-2.159421e+00
1.017428e+01	-2.178956e+00
1.023305e+01	-2.198813e+00
1.029215e+01	-2.218856e+00
1.035160e+01	-2.238765e+00
1.041139e+01	-2.259018e+00
1.047153e+01	-2.279535e+00
1.053201e+01	-2.300175e+00
1.059284e+01	-2.320570e+00
1.065403e+01	-2.341179e+00
1.071556e+01	-2.362297e+00
1.077746e+01	-2.383176e+00
1.083971e+01	-2.404528e+00
1.090232e+01	-2.425680e+00
1.096529e+01	-2.447463e+00
1.102862e+01	-2.469070e+00
1.109232e+01	-2.490710e+00
1.115639e+01	-2.512602e+00
1.122083e+01	-2.534882e+00
1.128564e+01	-2.556720e+00
1.135083e+01	-2.579126e+00
1.141639e+01	-2.601631e+00
1.148233e+01	-2.624122e+00
1.154865e+01	-2.647063e+00
1.161536e+01	-2.669794e+00
1.168245e+01	-2.692890e+00
1.174992e+01	-2.716080e+00
1.181779e+01	-2.739765e+00
1.188605e+01	-2.762943e+00
1.195470e+01	-2.786693e+00
1.202375e+01	-2.810117e+00
1.209320e+01	-2.834363e+00
1.216305e+01	-2.858230e+00
1.223330e+01	-2.882428e+00
1.230396e+01	-2.906750e+00
1.237503e+01	-2.931232e+00
1.244651e+01	-2.955972e+00
1.251840e+01	-2.980735e+00
1.259070e+01	-3.005583e+00
1.266343e+01	-3.030620e+00
1.273657e+01	-3.056052e+00
1.281014e+01	-3.081326e+00
1.288413e+01	-3.106673e+00
1.295855e+01	-3.132136e+00
1.303339e+01	-3.158108e+00
1.310867e+01	-3.184070e+00
1.318439e+01	-3.209925e+00
1.326054e+01	-3.236332e+00
1.333713e+01	-3.262622e+00
1.341417e+01	-3.289254e+00
1.349165e+01	-3.315978e+00
1.356958e+01	-3.342526e+00
1.364795e+01	-3.369431e+00
1.372678e+01	-3.396831e+00
1.380607e+01	-3.423949e+00
1.388581e+01	-3.451355e+00
1.396602e+01	-3.478756e+00
1.404668e+01	-3.506338e+00
1.412782e+01	-3.533693e+00
1.420942e+01	-3.561902e+00
1.429149e+01	-3.590080e+00
1.437404e+01	-3.618204e+00
1.445706e+01	-3.646681e+00
1.454057e+01	-3.675311e+00
1.462455e+01	-3.703732e+00
1.470902e+01	-3.732528e+00
1.479398e+01	-3.761527e+00
1.487943e+01	-3.790562e+00
1.496537e+01	-3.819735e+00
1.505181e+01	-3.849276e+00
1.513875e+01	-3.878399e+00
1.522619e+01	-3.908098e+00
1.531414e+01	-3.937778e+00
1.540259e+01	-3.967855e+00
1.549156e+01	-3.997827e+00
1.558103e+01	-4.028001e+00
1.567103e+01	-4.058365e+00
1.576155e+01	-4.088687e+00
1.585258e+01	-4.119308e+00
1.594415e+01	-4.149978e+00
1.603624e+01	-4.180426e+00
1.612886e+01	-4.211740e+00
1.622202e+01	-4.242951e+00
1.631572e+01	-4.274114e+00
1.640996e+01	-4.305734e+00
1.650474e+01	-4.337267e+00
1.660008e+01	-4.368979e+00
1.669596e+01	-4.400535e+00
1.679239e+01	-4.432305e+00
1.688938e+01	-4.464701e+00
1.698694e+01	-4.496895e+00
1.708505e+01	-4.529056e+00
1.718373e+01	-4.561519e+00
1.728299e+01	-4.594345e+00
1.738281e+01	-4.627161e+00
1.748322e+01	-4.659723e+00
1.758420e+01	-4.692885e+00
1.768576e+01	-4.725784e+00
1.778792e+01	-4.759200e+00
1.789066e+01	-4.792409e+00
1.799399e+01	-4.826065e+00
1.809793e+01	-4.859464e+00
1.820246e+01	-4.893119e+00
1.830760e+01	-4.927031e+00
1.841334e+01	-4.961187e+00
1.851969e+01	-4.995560e+00
1.862666e+01	-5.029564e+00
1.873425e+01	-5.064065e+00
1.884246e+01	-5.098553e+00
1.895129e+01	-5.133327e+00
1.906075e+01	-5.168094e+00
1.917085e+01	-5.202795e+00
1.928158e+01	-5.237568e+00
1.939295e+01	-5.272637e+00
1.950496e+01	-5.308113e+00
1.961762e+01	-5.343130e+00
1.973093e+01	-5.378957e+00
1.984490e+01	-5.414580e+00
1.995952e+01	-5.450076e+00
2.007480e+01	-5.486005e+00
2.019076e+01	-5.521731e+00
2.030738e+01	-5.557931e+00
2.042467e+01	-5.594225e+00
2.054264e+01	-5.630305e+00
2.066130e+01	-5.666718e+00
2.078064e+01	-5.703382e+00
2.090066e+01	-5.740124e+00
2.102139e+01	-5.776702e+00
2.114280e+01	-5.813471e+00
2.126492e+01	-5.850596e+00
2.138775e+01	-5.887651e+00
2.151128e+01	-5.924847e+00
2.163553e+01	-5.962428e+00
2.176050e+01	-5.999435e+00
2.188619e+01	-6.037003e+00
2.201260e+01	-6.074971e+00
2.213974e+01	-6.112544e+00
2.226762e+01	-6.150094e+00
2.239624e+01	-6.188227e+00
2.252560e+01	-6.226070e+00
2.265571e+01	-6.264077e+00
2.278656e+01	-6.302781e+00
2.291818e+01	-6.340869e+00
2.305055e+01	-6.379091e+00
2.318369e+01	-6.417682e+00
2.331760e+01	-6.456792e+00
2.345228e+01	-6.495473e+00
2.358774e+01	-6.534319e+00
2.372398e+01	-6.572851e+00
2.386101e+01	-6.612486e+00
2.399883e+01	-6.651602e+00
2.413745e+01	-6.690820e+00
2.427686e+01	-6.730029e+00
2.441709e+01	-6.769110e+00
2.455812e+01	-6.808970e+00
2.469997e+01	-6.848634e+00
2.484263e+01	-6.887886e+00
2.498612e+01	-6.928232e+00
2.513044e+01	-6.968126e+00
2.527559e+01	-7.008330e+00
2.542158e+01	-7.048096e+00
2.556842e+01	-7.088323e+00
2.571610e+01	-7.128793e+00
2.586463e+01	-7.168747e+00
2.601403e+01	-7.209357e+00
2.616428e+01	-7.249985e+00
2.631541e+01	-7.290879e+00
2.646740e+01	-7.332024e+00
2.662028e+01	-7.372471e+00
2.677404e+01	-7.413509e+00
2.692868e+01	-7.454482e+00
2.708422e+01	-7.495311e+00
2.724066e+01	-7.536208e+00
2.739800e+01	-7.577422e+00
2.755625e+01	-7.618978e+00
2.771541e+01	-7.660194e+00
2.787550e+01	-7.702266e+00
2.803650e+01	-7.743818e+00
2.819844e+01	-7.785039e+00
2.836131e+01	-7.827188e+00
2.852513e+01	-7.868566e+00
2.868989e+01	-7.910391e+00
2.885560e+01	-7.952345e+00
2.902227e+01	-7.994788e+00
2.918990e+01	-8.036446e+00
2.935850e+01	-8.079080e+00
2.952807e+01	-8.121105e+00
2.969863e+01	-8.163470e+00
2.987016e+01	-8.205970e+00
3.004269e+01	-8.248492e+00
3.021622e+01	-8.291362e+00
3.039075e+01	-8.333881e+00
3.056628e+01	-8.376567e+00
3.074283e+01	-8.418901e+00
3.092040e+01	-8.462865e+00
3.109900e+01	-8.505310e+00
3.127862e+01	-8.548763e+00
3.145929e+01	-8.590980e+00
3.164099e+01	-8.634262e+00
3.182375e+01	-8.677798e+00
3.200756e+01	-8.720717e+00
3.219244e+01	-8.763874e+00
3.237838e+01	-8.807753e+00
3.256540e+01	-8.851193e+00
3.275349e+01	-8.894517e+00
3.294268e+01	-8.938345e+00
3.313295e+01	-8.981874e+00
3.332433e+01	-9.025428e+00
3.351681e+01	-9.069536e+00
3.371040e+01	-9.112991e+00
3.390511e+01	-9.157032e+00
3.410094e+01	-9.200975e+00
3.429791e+01	-9.245188e+00
3.449601e+01	-9.289589e+00
3.469526e+01	-9.333486e+00
3.489566e+01	-9.377408e+00
3.509721e+01	-9.421931e+00
3.529993e+01	-9.466198e+00
3.550382e+01	-9.510501e+00
3.570889e+01	-9.555198e+00
3.591515e+01	-9.599756e+00
3.612259e+01	-9.644437e+00
3.633123e+01	-9.689270e+00
3.654108e+01	-9.733741e+00
3.675214e+01	-9.777905e+00
3.696442e+01	-9.822376e+00
3.717792e+01	-9.867768e+00
3.739266e+01	-9.912996e+00
3.760864e+01	-9.957920e+00
3.782587e+01	-1.000274e+01
3.804435e+01	-1.004759e+01
3.826409e+01	-1.009366e+01
3.848510e+01	-1.013827e+01
3.870739e+01	-1.018347e+01
3.893096e+01	-1.022830e+01
3.915583e+01	-1.027330e+01
3.938199e+01	-1.031900e+01
3.960946e+01	-1.036442e+01
3.983824e+01	-1.040945e+01
4.006834e+01	-1.045535e+01
4.029978e+01	-1.050121e+01
4.053255e+01	-1.054647e+01
4.076666e+01	-1.059157e+01
4.100213e+01	-1.063770e+01
4.123896e+01	-1.068340e+01
4.147715e+01	-1.072932e+01
4.171672e+01	-1.077499e+01
4.195767e+01	-1.082102e+01
4.220002e+01	-1.086688e+01
4.244377e+01	-1.091281e+01
4.268892e+01	-1.095953e+01
4.293549e+01	-1.100517e+01
4.318348e+01	-1.105146e+01
4.343291e+01	-1.109711e+01
4.368377e+01	-1.114357e+01
4.393609e+01	-1.118902e+01
4.418986e+01	-1.123563e+01
4.444510e+01	-1.128217e+01
4.470182e+01	-1.132928e+01
4.496001e+01	-1.137431e+01
4.521970e+01	-1.142129e+01
4.548089e+01	-1.146693e+01
4.574358e+01	-1.151365e+01
4.600779e+01	-1.156092e+01
4.627353e+01	-1.160707e+01
4.654081e+01	-1.165372e+01
4.680963e+01	-1.170053e+01
4.708000e+01	-1.174708e+01
4.735193e+01	-1.179353e+01
4.762543e+01	-1.184111e+01
4.790051e+01	-1.188731e+01
4.817719e+01	-1.193422e+01
4.845545e+01	-1.198137e+01
4.873533e+01	-1.202771e+01
4.901682e+01	-1.207474e+01
4.929994e+01	-1.212213e+01
4.958470e+01	-1.216822e+01
4.987110e+01	-1.221549e+01
5.015915e+01	-1.226311e+01
5.044887e+01	-1.230960e+01
5.074026e+01	-1.235691e+01
5.103333e+01	-1.240436e+01
5.132810e+01	-1.245128e+01
5.162457e+01	-1.249796e+01
5.192275e+01	-1.254572e+01
5.222265e+01	-1.259306e+01
5.252429e+01	-1.264033e+01
5.282767e+01	-1.268767e+01
5.313280e+01	-1.273489e+01
5.343969e+01	-1.278209e+01
5.374836e+01	-1.282951e+01
5.405880e+01	-1.287737e+01
5.437105e+01	-1.292477e+01
5.468509e+01	-1.297246e+01
5.500095e+01	-1.301950e+01
5.531863e+01	-1.306722e+01
5.563815e+01	-1.311468e+01
5.595951e+01	-1.316279e+01
5.628273e+01	-1.321026e+01
5.660782e+01	-1.325700e+01
5.693479e+01	-1.330497e+01
5.726364e+01	-1.335261e+01
5.759439e+01	-1.340011e+01
5.792705e+01	-1.344873e+01
5.826164e+01	-1.349625e+01
5.859815e+01	-1.354361e+01
5.893662e+01	-1.359240e+01
5.927703e+01	-1.363952e+01
5.961941e+01	-1.368785e+01
5.996377e+01	-1.373590e+01
6.031012e+01	-1.378309e+01
6.065847e+01	-1.383151e+01
6.100883e+01	-1.387893e+01
6.136121e+01	-1.392750e+01
6.171563e+01	-1.397464e+01
6.207210e+01	-1.402290e+01
6.243063e+01	-1.407157e+01
6.279122e+01	-1.411905e+01
6.315390e+01	-1.416858e+01
6.351868e+01	-1.421563e+01
6.388556e+01	-1.426400e+01
6.425456e+01	-1.431194e+01
6.462569e+01	-1.435989e+01
6.499897e+01	-1.440867e+01
6.537440e+01	-1.445604e+01
6.575200e+01	-1.450486e+01
6.613178e+01	-1.455275e+01
6.651375e+01	-1.460176e+01
6.689793e+01	-1.464963e+01
6.728433e+01	-1.469803e+01
6.767297e+01	-1.474646e+01
6.806384e+01	-1.479542e+01
6.845698e+01	-1.484287e+01
6.885238e+01	-1.489271e+01
6.925007e+01	-1.493992e+01
6.965005e+01	-1.498829e+01
7.005235e+01	-1.503696e+01
7.045697e+01	-1.508551e+01
7.086393e+01	-1.513343e+01
7.127323e+01	-1.518219e+01
7.168490e+01	-1.523087e+01
7.209895e+01	-1.527838e+01
7.251539e+01	-1.532743e+01
7.293424e+01	-1.537588e+01
7.335551e+01	-1.542514e+01
7.377920e+01	-1.547337e+01
7.420535e+01	-1.552164e+01
7.463396e+01	-1.557034e+01
7.506504e+01	-1.561930e+01
7.549861e+01	-1.566800e+01
7.593469e+01	-1.571658e+01
7.637328e+01	-1.576516e+01
7.681441e+01	-1.581511e+01
7.725809e+01	-1.586324e+01
7.770433e+01	-1.591175e+01
7.815315e+01	-1.596003e+01
7.860456e+01	-1.600963e+01
7.905857e+01	-1.605810e+01
7.951521e+01	-1.610677e+01
7.997449e+01	-1.615525e+01
8.043642e+01	-1.620446e+01
8.090102e+01	-1.625321e+01
8.136830e+01	-1.630182e+01
8.183828e+01	-1.635044e+01
8.231097e+01	-1.640101e+01
8.278640e+01	-1.644859e+01
8.326457e+01	-1.649854e+01
8.374550e+01	-1.654685e+01
8.422921e+01	-1.659583e+01
8.471572e+01	-1.664419e+01
8.520503e+01	-1.669311e+01
8.569717e+01	-1.674318e+01
8.619215e+01	-1.679091e+01
8.669000e+01	-1.684043e+01
8.719071e+01	-1.688861e+01
8.769432e+01	-1.693844e+01
8.820084e+01	-1.698761e+01
8.871029e+01	-1.703606e+01
8.922267e+01	-1.708655e+01
8.973802e+01	-1.713522e+01
9.025634e+01	-1.718337e+01
9.077766e+01	-1.723344e+01
9.130199e+01	-1.728184e+01
9.182935e+01	-1.733140e+01
9.235975e+01	-1.738002e+01
9.289321e+01	-1.742921e+01
9.342976e+01	-1.747843e+01
9.396941e+01	-1.752774e+01
9.451217e+01	-1.757648e+01
9.505807e+01	-1.762597e+01
9.560712e+01	-1.767564e+01
9.615934e+01	-1.772324e+01
9.671476e+01	-1.777263e+01
9.727338e+01	-1.782195e+01
9.783522e+01	-1.787210e+01
9.840032e+01	-1.791975e+01
9.896867e+01	-1.796968e+01
9.954031e+01	-1.802016e+01
1.001153e+02	-1.806808e+01
1.006935e+02	-1.811770e+01
1.012751e+02	-1.816782e+01
1.018601e+02	-1.821583e+01
1.024484e+02	-1.826614e+01
1.030402e+02	-1.831460e+01
1.036353e+02	-1.836408e+01
1.042339e+02	-1.841354e+01
1.048360e+02	-1.846265e+01
1.054415e+02	-1.851160e+01
1.060505e+02	-1.856122e+01
1.066631e+02	-1.861198e+01
1.072791e+02	-1.866064e+01
1.078988e+02	-1.870875e+01
1.085220e+02	-1.875840e+01
1.091488e+02	-1.880758e+01
1.097793e+02	-1.885789e+01
1.104133e+02	-1.890668e+01
1.110511e+02	-1.895650e+01
1.116925e+02	-1.900548e+01
1.123376e+02	-1.905534e+01
1.129865e+02	-1.910577e+01
1.136391e+02	-1.915446e+01
1.142955e+02	-1.920377e+01
1.149556e+02	-1.925163e+01
1.156196e+02	-1.930445e+01
1.162874e+02	-1.935014e+01
1.169591e+02	-1.940151e+01
1.176347e+02	-1.944959e+01
1.183141e+02	-1.950055e+01
1.189975e+02	-1.954995e+01
1.196848e+02	-1.959944e+01
1.203761e+02	-1.964829e+01
1.210714e+02	-1.969822e+01
1.217707e+02	-1.974703e+01
1.224740e+02	-1.979638e+01
1.231814e+02	-1.984735e+01
1.238929e+02	-1.989557e+01
1.246085e+02	-1.994516e+01
1.253283e+02	-1.999588e+01
1.260522e+02	-2.004527e+01
1.267802e+02	-2.009429e+01
1.275125e+02	-2.014418e+01
1.282490e+02	-2.019357e+01
1.289898e+02	-2.024359e+01
1.297348e+02	-2.029391e+01
1.304842e+02	-2.034188e+01
1.312378e+02	-2.039326e+01
1.319959e+02	-2.043963e+01
1.327583e+02	-2.048980e+01
1.335251e+02	-2.054245e+01
1.342963e+02	-2.058861e+01
1.350720e+02	-2.063940e+01
1.358522e+02	-2.068968e+01
1.366368e+02	-2.073935e+01
1.374260e+02	-2.078685e+01
1.382198e+02	-2.083828e+01
1.390182e+02	-2.088706e+01
1.398211e+02	-2.093848e+01
1.406287e+02	-2.098765e+01
1.414410e+02	-2.103734e+01
1.422579e+02	-2.108808e+01
1.430796e+02	-2.113736e+01
1.439060e+02	-2.118620e+01
1.447372e+02	-2.123600e+01
1.455732e+02	-2.128461e+01
1.464141e+02	-2.133613e+01
1.472597e+02	-2.138317e+01
1.481103e+02	-2.143459e+01
1.489658e+02	-2.148447e+01
1.498262e+02	-2.153287e+01
1.506916e+02	-2.158376e+01
1.515620e+02	-2.163264e+01
1.524374e+02	-2.168214e+01
1.533179e+02	-2.173303e+01
1.542034e+02	-2.178106e+01
1.550941e+02	-2.183076e+01
1.559899e+02	-2.188265e+01
1.568909e+02	-2.193209e+01
1.577971e+02	-2.197937e+01
1.587085e+02	-2.203022e+01
1.596252e+02	-2.207998e+01
1.605472e+02	-2.213116e+01
1.614745e+02	-2.218108e+01
1.624072e+02	-2.222869e+01
1.633453e+02	-2.227905e+01
1.642887e+02	-2.232929e+01
1.652377e+02	-2.237780e+01
1.661921e+02	-2.243033e+01
1.671520e+02	-2.247842e+01
1.681175e+02	-2.252915e+01
1.690885e+02	-2.257710e+01
1.700651e+02	-2.262748e+01
1.710474e+02	-2.267720e+01
1.720354e+02	-2.272601e+01
1.730291e+02	-2.277649e+01
1.740285e+02	-2.282752e+01
1.750337e+02	-2.287531e+01
1.760446e+02	-2.292691e+01
1.770615e+02	-2.297846e+01
1.780842e+02	-2.302916e+01
1.791128e+02	-2.307668e+01
1.801473e+02	-2.312681e+01
1.811878e+02	-2.317757e+01
1.822344e+02	-2.322384e+01
1.832870e+02	-2.327339e+01
1.843456e+02	-2.332663e+01
1.854104e+02	-2.337593e+01
1.864813e+02	-2.342648e+01
1.875584e+02	-2.347397e+01
1.886418e+02	-2.352592e+01
1.897313e+02	-2.357509e+01
1.908272e+02	-2.362395e+01
1.919294e+02	-2.367285e+01
1.930380e+02	-2.372173e+01
1.941530e+02	-2.377380e+01
1.952744e+02	-2.382557e+01
1.964023e+02	-2.387419e+01
1.975367e+02	-2.392163e+01
1.986777e+02	-2.397310e+01
1.998252e+02	-2.402264e+01
2.009794e+02	-2.407392e+01
2.021403e+02	-2.412145e+01
2.033078e+02	-2.417136e+01
2.044821e+02	-2.422128e+01
2.056632e+02	-2.427241e+01
2.068511e+02	-2.432141e+01
2.080459e+02	-2.437291e+01
2.092475e+02	-2.442106e+01
2.104561e+02	-2.447127e+01
2.116717e+02	-2.451841e+01
2.128943e+02	-2.457070e+01
2.141240e+02	-2.461976e+01
2.153608e+02	-2.467021e+01
2.166047e+02	-2.472118e+01
2.178558e+02	-2.477131e+01
2.191141e+02	-2.481931e+01
2.203797e+02	-2.487013e+01
2.216526e+02	-2.492042e+01
2.229329e+02	-2.496866e+01
2.242205e+02	-2.502091e+01
2.255156e+02	-2.507160e+01
2.268182e+02	-2.512128e+01
2.281283e+02	-2.516886e+01
2.294459e+02	-2.521892e+01
2.307712e+02	-2.526969e+01
2.321041e+02	-2.532008e+01
2.334447e+02	-2.537191e+01
2.347931e+02	-2.542123e+01
2.361493e+02	-2.547276e+01
2.375133e+02	-2.551861e+01
2.388851e+02	-2.556919e+01
2.402649e+02	-2.561982e+01
2.416527e+02	-2.566757e+01
2.430484e+02	-2.571820e+01
2.444523e+02	-2.577025e+01
2.458642e+02	-2.582038e+01
2.472843e+02	-2.586765e+01
2.487126e+02	-2.591730e+01
2.501492e+02	-2.596851e+01
2.515940e+02	-2.601888e+01
2.530472e+02	-2.606888e+01
2.545088e+02	-2.611892e+01
2.559789e+02	-2.616766e+01
2.574574e+02	-2.621650e+01
2.589444e+02	-2.626718e+01
2.604401e+02	-2.631831e+01
2.619444e+02	-2.637465e+01
2.634574e+02	-2.641832e+01
2.649791e+02	-2.646894e+01
2.665096e+02	-2.651508e+01
2.680489e+02	-2.656765e+01
2.695972e+02	-2.661720e+01
2.711544e+02	-2.666787e+01
2.727205e+02	-2.671960e+01
2.742958e+02	-2.677045e+01
2.758801e+02	-2.681772e+01
2.774736e+02	-2.686661e+01
2.790762e+02	-2.691847e+01
2.806882e+02	-2.697176e+01
2.823094e+02	-2.701762e+01
2.839400e+02	-2.706820e+01
2.855800e+02	-2.711684e+01
2.872295e+02	-2.717074e+01
2.888886e+02	-2.721941e+01
2.905572e+02	-2.727060e+01
2.922354e+02	-2.731828e+01
2.939234e+02	-2.736863e+01
2.956211e+02	-2.742034e+01
2.973286e+02	-2.746821e+01
2.990459e+02	-2.752053e+01
3.007732e+02	-2.756715e+01
3.025104e+02	-2.761533e+01
3.042577e+02	-2.766526e+01
3.060151e+02	-2.771517e+01
3.077826e+02	-2.776809e+01
3.095604e+02	-2.781747e+01
3.113484e+02	-2.787029e+01
3.131467e+02	-2.792177e+01
3.149554e+02	-2.797140e+01
3.167746e+02	-2.801950e+01
3.186043e+02	-2.807035e+01
3.204445e+02	-2.811927e+01
3.222954e+02	-2.816297e+01
3.241570e+02	-2.821773e+01
3.260293e+02	-2.826542e+01
3.279124e+02	-2.831647e+01
3.298064e+02	-2.836789e+01
3.317114e+02	-2.841744e+01
3.336273e+02	-2.846787e+01
3.355544e+02	-2.852072e+01
3.374925e+02	-2.856789e+01
3.394418e+02	-2.861771e+01
3.414024e+02	-2.866723e+01
3.433744e+02	-2.871986e+01
3.453577e+02	-2.876683e+01
3.473525e+02	-2.881734e+01
3.493588e+02	-2.886797e+01
3.513766e+02	-2.892035e+01
3.534062e+02	-2.896893e+01
3.554474e+02	-2.901883e+01
3.575005e+02	-2.906894e+01
3.595654e+02	-2.912234e+01
3.616422e+02	-2.916811e+01
3.637311e+02	-2.921759e+01
3.658320e+02	-2.927025e+01
3.679450e+02	-2.932104e+01
3.700702e+02	-2.936833e+01
3.722077e+02	-2.941646e+01
3.743576e+02	-2.946791e+01
3.765199e+02	-2.951714e+01
3.786946e+02	-2.956938e+01
3.808820e+02	-2.962378e+01
3.830819e+02	-2.966689e+01
3.852946e+02	-2.972024e+01
3.875200e+02	-2.976958e+01
3.897583e+02	-2.981965e+01
3.920096e+02	-2.986723e+01
3.942738e+02	-2.991980e+01
3.965511e+02	-2.997136e+01
3.988416e+02	-3.001868e+01
4.011452e+02	-3.007007e+01
4.034622e+02	-3.012249e+01
4.057926e+02	-3.017315e+01
4.081365e+02	-3.021915e+01
4.104938e+02	-3.027244e+01
4.128648e+02	-3.032406e+01
4.152495e+02	-3.037196e+01
4.176480e+02	-3.042293e+01
4.200603e+02	-3.046829e+01
4.224866e+02	-3.052237e+01
4.249268e+02	-3.056831e+01
4.273812e+02	-3.062869e+01
4.298497e+02	-3.067063e+01
4.323325e+02	-3.072383e+01
4.348297e+02	-3.076754e+01
4.373412e+02	-3.082244e+01
4.398673e+02	-3.087124e+01
4.424079e+02	-3.091898e+01
4.449633e+02	-3.097270e+01
4.475334e+02	-3.101603e+01
4.501183e+02	-3.107173e+01
4.527182e+02	-3.112498e+01
4.553330e+02	-3.117104e+01
4.579630e+02	-3.122527e+01
4.606082e+02	-3.127834e+01
4.632687e+02	-3.131754e+01
4.659445e+02	-3.137595e+01
4.686358e+02	-3.142947e+01
4.713426e+02	-3.146749e+01
4.740650e+02	-3.152778e+01
4.768032e+02	-3.157811e+01
4.795572e+02	-3.163172e+01
4.823271e+02	-3.167639e+01
4.851130e+02	-3.172509e+01
4.879150e+02	-3.177836e+01
4.907332e+02	-3.182336e+01
4.935676e+02	-3.186963e+01
4.964185e+02	-3.192625e+01
4.992858e+02	-3.197650e+01
5.021696e+02	-3.202612e+01
5.050701e+02	-3.207617e+01
5.079874e+02	-3.212531e+01
5.109215e+02	-3.217061e+01
5.138726e+02	-3.222599e+01
5.168407e+02	-3.228152e+01
5.198259e+02	-3.232556e+01
5.228284e+02	-3.238156e+01
5.258482e+02	-3.242555e+01
5.288855e+02	-3.247713e+01
5.319403e+02	-3.253085e+01
5.350128e+02	-3.257631e+01
5.381030e+02	-3.262687e+01
5.412111e+02	-3.267897e+01
5.443371e+02	-3.272675e+01
5.474812e+02	-3.278017e+01
5.506434e+02	-3.283180e+01
5.538239e+02	-3.287783e+01
5.570228e+02	-3.292936e+01
5.602401e+02	-3.298096e+01
5.634760e+02	-3.303476e+01
5.667306e+02	-3.308011e+01
5.700040e+02	-3.313466e+01
5.732964e+02	-3.317700e+01
5.766077e+02	-3.323009e+01
5.799382e+02	-3.327916e+01
5.832879e+02	-3.332957e+01
5.866569e+02	-3.337755e+01
5.900454e+02	-3.342978e+01
5.934535e+02	-3.348639e+01
5.968813e+02	-3.353233e+01
6.003288e+02	-3.358166e+01
6.037963e+02	-3.363073e+01
6.072838e+02	-3.368307e+01
6.107914e+02	-3.372584e+01
6.143194e+02	-3.379252e+01
6.178676e+02	-3.383138e+01
6.214364e+02	-3.388423e+01
6.250258e+02	-3.394112e+01
6.286359e+02	-3.398778e+01
6.322669e+02	-3.404038e+01
6.359189e+02	-3.408764e+01
6.395919e+02	-3.413987e+01
6.432862e+02	-3.419358e+01
6.470017e+02	-3.423905e+01
6.507388e+02	-3.429027e+01
6.544974e+02	-3.433592e+01
6.582778e+02	-3.439372e+01
6.620800e+02	-3.443229e+01
6.659041e+02	-3.449075e+01
6.697504e+02	-3.454373e+01
6.736188e+02	-3.458897e+01
6.775096e+02	-3.463974e+01
6.814229e+02	-3.469782e+01
6.853587e+02	-3.473401e+01
6.893173e+02	-3.479366e+01
6.932988e+02	-3.484293e+01
6.973033e+02	-3.489119e+01
7.013309e+02	-3.493958e+01
