Frequency(Hz)	Magnitude(dB)
1.000000e+01	-2.121113e+00
1.005776e+01	-2.140480e+00
1.011585e+01	-2.160189e+00
1.017428e+01	-2.179659e+00
1.023305e+01	-2.199629e+00
1.029215e+01	-2.219242e+00
1.035160e+01	-2.239506e+00
1.041139e+01	-2.259745e+00
1.047153e+01	-2.279902e+00
1.053201e+01	-2.300730e+00
1.059284e+01	-2.321199e+00
1.065403e+01	-2.342008e+00
1.071556e+01	-2.363039e+00
1.077746e+01	-2.384209e+00
1.083971e+01	-2.405263e+00
1.090232e+01	-2.426602e+00
1.096529e+01	-2.448150e+00
1.102862e+01	-2.469724e+00
1.109232e+01	-2.491434e+00
1.115639e+01	-2.513243e+00
1.122083e+01	-2.535594e+00
1.128564e+01	-2.557665e+00
1.135083e+01	-2.580088e+00
1.141639e+01	-2.602528e+00
1.148233e+01	-2.625202e+00
1.154865e+01	-2.647691e+00
1.161536e+01	-2.670921e+00
1.168245e+01	-2.693677e+00
1.174992e+01	-2.716875e+00
1.181779e+01	-2.740468e+00
1.188605e+01	-2.763929e+00
1.195470e+01	-2.787640e+00
1.202375e+01	-2.811207e+00
1.209320e+01	-2.835038e+00
1.216305e+01	-2.859281e+00
1.223330e+01	-2.883518e+00
1.230396e+01	-2.907806e+00
1.237503e+01	-2.932153e+00
1.244651e+01	-2.957045e+00
1.251840e+01	-2.981559e+00
1.259070e+01	-3.006572e+00
1.266343e+01	-3.031576e+00
1.273657e+01	-3.056942e+00
1.281014e+01	-3.081957e+00
1.288413e+01	-3.107516e+00
1.295855e+01	-3.133156e+00
1.303339e+01	-3.159131e+00
1.310867e+01	-3.185038e+00
1.318439e+01	-3.210961e+00
1.326054e+01	-3.237247e+00
1.333713e+01	-3.263673e+00
1.341417e+01	-3.290198e+00
1.349165e+01	-3.316789e+00
1.356958e+01	-3.343694e+00
1.364795e+01	-3.370703e+00
1.372678e+01	-3.397569e+00
1.380607e+01	-3.424725e+00
1.388581e+01	-3.452350e+00
1.396602e+01	-3.479692e+00
1.404668e+01	-3.507190e+00
1.412782e+01	-3.534916e+00
1.420942e+01	-3.562933e+00
1.429149e+01	-3.591350e+00
1.437404e+01	-3.619322e+00
1.445706e+01	-3.647705e+00
1.454057e+01	-3.676232e+00
1.462455e+01	-3.704958e+00
1.470902e+01	-3.733546e+00
1.479398e+01	-3.762526e+00
1.487943e+01	-3.791656e+00
1.496537e+01	-3.820885e+00
1.505181e+01	-3.850147e+00
1.513875e+01	-3.879874e+00
1.522619e+01	-3.909307e+00
1.531414e+01	-3.938903e+00
1.540259e+01	-3.968728e+00
1.549156e+01	-3.998847e+00
1.558103e+01	-4.029030e+00
1.567103e+01	-4.059431e+00
1.576155e+01	-4.090040e+00
1.585258e+01	-4.120434e+00
1.594415e+01	-4.151016e+00
1.603624e+01	-4.181960e+00
1.612886e+01	-4.212721e+00
1.622202e+01	-4.244262e+00
1.631572e+01	-4.275408e+00
1.640996e+01	-4.306865e+00
1.650474e+01	-4.338192e+00
1.660008e+01	-4.370204e+00
1.669596e+01	-4.401976e+00
1.679239e+01	-4.433647e+00
1.688938e+01	-4.465845e+00
1.698694e+01	-4.497827e+00
1.708505e+01	-4.530518e+00
1.718373e+01	-4.562833e+00
1.728299e+01	-4.595534e+00
1.738281e+01	-4.627935e+00
1.748322e+01	-4.661229e+00
1.758420e+01	-4.693932e+00
1.768576e+01	-4.726877e+00
1.778792e+01	-4.760260e+00
1.789066e+01	-4.793695e+00
1.799399e+01	-4.827068e+00
1.809793e+01	-4.860836e+00
1.820246e+01	-4.894387e+00
1.830760e+01	-4.928527e+00
1.841334e+01	-4.962650e+00
1.851969e+01	-4.996568e+00
1.862666e+01	-5.030701e+00
1.873425e+01	-5.065380e+00
1.884246e+01	-5.099605e+00
1.895129e+01	-5.134197e+00
1.906075e+01	-5.169224e+00
1.917085e+01	-5.203952e+00
1.928158e+01	-5.238853e+00
1.939295e+01	-5.274246e+00
1.950496e+01	-5.309265e+00
1.961762e+01	-5.344446e+00
1.973093e+01	-5.379608e+00
1.984490e+01	-5.415685e+00
1.995952e+01	-5.451599e+00
2.007480e+01	-5.487297e+00
2.019076e+01	-5.523402e+00
2.030738e+01	-5.559152e+00
2.042467e+01	-5.595880e+00
2.054264e+01	-5.631731e+00
2.066130e+01	-5.668034e+00
2.078064e+01	-5.704873e+00
2.090066e+01	-5.741310e+00
2.102139e+01	-5.778102e+00
2.114280e+01	-5.814951e+00
2.126492e+01	-5.852170e+00
2.138775e+01	-5.889028e+00
2.151128e+01	-5.926469e+00
2.163553e+01	-5.963389e+00
2.176050e+01	-6.001224e+00
2.188619e+01	-6.038390e+00
2.201260e+01	-6.076077e+00
2.213974e+01	-6.113680e+00
2.226762e+01	-6.151838e+00
2.239624e+01	-6.189591e+00
2.252560e+01	-6.227433e+00
2.265571e+01	-6.265793e+00
2.278656e+01	-6.304137e+00
2.291818e+01	-6.342406e+00
2.305055e+01	-6.380728e+00
2.318369e+01	-6.419352e+00
2.331760e+01	-6.458123e+00
2.345228e+01	-6.496637e+00
2.358774e+01	-6.535648e+00
2.372398e+01	-6.574620e+00
2.386101e+01	-6.613641e+00
2.399883e+01	-6.652492e+00
2.413745e+01	-6.692187e+00
2.427686e+01	-6.731657e+00
2.441709e+01	-6.770850e+00
2.455812e+01	-6.810555e+00
2.469997e+01	-6.850226e+00
2.484263e+01	-6.889876e+00
2.498612e+01	-6.929545e+00
2.513044e+01	-6.969524e+00
2.527559e+01	-7.009676e+00
2.542158e+01	-7.050083e+00
2.556842e+01	-7.090185e+00
2.571610e+01	-7.130532e+00
2.586463e+01	-7.170544e+00
2.601403e+01	-7.211179e+00
2.616428e+01	-7.251665e+00
2.631541e+01	-7.292457e+00
2.646740e+01	-7.333052e+00
2.662028e+01	-7.374020e+00
2.677404e+01	-7.414654e+00
2.692868e+01	-7.455718e+00
2.708422e+01	-7.496901e+00
2.724066e+01	-7.538284e+00
2.739800e+01	-7.579119e+00
2.755625e+01	-7.620605e+00
2.771541e+01	-7.662277e+00
2.787550e+01	-7.703486e+00
2.803650e+01	-7.744821e+00
2.819844e+01	-7.787121e+00
2.836131e+01	-7.828686e+00
2.852513e+01	-7.870560e+00
2.868989e+01	-7.912583e+00
2.885560e+01	-7.953998e+00
2.902227e+01	-7.996644e+00
2.918990e+01	-8.038652e+00
2.935850e+01	-8.080845e+00
2.952807e+01	-8.122925e+00
2.969863e+01	-8.165625e+00
2.987016e+01	-8.207393e+00
3.004269e+01	-8.250103e+00
3.021622e+01	-8.292940e+00
3.039075e+01	-8.335339e+00
3.056628e+01	-8.378046e+00
3.074283e+01	-8.420882e+00
3.092040e+01	-8.463520e+00
3.109900e+01	-8.506640e+00
3.127862e+01	-8.549727e+00
3.145929e+01	-8.592542e+00
3.164099e+01	-8.635851e+00
3.182375e+01	-8.678928e+00
3.200756e+01	-8.722239e+00
3.219244e+01	-8.766103e+00
3.237838e+01	-8.809785e+00
3.256540e+01	-8.853504e+00
3.275349e+01	-8.896433e+00
3.294268e+01	-8.940123e+00
3.313295e+01	-8.983476e+00
3.332433e+01	-9.027172e+00
3.351681e+01	-9.071331e+00
3.371040e+01	-9.114668e+00
3.390511e+01	-9.158828e+00
3.410094e+01	-9.202958e+00
3.429791e+01	-9.246674e+00
3.449601e+01	-9.290611e+00
3.469526e+01	-9.334963e+00
3.489566e+01	-9.378937e+00
3.509721e+01	-9.423389e+00
3.529993e+01	-9.467928e+00
3.550382e+01	-9.512401e+00
3.570889e+01	-9.556687e+00
3.591515e+01	-9.601035e+00
3.612259e+01	-9.645824e+00
3.633123e+01	-9.690771e+00
3.654108e+01	-9.735469e+00
3.675214e+01	-9.780023e+00
3.696442e+01	-9.824747e+00
3.717792e+01	-9.869728e+00
3.739266e+01	-9.914102e+00
3.760864e+01	-9.959939e+00
3.782587e+01	-1.000431e+01
3.804435e+01	-1.004946e+01
3.826409e+01	-1.009476e+01
3.848510e+01	-1.013999e+01
3.870739e+01	-1.018490e+01
3.893096e+01	-1.023029e+01
3.915583e+01	-1.027504e+01
3.938199e+01	-1.032130e+01
3.960946e+01	-1.036644e+01
3.983824e+01	-1.041154e+01
4.006834e+01	-1.045691e+01
4.029978e+01	-1.050215e+01
4.053255e+01	-1.054875e+01
4.076666e+01	-1.059444e+01
4.100213e+01	-1.064014e+01
4.123896e+01	-1.068506e+01
4.147715e+01	-1.073163e+01
4.171672e+01	-1.077698e+01
4.195767e+01	-1.082326e+01
4.220002e+01	-1.086864e+01
4.244377e+01	-1.091513e+01
4.268892e+01	-1.096075e+01
4.293549e+01	-1.100705e+01
4.318348e+01	-1.105289e+01
4.343291e+01	-1.109890e+01
4.368377e+01	-1.114502e+01
4.393609e+01	-1.119167e+01
4.418986e+01	-1.123805e+01
4.444510e+01	-1.128399e+01
4.470182e+01	-1.133026e+01
4.496001e+01	-1.137643e+01
4.521970e+01	-1.142310e+01
4.548089e+01	-1.146945e+01
4.574358e+01	-1.151587e+01
4.600779e+01	-1.156228e+01
4.627353e+01	-1.160863e+01
4.654081e+01	-1.165546e+01
4.680963e+01	-1.170208e+01
4.708000e+01	-1.174810e+01
4.735193e+01	-1.179619e+01
4.762543e+01	-1.184163e+01
4.790051e+01	-1.188856e+01
4.817719e+01	-1.193592e+01
4.845545e+01	-1.198316e+01
4.873533e+01	-1.202943e+01
4.901682e+01	-1.207711e+01
4.929994e+01	-1.212412e+01
4.958470e+01	-1.217023e+01
4.987110e+01	-1.221750e+01
5.015915e+01	-1.226466e+01
5.044887e+01	-1.231159e+01
5.074026e+01	-1.235858e+01
5.103333e+01	-1.240524e+01
5.132810e+01	-1.245389e+01
5.162457e+01	-1.250023e+01
5.192275e+01	-1.254761e+01
5.222265e+01	-1.259492e+01
5.252429e+01	-1.264174e+01
5.282767e+01	-1.268895e+01
5.313280e+01	-1.273658e+01
5.343969e+01	-1.278395e+01
5.374836e+01	-1.283097e+01
5.405880e+01	-1.287902e+01
5.437105e+01	-1.292590e+01
5.468509e+01	-1.297357e+01
5.500095e+01	-1.302219e+01
5.531863e+01	-1.306833e+01
5.563815e+01	-1.311640e+01
5.595951e+01	-1.316392e+01
5.628273e+01	-1.321157e+01
5.660782e+01	-1.325853e+01
5.693479e+01	-1.330710e+01
5.726364e+01	-1.335459e+01
5.759439e+01	-1.340212e+01
5.792705e+01	-1.344976e+01
5.826164e+01	-1.349870e+01
5.859815e+01	-1.354560e+01
5.893662e+01	-1.359347e+01
5.927703e+01	-1.364143e+01
5.961941e+01	-1.368892e+01
5.996377e+01	-1.373700e+01
6.031012e+01	-1.378504e+01
6.065847e+01	-1.383271e+01
6.100883e+01	-1.388116e+01
6.136121e+01	-1.392929e+01
6.171563e+01	-1.397678e+01
6.207210e+01	-1.402502e+01
6.243063e+01	-1.407375e+01
6.279122e+01	-1.412041e+01
6.315390e+01	-1.416945e+01
6.351868e+01	-1.421802e+01
6.388556e+01	-1.426562e+01
6.425456e+01	-1.431279e+01
6.462569e+01	-1.436135e+01
6.499897e+01	-1.441026e+01
6.537440e+01	-1.445834e+01
6.575200e+01	-1.450665e+01
6.613178e+01	-1.455559e+01
6.651375e+01	-1.460357e+01
6.689793e+01	-1.465116e+01
6.728433e+01	-1.470052e+01
6.767297e+01	-1.474806e+01
6.806384e+01	-1.479650e+01
6.845698e+01	-1.484446e+01
6.885238e+01	-1.489319e+01
6.925007e+01	-1.494185e+01
6.965005e+01	-1.499015e+01
7.005235e+01	-1.503894e+01
7.045697e+01	-1.508788e+01
7.086393e+01	-1.513582e+01
7.127323e+01	-1.518408e+01
7.168490e+01	-1.523219e+01
7.209895e+01	-1.528102e+01
7.251539e+01	-1.532988e+01
7.293424e+01	-1.537917e+01
7.335551e+01	-1.542684e+01
7.377920e+01	-1.547564e+01
7.420535e+01	-1.552423e+01
7.463396e+01	-1.557346e+01
7.506504e+01	-1.562085e+01
7.549861e+01	-1.567100e+01
7.593469e+01	-1.571846e+01
7.637328e+01	-1.576697e+01
7.681441e+01	-1.581688e+01
7.725809e+01	-1.586413e+01
7.770433e+01	-1.591409e+01
7.815315e+01	-1.596258e+01
7.860456e+01	-1.601065e+01
7.905857e+01	-1.605952e+01
7.951521e+01	-1.610837e+01
7.997449e+01	-1.615702e+01
8.043642e+01	-1.620513e+01
8.090102e+01	-1.625528e+01
8.136830e+01	-1.630270e+01
8.183828e+01	-1.635153e+01
8.231097e+01	-1.640242e+01
8.278640e+01	-1.645029e+01
8.326457e+01	-1.649893e+01
8.374550e+01	-1.654844e+01
8.422921e+01	-1.659736e+01
8.471572e+01	-1.664514e+01
8.520503e+01	-1.669522e+01
8.569717e+01	-1.674385e+01
8.619215e+01	-1.679397e+01
8.669000e+01	-1.684211e+01
8.719071e+01	-1.689059e+01
8.769432e+01	-1.694038e+01
8.820084e+01	-1.698942e+01
8.871029e+01	-1.703836e+01
8.922267e+01	-1.708761e+01
8.973802e+01	-1.713537e+01
9.025634e+01	-1.718574e+01
9.077766e+01	-1.723508e+01
9.130199e+01	-1.728413e+01
9.182935e+01	-1.733320e+01
9.235975e+01	-1.738147e+01
9.289321e+01	-1.743151e+01
9.342976e+01	-1.747987e+01
9.396941e+01	-1.752928e+01
9.451217e+01	-1.757833e+01
9.505807e+01	-1.762898e+01
9.560712e+01	-1.767652e+01
9.615934e+01	-1.772706e+01
9.671476e+01	-1.777544e+01
9.727338e+01	-1.782488e+01
9.783522e+01	-1.787307e+01
9.840032e+01	-1.792213e+01
9.896867e+01	-1.797324e+01
9.954031e+01	-1.802171e+01
1.001153e+02	-1.807053e+01
1.006935e+02	-1.811813e+01
1.012751e+02	-1.816961e+01
1.018601e+02	-1.821907e+01
1.024484e+02	-1.826648e+01
1.030402e+02	-1.831617e+01
1.036353e+02	-1.836719e+01
1.042339e+02	-1.841563e+01
1.048360e+02	-1.846438e+01
1.054415e+02	-1.851277e+01
1.060505e+02	-1.856359e+01
1.066631e+02	-1.861361e+01
1.072791e+02	-1.866215e+01
1.078988e+02	-1.871160e+01
1.085220e+02	-1.875997e+01
1.091488e+02	-1.881073e+01
1.097793e+02	-1.886012e+01
1.104133e+02	-1.890879e+01
1.110511e+02	-1.895814e+01
1.116925e+02	-1.900770e+01
1.123376e+02	-1.905641e+01
1.129865e+02	-1.910579e+01
1.136391e+02	-1.915713e+01
1.142955e+02	-1.920504e+01
1.149556e+02	-1.925546e+01
1.156196e+02	-1.930498e+01
1.162874e+02	-1.935474e+01
1.169591e+02	-1.940368e+01
1.176347e+02	-1.945329e+01
1.183141e+02	-1.950187e+01
1.189975e+02	-1.955167e+01
1.196848e+02	-1.959962e+01
1.203761e+02	-1.965038e+01
1.210714e+02	-1.969922e+01
1.217707e+02	-1.975076e+01
1.224740e+02	-1.979697e+01
1.231814e+02	-1.984843e+01
1.238929e+02	-1.989702e+01
1.246085e+02	-1.994811e+01
1.253283e+02	-1.999642e+01
1.260522e+02	-2.004584e+01
1.267802e+02	-2.009699e+01
1.275125e+02	-2.014432e+01
1.282490e+02	-2.019443e+01
1.289898e+02	-2.024655e+01
1.297348e+02	-2.029322e+01
1.304842e+02	-2.034488e+01
1.312378e+02	-2.039289e+01
1.319959e+02	-2.044194e+01
1.327583e+02	-2.049435e+01
1.335251e+02	-2.054359e+01
1.342963e+02	-2.059237e+01
1.350720e+02	-2.064144e+01
1.358522e+02	-2.069114e+01
1.366368e+02	-2.074049e+01
1.374260e+02	-2.079233e+01
1.382198e+02	-2.083856e+01
1.390182e+02	-2.088931e+01
1.398211e+02	-2.093930e+01
1.406287e+02	-2.098855e+01
1.414410e+02	-2.103793e+01
1.422579e+02	-2.108725e+01
1.430796e+02	-2.113811e+01
1.439060e+02	-2.118448e+01
1.447372e+02	-2.123841e+01
1.455732e+02	-2.128774e+01
1.464141e+02	-2.133689e+01
1.472597e+02	-2.138529e+01
1.481103e+02	-2.143544e+01
1.489658e+02	-2.148423e+01
1.498262e+02	-2.153627e+01
1.506916e+02	-2.158396e+01
1.515620e+02	-2.163464e+01
1.524374e+02	-2.168471e+01
1.533179e+02	-2.173499e+01
1.542034e+02	-2.178468e+01
1.550941e+02	-2.183308e+01
1.559899e+02	-2.188187e+01
1.568909e+02	-2.193335e+01
1.577971e+02	-2.198339e+01
1.587085e+02	-2.203196e+01
1.596252e+02	-2.208238e+01
1.605472e+02	-2.213131e+01
1.614745e+02	-2.218163e+01
1.624072e+02	-2.223009e+01
1.633453e+02	-2.228123e+01
1.642887e+02	-2.233202e+01
1.652377e+02	-2.238156e+01
1.661921e+02	-2.243118e+01
1.671520e+02	-2.248124e+01
1.681175e+02	-2.253080e+01
1.690885e+02	-2.257992e+01
1.700651e+02	-2.262979e+01
1.710474e+02	-2.267971e+01
1.720354e+02	-2.272994e+01
1.730291e+02	-2.277867e+01
1.740285e+02	-2.282945e+01
1.750337e+02	-2.287983e+01
1.760446e+02	-2.292974e+01
1.770615e+02	-2.297854e+01
1.780842e+02	-2.302698e+01
1.791128e+02	-2.308005e+01
1.801473e+02	-2.312825e+01
1.811878e+02	-2.317679e+01
1.822344e+02	-2.322724e+01
1.832870e+02	-2.327592e+01
1.843456e+02	-2.332698e+01
1.854104e+02	-2.337728e+01
1.864813e+02	-2.342335e+01
1.875584e+02	-2.347395e+01
1.886418e+02	-2.352653e+01
1.897313e+02	-2.357600e+01
1.908272e+02	-2.362366e+01
1.919294e+02	-2.367533e+01
1.930380e+02	-2.372701e+01
1.941530e+02	-2.377295e+01
1.952744e+02	-2.382289e+01
1.964023e+02	-2.387333e+01
1.975367e+02	-2.392391e+01
1.986777e+02	-2.397489e+01
1.998252e+02	-2.402415e+01
2.009794e+02	-2.407318e+01
2.021403e+02	-2.412480e+01
2.033078e+02	-2.417297e+01
2.044821e+02	-2.422318e+01
2.056632e+02	-2.427295e+01
2.068511e+02	-2.432448e+01
2.080459e+02	-2.437347e+01
2.092475e+02	-2.442108e+01
2.104561e+02	-2.447388e+01
2.116717e+02	-2.452201e+01
2.128943e+02	-2.457162e+01
2.141240e+02	-2.462580e+01
2.153608e+02	-2.467160e+01
2.166047e+02	-2.472334e+01
2.178558e+02	-2.477186e+01
2.191141e+02	-2.482406e+01
2.203797e+02	-2.487229e+01
2.216526e+02	-2.492568e+01
2.229329e+02	-2.497072e+01
2.242205e+02	-2.502255e+01
2.255156e+02	-2.506998e+01
2.268182e+02	-2.512230e+01
2.281283e+02	-2.517132e+01
2.294459e+02	-2.522291e+01
2.307712e+02	-2.527345e+01
2.321041e+02	-2.532230e+01
2.334447e+02	-2.537002e+01
2.347931e+02	-2.542134e+01
2.361493e+02	-2.547156e+01
2.375133e+02	-2.552077e+01
2.388851e+02	-2.557124e+01
2.402649e+02	-2.561809e+01
2.416527e+02	-2.567254e+01
2.430484e+02	-2.572026e+01
2.444523e+02	-2.577141e+01
2.458642e+02	-2.581680e+01
2.472843e+02	-2.587093e+01
2.487126e+02	-2.592474e+01
2.501492e+02	-2.596816e+01
2.515940e+02	-2.602191e+01
2.530472e+02	-2.606999e+01
2.545088e+02	-2.612119e+01
2.559789e+02	-2.616844e+01
2.574574e+02	-2.622175e+01
2.589444e+02	-2.626964e+01
2.604401e+02	-2.632053e+01
2.619444e+02	-2.637093e+01
2.634574e+02	-2.641753e+01
2.649791e+02	-2.647189e+01
2.665096e+02	-2.652315e+01
2.680489e+02	-2.657243e+01
2.695972e+02	-2.662191e+01
2.711544e+02	-2.667202e+01
2.727205e+02	-2.672188e+01
2.742958e+02	-2.677020e+01
2.758801e+02	-2.681872e+01
2.774736e+02	-2.686876e+01
2.790762e+02	-2.692103e+01
2.806882e+02	-2.697252e+01
2.823094e+02	-2.701897e+01
2.839400e+02	-2.706833e+01
2.855800e+02	-2.711734e+01
2.872295e+02	-2.717096e+01
2.888886e+02	-2.721888e+01
2.905572e+02	-2.726924e+01
2.922354e+02	-2.731990e+01
2.939234e+02	-2.736823e+01
2.956211e+02	-2.741733e+01
2.973286e+02	-2.746960e+01
2.990459e+02	-2.752073e+01
3.007732e+02	-2.756900e+01
3.025104e+02	-2.762458e+01
3.042577e+02	-2.767112e+01
3.060151e+02	-2.772107e+01
3.077826e+02	-2.777170e+01
3.095604e+02	-2.782198e+01
3.113484e+02	-2.786584e+01
3.131467e+02	-2.791918e+01
3.149554e+02	-2.796746e+01
3.167746e+02	-2.801816e+01
3.186043e+02	-2.806853e+01
3.204445e+02	-2.811923e+01
3.222954e+02	-2.817318e+01
3.241570e+02	-2.822218e+01
3.260293e+02	-2.827022e+01
3.279124e+02	-2.832377e+01
3.298064e+02	-2.836746e+01
3.317114e+02	-2.841727e+01
3.336273e+02	-2.847087e+01
3.355544e+02	-2.851924e+01
3.374925e+02	-2.857582e+01
3.394418e+02	-2.861843e+01
3.414024e+02	-2.866739e+01
3.433744e+02	-2.872170e+01
3.453577e+02	-2.877037e+01
3.473525e+02	-2.882309e+01
3.493588e+02	-2.887131e+01
3.513766e+02	-2.892483e+01
3.534062e+02	-2.896980e+01
3.554474e+02	-2.902146e+01
3.575005e+02	-2.907082e+01
3.595654e+02	-2.912124e+01
3.616422e+02	-2.917351e+01
3.637311e+02	-2.921961e+01
3.658320e+02	-2.927326e+01
3.679450e+02	-2.932049e+01
3.700702e+02	-2.937153e+01
3.722077e+02	-2.942307e+01
3.743576e+02	-2.946999e+01
3.765199e+02	-2.951758e+01
3.786946e+02	-2.957220e+01
3.808820e+02	-2.962153e+01
3.830819e+02	-2.967146e+01
3.852946e+02	-2.972339e+01
3.875200e+02	-2.977425e+01
3.897583e+02	-2.982054e+01
3.920096e+02	-2.987554e+01
3.942738e+02	-2.992142e+01
3.965511e+02	-2.997126e+01
3.988416e+02	-3.002682e+01
4.011452e+02	-3.007306e+01
4.034622e+02	-3.012418e+01
4.057926e+02	-3.017049e+01
4.081365e+02	-3.022336e+01
4.104938e+02	-3.026910e+01
4.128648e+02	-3.031844e+01
4.152495e+02	-3.037402e+01
4.176480e+02	-3.042419e+01
4.200603e+02	-3.047511e+01
4.224866e+02	-3.052385e+01
4.249268e+02	-3.057955e+01
4.273812e+02	-3.062504e+01
4.298497e+02	-3.067728e+01
4.323325e+02	-3.072638e+01
4.348297e+02	-3.077245e+01
4.373412e+02	-3.082997e+01
4.398673e+02	-3.087354e+01
4.424079e+02	-3.092047e+01
4.449633e+02	-3.097852e+01
4.475334e+02	-3.102652e+01
4.501183e+02	-3.107306e+01
4.527182e+02	-3.113118e+01
4.553330e+02	-3.117420e+01
4.579630e+02	-3.121990e+01
4.606082e+02	-3.127530e+01
4.632687e+02	-3.132191e+01
4.659445e+02	-3.137626e+01
4.686358e+02	-3.142237e+01
4.713426e+02	-3.147394e+01
4.740650e+02	-3.152744e+01
4.768032e+02	-3.157699e+01
4.795572e+02	-3.162566e+01
4.823271e+02	-3.167659e+01
4.851130e+02	-3.173138e+01
4.879150e+02	-3.177206e+01
4.907332e+02	-3.182908e+01
4.935676e+02	-3.187627e+01
4.964185e+02	-3.192831e+01
4.992858e+02	-3.198386e+01
5.021696e+02	-3.203124e+01
5.050701e+02	-3.207613e+01
5.079874e+02	-3.213067e+01
5.109215e+02	-3.218028e+01
5.138726e+02	-3.222796e+01
5.168407e+02	-3.227444e+01
5.198259e+02	-3.232397e+01
5.228284e+02	-3.238331e+01
5.258482e+02	-3.243069e+01
5.288855e+02	-3.248105e+01
5.319403e+02	-3.252581e+01
5.350128e+02	-3.257990e+01
5.381030e+02	-3.263269e+01
5.412111e+02	-3.267690e+01
5.443371e+02	-3.272865e+01
5.474812e+02	-3.277619e+01
5.506434e+02	-3.283468e+01
5.538239e+02	-3.288121e+01
5.570228e+02	-3.293786e+01
5.602401e+02	-3.298483e+01
5.634760e+02	-3.303148e+01
5.667306e+02	-3.307480e+01
5.700040e+02	-3.312867e+01
5.732964e+02	-3.318048e+01
5.766077e+02	-3.322864e+01
5.799382e+02	-3.328894e+01
5.832879e+02	-3.333049e+01
5.866569e+02	-3.338466e+01
5.900454e+02	-3.343431e+01
5.934535e+02	-3.349219e+01
5.968813e+02	-3.353238e+01
6.003288e+02	-3.358889e+01
6.037963e+02	-3.363268e+01
6.072838e+02	-3.368525e+01
6.107914e+02	-3.373861e+01
6.143194e+02	-3.378935e+01
6.178676e+02	-3.384380e+01
6.214364e+02	-3.388832e+01
6.250258e+02	-3.394213e+01
6.286359e+02	-3.398792e+01
6.322669e+02	-3.404034e+01
6.359189e+02	-3.408848e+01
6.395919e+02	-3.414092e+01
6.432862e+02	-3.419361e+01
6.470017e+02	-3.424122e+01
6.507388e+02	-3.428824e+01
6.544974e+02	-3.433914e+01
6.582778e+02	-3.439701e+01
6.620800e+02	-3.444569e+01
6.659041e+02	-3.448814e+01
6.697504e+02	-3.454122e+01
6.736188e+02	-3.458766e+01
6.775096e+02	-3.464499e+01
6.814229e+02	-3.469929e+01
6.853587e+02	-3.473738e+01
6.893173e+02	-3.479183e+01
6.932988e+02	-3.483865e+01
6.973033e+02	-3.490146e+01
7.013309e+02	-3.494118e+01
