Frequency(Hz)	Magnitude(dB)
1.000000e+01	-2.193271e+00
1.005776e+01	-2.213052e+00
1.011585e+01	-2.233236e+00
1.017428e+01	-2.253370e+00
1.023305e+01	-2.273709e+00
1.029215e+01	-2.294271e+00
1.035160e+01	-2.314687e+00
1.041139e+01	-2.335557e+00
1.047153e+01	-2.356442e+00
1.053201e+01	-2.377507e+00
1.059284e+01	-2.398579e+00
1.065403e+01	-2.419869e+00
1.071556e+01	-2.441360e+00
1.077746e+01	-2.462873e+00
1.083971e+01	-2.484536e+00
1.090232e+01	-2.506188e+00
1.096529e+01	-2.528385e+00
1.102862e+01	-2.550579e+00
1.109232e+01	-2.572740e+00
1.115639e+01	-2.595533e+00
1.122083e+01	-2.617940e+00
1.128564e+01	-2.640535e+00
1.135083e+01	-2.663529e+00
1.141639e+01	-2.686258e+00
1.148233e+01	-2.709536e+00
1.154865e+01	-2.732646e+00
1.161536e+01	-2.756554e+00
1.168245e+01	-2.779962e+00
1.174992e+01	-2.803583e+00
1.181779e+01	-2.827484e+00
1.188605e+01	-2.851642e+00
1.195470e+01	-2.875721e+00
1.202375e+01	-2.900064e+00
1.209320e+01	-2.924434e+00
1.216305e+01	-2.949032e+00
1.223330e+01	-2.973491e+00
1.230396e+01	-2.998460e+00
1.237503e+01	-3.023450e+00
1.244651e+01	-3.048590e+00
1.251840e+01	-3.074003e+00
1.259070e+01	-3.099367e+00
1.266343e+01	-3.125151e+00
1.273657e+01	-3.150760e+00
1.281014e+01	-3.176714e+00
1.288413e+01	-3.202849e+00
1.295855e+01	-3.228895e+00
1.303339e+01	-3.255363e+00
1.310867e+01	-3.281772e+00
1.318439e+01	-3.308275e+00
1.326054e+01	-3.334917e+00
1.333713e+01	-3.362009e+00
1.341417e+01	-3.389039e+00
1.349165e+01	-3.416032e+00
1.356958e+01	-3.443577e+00
1.364795e+01	-3.470744e+00
1.372678e+01	-3.498530e+00
1.380607e+01	-3.526507e+00
1.388581e+01	-3.554196e+00
1.396602e+01	-3.582028e+00
1.404668e+01	-3.610309e+00
1.412782e+01	-3.638589e+00
1.420942e+01	-3.667210e+00
1.429149e+01	-3.695605e+00
1.437404e+01	-3.724432e+00
1.445706e+01	-3.753162e+00
1.454057e+01	-3.782167e+00
1.462455e+01	-3.811404e+00
1.470902e+01	-3.840817e+00
1.479398e+01	-3.870198e+00
1.487943e+01	-3.899662e+00
1.496537e+01	-3.929337e+00
1.505181e+01	-3.959517e+00
1.513875e+01	-3.989289e+00
1.522619e+01	-4.019843e+00
1.531414e+01	-4.049408e+00
1.540259e+01	-4.080303e+00
1.549156e+01	-4.110649e+00
1.558103e+01	-4.141256e+00
1.567103e+01	-4.172269e+00
1.576155e+01	-4.203052e+00
1.585258e+01	-4.234506e+00
1.594415e+01	-4.265287e+00
1.603624e+01	-4.296802e+00
1.612886e+01	-4.328570e+00
1.622202e+01	-4.359979e+00
1.631572e+01	-4.391639e+00
1.640996e+01	-4.423645e+00
1.650474e+01	-4.455723e+00
1.660008e+01	-4.487695e+00
1.669596e+01	-4.520020e+00
1.679239e+01	-4.552486e+00
1.688938e+01	-4.585126e+00
1.698694e+01	-4.617809e+00
1.708505e+01	-4.650519e+00
1.718373e+01	-4.683128e+00
1.728299e+01	-4.716415e+00
1.738281e+01	-4.749469e+00
1.748322e+01	-4.783191e+00
1.758420e+01	-4.816756e+00
1.768576e+01	-4.850186e+00
1.778792e+01	-4.883689e+00
1.789066e+01	-4.917586e+00
1.799399e+01	-4.951624e+00
1.809793e+01	-4.985985e+00
1.820246e+01	-5.020054e+00
1.830760e+01	-5.054289e+00
1.841334e+01	-5.088546e+00
1.851969e+01	-5.123208e+00
1.862666e+01	-5.157990e+00
1.873425e+01	-5.192901e+00
1.884246e+01	-5.227661e+00
1.895129e+01	-5.263048e+00
1.906075e+01	-5.298173e+00
1.917085e+01	-5.333362e+00
1.928158e+01	-5.368950e+00
1.939295e+01	-5.404457e+00
1.950496e+01	-5.440042e+00
1.961762e+01	-5.475580e+00
1.973093e+01	-5.511888e+00
1.984490e+01	-5.547823e+00
1.995952e+01	-5.584179e+00
2.007480e+01	-5.620119e+00
2.019076e+01	-5.656584e+00
2.030738e+01	-5.693059e+00
2.042467e+01	-5.729302e+00
2.054264e+01	-5.766085e+00
2.066130e+01	-5.803187e+00
2.078064e+01	-5.840481e+00
2.090066e+01	-5.877126e+00
2.102139e+01	-5.914496e+00
2.114280e+01	-5.951537e+00
2.126492e+01	-5.988903e+00
2.138775e+01	-6.026349e+00
2.151128e+01	-6.063862e+00
2.163553e+01	-6.101821e+00
2.176050e+01	-6.139518e+00
2.188619e+01	-6.177443e+00
2.201260e+01	-6.215505e+00
2.213974e+01	-6.253808e+00
2.226762e+01	-6.291820e+00
2.239624e+01	-6.330291e+00
2.252560e+01	-6.368431e+00
2.265571e+01	-6.407162e+00
2.278656e+01	-6.445774e+00
2.291818e+01	-6.484549e+00
2.305055e+01	-6.523116e+00
2.318369e+01	-6.562010e+00
2.331760e+01	-6.601326e+00
2.345228e+01	-6.640406e+00
2.358774e+01	-6.679614e+00
2.372398e+01	-6.718696e+00
2.386101e+01	-6.758678e+00
2.399883e+01	-6.798097e+00
2.413745e+01	-6.837562e+00
2.427686e+01	-6.877293e+00
2.441709e+01	-6.917024e+00
2.455812e+01	-6.956525e+00
2.469997e+01	-6.997167e+00
2.484263e+01	-7.037081e+00
2.498612e+01	-7.077362e+00
2.513044e+01	-7.117748e+00
2.527559e+01	-7.157343e+00
2.542158e+01	-7.198630e+00
2.556842e+01	-7.239143e+00
2.571610e+01	-7.279295e+00
2.586463e+01	-7.319855e+00
2.601403e+01	-7.360887e+00
2.616428e+01	-7.401849e+00
2.631541e+01	-7.442772e+00
2.646740e+01	-7.483767e+00
2.662028e+01	-7.525020e+00
2.677404e+01	-7.566115e+00
2.692868e+01	-7.607432e+00
2.708422e+01	-7.648948e+00
2.724066e+01	-7.690227e+00
2.739800e+01	-7.731605e+00
2.755625e+01	-7.773746e+00
2.771541e+01	-7.814982e+00
2.787550e+01	-7.857245e+00
2.803650e+01	-7.898789e+00
2.819844e+01	-7.940673e+00
2.836131e+01	-7.982785e+00
2.852513e+01	-8.024877e+00
2.868989e+01	-8.067071e+00
2.885560e+01	-8.109278e+00
2.902227e+01	-8.151795e+00
2.918990e+01	-8.194017e+00
2.935850e+01	-8.236816e+00
2.952807e+01	-8.279683e+00
2.969863e+01	-8.321732e+00
2.987016e+01	-8.365045e+00
3.004269e+01	-8.407773e+00
3.021622e+01	-8.450266e+00
3.039075e+01	-8.492834e+00
3.056628e+01	-8.536056e+00
3.074283e+01	-8.578844e+00
3.092040e+01	-8.622198e+00
3.109900e+01	-8.665464e+00
3.127862e+01	-8.708770e+00
3.145929e+01	-8.752281e+00
3.164099e+01	-8.795427e+00
3.182375e+01	-8.839084e+00
3.200756e+01	-8.881992e+00
3.219244e+01	-8.925870e+00
3.237838e+01	-8.969249e+00
3.256540e+01	-9.013095e+00
3.275349e+01	-9.056764e+00
3.294268e+01	-9.100568e+00
3.313295e+01	-9.144735e+00
3.332433e+01	-9.188650e+00
3.351681e+01	-9.233022e+00
3.371040e+01	-9.276609e+00
3.390511e+01	-9.321067e+00
3.410094e+01	-9.365257e+00
3.429791e+01	-9.409657e+00
3.449601e+01	-9.454240e+00
3.469526e+01	-9.497779e+00
3.489566e+01	-9.542369e+00
3.509721e+01	-9.587285e+00
3.529993e+01	-9.632085e+00
3.550382e+01	-9.676528e+00
3.570889e+01	-9.720390e+00
3.591515e+01	-9.765873e+00
3.612259e+01	-9.810728e+00
3.633123e+01	-9.855224e+00
3.654108e+01	-9.899837e+00
3.675214e+01	-9.945094e+00
3.696442e+01	-9.990326e+00
3.717792e+01	-1.003522e+01
3.739266e+01	-1.007996e+01
3.760864e+01	-1.012548e+01
3.782587e+01	-1.017066e+01
3.804435e+01	-1.021558e+01
3.826409e+01	-1.026065e+01
3.848510e+01	-1.030708e+01
3.870739e+01	-1.035209e+01
3.893096e+01	-1.039723e+01
3.915583e+01	-1.044244e+01
3.938199e+01	-1.048864e+01
3.960946e+01	-1.053418e+01
3.983824e+01	-1.057987e+01
4.006834e+01	-1.062503e+01
4.029978e+01	-1.067119e+01
4.053255e+01	-1.071657e+01
4.076666e+01	-1.076284e+01
4.100213e+01	-1.080829e+01
4.123896e+01	-1.085406e+01
4.147715e+01	-1.090003e+01
4.171672e+01	-1.094578e+01
4.195767e+01	-1.099203e+01
4.220002e+01	-1.103854e+01
4.244377e+01	-1.108420e+01
4.268892e+01	-1.113018e+01
4.293549e+01	-1.117580e+01
4.318348e+01	-1.122287e+01
4.343291e+01	-1.126908e+01
4.368377e+01	-1.131546e+01
4.393609e+01	-1.136166e+01
4.418986e+01	-1.140828e+01
4.444510e+01	-1.145497e+01
4.470182e+01	-1.150108e+01
4.496001e+01	-1.154718e+01
4.521970e+01	-1.159424e+01
4.548089e+01	-1.164048e+01
4.574358e+01	-1.168749e+01
4.600779e+01	-1.173381e+01
4.627353e+01	-1.178079e+01
4.654081e+01	-1.182747e+01
4.680963e+01	-1.187427e+01
4.708000e+01	-1.192129e+01
4.735193e+01	-1.196780e+01
4.762543e+01	-1.201453e+01
4.790051e+01	-1.206115e+01
4.817719e+01	-1.210878e+01
4.845545e+01	-1.215524e+01
4.873533e+01	-1.220198e+01
4.901682e+01	-1.224990e+01
4.929994e+01	-1.229704e+01
4.958470e+01	-1.234386e+01
4.987110e+01	-1.239079e+01
5.015915e+01	-1.243745e+01
5.044887e+01	-1.248481e+01
5.074026e+01	-1.253216e+01
5.103333e+01	-1.257948e+01
5.132810e+01	-1.262703e+01
5.162457e+01	-1.267406e+01
5.192275e+01	-1.272130e+01
5.222265e+01	-1.276835e+01
5.252429e+01	-1.281699e+01
5.282767e+01	-1.286357e+01
5.313280e+01	-1.291085e+01
5.343969e+01	-1.295867e+01
5.374836e+01	-1.300611e+01
5.405880e+01	-1.305374e+01
5.437105e+01	-1.310128e+01
5.468509e+01	-1.314905e+01
5.500095e+01	-1.319663e+01
5.531863e+01	-1.324362e+01
5.563815e+01	-1.329206e+01
5.595951e+01	-1.333956e+01
5.628273e+01	-1.338743e+01
5.660782e+01	-1.343531e+01
5.693479e+01	-1.348233e+01
5.726364e+01	-1.353013e+01
5.759439e+01	-1.357781e+01
5.792705e+01	-1.362650e+01
5.826164e+01	-1.367400e+01
5.859815e+01	-1.372251e+01
5.893662e+01	-1.376955e+01
5.927703e+01	-1.381757e+01
5.961941e+01	-1.386538e+01
5.996377e+01	-1.391310e+01
6.031012e+01	-1.396151e+01
6.065847e+01	-1.400933e+01
6.100883e+01	-1.405766e+01
6.136121e+01	-1.410595e+01
6.171563e+01	-1.415322e+01
6.207210e+01	-1.420224e+01
6.243063e+01	-1.424968e+01
6.279122e+01	-1.429835e+01
6.315390e+01	-1.434675e+01
6.351868e+01	-1.439420e+01
6.388556e+01	-1.444269e+01
6.425456e+01	-1.449077e+01
6.462569e+01	-1.453975e+01
6.499897e+01	-1.458833e+01
6.537440e+01	-1.463685e+01
6.575200e+01	-1.468342e+01
6.613178e+01	-1.473206e+01
6.651375e+01	-1.478231e+01
6.689793e+01	-1.482926e+01
6.728433e+01	-1.487783e+01
6.767297e+01	-1.492643e+01
6.806384e+01	-1.497445e+01
6.845698e+01	-1.502320e+01
6.885238e+01	-1.507234e+01
6.925007e+01	-1.511990e+01
6.965005e+01	-1.516807e+01
7.005235e+01	-1.521681e+01
7.045697e+01	-1.526651e+01
7.086393e+01	-1.531469e+01
7.127323e+01	-1.536324e+01
7.168490e+01	-1.541164e+01
7.209895e+01	-1.545961e+01
7.251539e+01	-1.550853e+01
7.293424e+01	-1.555763e+01
7.335551e+01	-1.560554e+01
7.377920e+01	-1.565381e+01
7.420535e+01	-1.570245e+01
7.463396e+01	-1.575202e+01
7.506504e+01	-1.580025e+01
7.549861e+01	-1.584869e+01
7.593469e+01	-1.589801e+01
7.637328e+01	-1.594733e+01
7.681441e+01	-1.599516e+01
7.725809e+01	-1.604452e+01
7.770433e+01	-1.609287e+01
7.815315e+01	-1.614097e+01
7.860456e+01	-1.619103e+01
7.905857e+01	-1.624035e+01
7.951521e+01	-1.628845e+01
7.997449e+01	-1.633622e+01
8.043642e+01	-1.638605e+01
8.090102e+01	-1.643437e+01
8.136830e+01	-1.648342e+01
8.183828e+01	-1.653251e+01
8.231097e+01	-1.658181e+01
8.278640e+01	-1.663035e+01
8.326457e+01	-1.667985e+01
8.374550e+01	-1.672921e+01
8.422921e+01	-1.677703e+01
8.471572e+01	-1.682674e+01
8.520503e+01	-1.687578e+01
8.569717e+01	-1.692460e+01
8.619215e+01	-1.697327e+01
8.669000e+01	-1.702326e+01
8.719071e+01	-1.707067e+01
8.769432e+01	-1.712015e+01
8.820084e+01	-1.716967e+01
8.871029e+01	-1.721951e+01
8.922267e+01	-1.726779e+01
8.973802e+01	-1.731666e+01
9.025634e+01	-1.736676e+01
9.077766e+01	-1.741549e+01
9.130199e+01	-1.746553e+01
9.182935e+01	-1.751259e+01
9.235975e+01	-1.756243e+01
9.289321e+01	-1.761191e+01
9.342976e+01	-1.766092e+01
9.396941e+01	-1.770953e+01
9.451217e+01	-1.776031e+01
9.505807e+01	-1.780949e+01
9.560712e+01	-1.785893e+01
9.615934e+01	-1.790663e+01
9.671476e+01	-1.795723e+01
9.727338e+01	-1.800570e+01
9.783522e+01	-1.805320e+01
9.840032e+01	-1.810496e+01
9.896867e+01	-1.815367e+01
9.954031e+01	-1.820275e+01
1.001153e+02	-1.825218e+01
1.006935e+02	-1.830228e+01
1.012751e+02	-1.835014e+01
1.018601e+02	-1.839942e+01
1.024484e+02	-1.845065e+01
1.030402e+02	-1.849811e+01
1.036353e+02	-1.854707e+01
1.042339e+02	-1.859737e+01
1.048360e+02	-1.864661e+01
1.054415e+02	-1.869394e+01
1.060505e+02	-1.874507e+01
1.066631e+02	-1.879409e+01
1.072791e+02	-1.884452e+01
1.078988e+02	-1.889370e+01
1.085220e+02	-1.894370e+01
1.091488e+02	-1.899173e+01
1.097793e+02	-1.904218e+01
1.104133e+02	-1.909294e+01
1.110511e+02	-1.914234e+01
1.116925e+02	-1.918919e+01
1.123376e+02	-1.923946e+01
1.129865e+02	-1.928768e+01
1.136391e+02	-1.933725e+01
1.142955e+02	-1.938704e+01
1.149556e+02	-1.943618e+01
1.156196e+02	-1.948608e+01
1.162874e+02	-1.953606e+01
1.169591e+02	-1.958457e+01
1.176347e+02	-1.963461e+01
1.183141e+02	-1.968367e+01
1.189975e+02	-1.973322e+01
1.196848e+02	-1.978527e+01
1.203761e+02	-1.983228e+01
1.210714e+02	-1.988254e+01
1.217707e+02	-1.993063e+01
1.224740e+02	-1.998093e+01
1.231814e+02	-2.003154e+01
1.238929e+02	-2.007980e+01
1.246085e+02	-2.012954e+01
1.253283e+02	-2.017788e+01
1.260522e+02	-2.022804e+01
1.267802e+02	-2.027672e+01
1.275125e+02	-2.032885e+01
1.282490e+02	-2.037904e+01
1.289898e+02	-2.042840e+01
1.297348e+02	-2.047790e+01
1.304842e+02	-2.052627e+01
1.312378e+02	-2.057845e+01
1.319959e+02	-2.062579e+01
1.327583e+02	-2.067547e+01
1.335251e+02	-2.072453e+01
1.342963e+02	-2.077441e+01
1.350720e+02	-2.082483e+01
1.358522e+02	-2.087266e+01
1.366368e+02	-2.092371e+01
1.374260e+02	-2.097450e+01
1.382198e+02	-2.102189e+01
1.390182e+02	-2.107375e+01
1.398211e+02	-2.112134e+01
1.406287e+02	-2.117135e+01
1.414410e+02	-2.122314e+01
1.422579e+02	-2.127129e+01
1.430796e+02	-2.132219e+01
1.439060e+02	-2.137044e+01
1.447372e+02	-2.141992e+01
1.455732e+02	-2.146959e+01
1.464141e+02	-2.151893e+01
1.472597e+02	-2.156710e+01
1.481103e+02	-2.161794e+01
1.489658e+02	-2.166847e+01
1.498262e+02	-2.171626e+01
1.506916e+02	-2.176723e+01
1.515620e+02	-2.181769e+01
1.524374e+02	-2.186773e+01
1.533179e+02	-2.191730e+01
1.542034e+02	-2.196633e+01
1.550941e+02	-2.201749e+01
1.559899e+02	-2.206536e+01
1.568909e+02	-2.211607e+01
1.577971e+02	-2.216585e+01
1.587085e+02	-2.221645e+01
1.596252e+02	-2.226530e+01
1.605472e+02	-2.231517e+01
1.614745e+02	-2.236407e+01
1.624072e+02	-2.241530e+01
1.633453e+02	-2.246414e+01
1.642887e+02	-2.251323e+01
1.652377e+02	-2.256514e+01
1.661921e+02	-2.261316e+01
1.671520e+02	-2.266349e+01
1.681175e+02	-2.271319e+01
1.690885e+02	-2.276277e+01
1.700651e+02	-2.281245e+01
1.710474e+02	-2.286225e+01
1.720354e+02	-2.291452e+01
1.730291e+02	-2.296065e+01
1.740285e+02	-2.301257e+01
1.750337e+02	-2.306149e+01
1.760446e+02	-2.311102e+01
1.770615e+02	-2.316194e+01
1.780842e+02	-2.321015e+01
1.791128e+02	-2.326079e+01
1.801473e+02	-2.331180e+01
1.811878e+02	-2.335988e+01
1.822344e+02	-2.340957e+01
1.832870e+02	-2.346001e+01
1.843456e+02	-2.351056e+01
1.854104e+02	-2.355999e+01
1.864813e+02	-2.360754e+01
1.875584e+02	-2.365920e+01
1.886418e+02	-2.371288e+01
1.897313e+02	-2.375725e+01
1.908272e+02	-2.380887e+01
1.919294e+02	-2.385846e+01
1.930380e+02	-2.390771e+01
1.941530e+02	-2.396025e+01
1.952744e+02	-2.400602e+01
1.964023e+02	-2.406105e+01
1.975367e+02	-2.410826e+01
1.986777e+02	-2.415722e+01
1.998252e+02	-2.420716e+01
2.009794e+02	-2.425475e+01
2.021403e+02	-2.430587e+01
2.033078e+02	-2.435854e+01
2.044821e+02	-2.440760e+01
2.056632e+02	-2.445750e+01
2.068511e+02	-2.450056e+01
2.080459e+02	-2.455472e+01
2.092475e+02	-2.460578e+01
2.104561e+02	-2.465604e+01
2.116717e+02	-2.470473e+01
2.128943e+02	-2.475648e+01
2.141240e+02	-2.480724e+01
2.153608e+02	-2.485754e+01
2.166047e+02	-2.490571e+01
2.178558e+02	-2.495373e+01
2.191141e+02	-2.500764e+01
2.203797e+02	-2.505367e+01
2.216526e+02	-2.510567e+01
2.229329e+02	-2.515771e+01
2.242205e+02	-2.520446e+01
2.255156e+02	-2.525677e+01
2.268182e+02	-2.530443e+01
2.281283e+02	-2.535728e+01
2.294459e+02	-2.540709e+01
2.307712e+02	-2.545915e+01
2.321041e+02	-2.550353e+01
2.334447e+02	-2.555554e+01
2.347931e+02	-2.560614e+01
2.361493e+02	-2.565302e+01
2.375133e+02	-2.570783e+01
2.388851e+02	-2.575295e+01
2.402649e+02	-2.580510e+01
2.416527e+02	-2.585414e+01
2.430484e+02	-2.590648e+01
2.444523e+02	-2.595357e+01
2.458642e+02	-2.600315e+01
2.472843e+02	-2.605490e+01
2.487126e+02	-2.610593e+01
2.501492e+02	-2.615590e+01
2.515940e+02	-2.620481e+01
2.530472e+02	-2.625379e+01
2.545088e+02	-2.630367e+01
2.559789e+02	-2.635517e+01
2.574574e+02	-2.640494e+01
2.589444e+02	-2.645273e+01
2.604401e+02	-2.650218e+01
2.619444e+02	-2.655527e+01
2.634574e+02	-2.660067e+01
2.649791e+02	-2.665736e+01
2.665096e+02	-2.670419e+01
2.680489e+02	-2.675323e+01
2.695972e+02	-2.680407e+01
2.711544e+02	-2.685759e+01
2.727205e+02	-2.690465e+01
2.742958e+02	-2.695084e+01
2.758801e+02	-2.700170e+01
2.774736e+02	-2.705771e+01
2.790762e+02	-2.710246e+01
2.806882e+02	-2.715169e+01
2.823094e+02	-2.720048e+01
2.839400e+02	-2.725061e+01
2.855800e+02	-2.730278e+01
2.872295e+02	-2.735104e+01
2.888886e+02	-2.740440e+01
2.905572e+02	-2.745693e+01
2.922354e+02	-2.750156e+01
2.939234e+02	-2.755600e+01
2.956211e+02	-2.760270e+01
2.973286e+02	-2.765590e+01
2.990459e+02	-2.770584e+01
3.007732e+02	-2.775500e+01
3.025104e+02	-2.780146e+01
3.042577e+02	-2.785320e+01
3.060151e+02	-2.790236e+01
3.077826e+02	-2.795350e+01
3.095604e+02	-2.800380e+01
3.113484e+02	-2.805546e+01
3.131467e+02	-2.810710e+01
3.149554e+02	-2.815578e+01
3.167746e+02	-2.820540e+01
3.186043e+02	-2.825887e+01
3.204445e+02	-2.830150e+01
3.222954e+02	-2.835261e+01
3.241570e+02	-2.840431e+01
3.260293e+02	-2.845203e+01
3.279124e+02	-2.850371e+01
3.298064e+02	-2.855462e+01
3.317114e+02	-2.860532e+01
3.336273e+02	-2.865418e+01
3.355544e+02	-2.870288e+01
3.374925e+02	-2.875080e+01
3.394418e+02	-2.880577e+01
3.414024e+02	-2.885273e+01
3.433744e+02	-2.890580e+01
3.453577e+02	-2.895416e+01
3.473525e+02	-2.900618e+01
3.493588e+02	-2.905835e+01
3.513766e+02	-2.910095e+01
3.534062e+02	-2.915751e+01
3.554474e+02	-2.920336e+01
3.575005e+02	-2.926016e+01
3.595654e+02	-2.930587e+01
3.616422e+02	-2.935706e+01
3.637311e+02	-2.940370e+01
3.658320e+02	-2.945221e+01
3.679450e+02	-2.950215e+01
3.700702e+02	-2.955296e+01
3.722077e+02	-2.960596e+01
3.743576e+02	-2.965484e+01
3.765199e+02	-2.970424e+01
3.786946e+02	-2.975643e+01
3.808820e+02	-2.980359e+01
3.830819e+02	-2.985914e+01
3.852946e+02	-2.990695e+01
3.875200e+02	-2.995729e+01
3.897583e+02	-3.000623e+01
3.920096e+02	-3.005459e+01
3.942738e+02	-3.010892e+01
3.965511e+02	-3.015768e+01
3.988416e+02	-3.021087e+01
4.011452e+02	-3.025509e+01
4.034622e+02	-3.031122e+01
4.057926e+02	-3.035530e+01
4.081365e+02	-3.040831e+01
4.104938e+02	-3.045707e+01
4.128648e+02	-3.050512e+01
4.152495e+02	-3.055611e+01
4.176480e+02	-3.060531e+01
4.200603e+02	-3.065766e+01
4.224866e+02	-3.070742e+01
4.249268e+02	-3.075883e+01
4.273812e+02	-3.080289e+01
4.298497e+02	-3.085833e+01
4.323325e+02	-3.090723e+01
4.348297e+02	-3.095815e+01
4.373412e+02	-3.100894e+01
4.398673e+02	-3.106180e+01
4.424079e+02	-3.111373e+01
4.449633e+02	-3.115603e+01
4.475334e+02	-3.120736e+01
4.501183e+02	-3.125795e+01
4.527182e+02	-3.130698e+01
4.553330e+02	-3.135714e+01
4.579630e+02	-3.141134e+01
4.606082e+02	-3.145383e+01
4.632687e+02	-3.151651e+01
4.659445e+02	-3.156020e+01
4.686358e+02	-3.161061e+01
4.713426e+02	-3.166400e+01
4.740650e+02	-3.171791e+01
4.768032e+02	-3.176465e+01
4.795572e+02	-3.181026e+01
4.823271e+02	-3.185527e+01
4.851130e+02	-3.190837e+01
4.879150e+02	-3.195987e+01
4.907332e+02	-3.201471e+01
4.935676e+02	-3.206029e+01
4.964185e+02	-3.210993e+01
4.992858e+02	-3.216211e+01
5.021696e+02	-3.221271e+01
5.050701e+02	-3.226446e+01
5.079874e+02	-3.231185e+01
5.109215e+02	-3.235844e+01
5.138726e+02	-3.241122e+01
5.168407e+02	-3.245956e+01
5.198259e+02	-3.251434e+01
5.228284e+02	-3.256614e+01
5.258482e+02	-3.261026e+01
5.288855e+02	-3.266158e+01
5.319403e+02	-3.271354e+01
5.350128e+02	-3.276140e+01
5.381030e+02	-3.281468e+01
5.412111e+02	-3.285957e+01
5.443371e+02	-3.291462e+01
5.474812e+02	-3.296645e+01
5.506434e+02	-3.301327e+01
5.538239e+02	-3.306321e+01
5.570228e+02	-3.311089e+01
5.602401e+02	-3.315981e+01
5.634760e+02	-3.322194e+01
5.667306e+02	-3.327217e+01
5.700040e+02	-3.332067e+01
5.732964e+02	-3.336712e+01
5.766077e+02	-3.341378e+01
5.799382e+02	-3.346987e+01
5.832879e+02	-3.351744e+01
5.866569e+02	-3.357365e+01
5.900454e+02	-3.361730e+01
5.934535e+02	-3.366566e+01
5.968813e+02	-3.371220e+01
6.003288e+02	-3.377465e+01
6.037963e+02	-3.382364e+01
6.072838e+02	-3.387663e+01
6.107914e+02	-3.392064e+01
6.143194e+02	-3.396829e+01
6.178676e+02	-3.402455e+01
6.214364e+02	-3.407444e+01
6.250258e+02	-3.412147e+01
6.286359e+02	-3.417460e+01
6.322669e+02	-3.422294e+01
6.359189e+02	-3.426659e+01
6.395919e+02	-3.432372e+01
6.432862e+02	-3.437976e+01
6.470017e+02	-3.443024e+01
6.507388e+02	-3.448076e+01
6.544974e+02	-3.452713e+01
6.582778e+02	-3.457308e+01
6.620800e+02	-3.463037e+01
6.659041e+02	-3.467508e+01
6.697504e+02	-3.471959e+01
6.736188e+02	-3.477764e+01
6.775096e+02	-3.482239e+01
6.814229e+02	-3.487455e+01
6.853587e+02	-3.492845e+01
6.893173e+02	-3.498576e+01
6.932988e+02	-3.503068e+01
6.973033e+02	-3.507467e+01
7.013309e+02	-3.512545e+01
