Frequency(Hz)	Magnitude(dB)
1.000000e+01	-1.752627e-05
1.005776e+01	-1.772931e-05
1.011585e+01	-1.793471e-05
1.017428e+01	-1.814249e-05
1.023305e+01	-1.835267e-05
1.029215e+01	-1.856529e-05
1.035160e+01	-1.878038e-05
1.041139e+01	-1.899795e-05
1.047153e+01	-1.921805e-05
1.053201e+01	-1.944070e-05
1.059284e+01	-1.966592e-05
1.065403e+01	-1.989376e-05
1.071556e+01	-2.012423e-05
1.077746e+01	-2.035737e-05
1.083971e+01	-2.059322e-05
1.090232e+01	-2.083180e-05
1.096529e+01	-2.107314e-05
1.102862e+01	-2.131728e-05
1.109232e+01	-2.156424e-05
1.115639e+01	-2.181407e-05
1.122083e+01	-2.206679e-05
1.128564e+01	-2.232244e-05
1.135083e+01	-2.258105e-05
1.141639e+01	-2.284266e-05
1.148233e+01	-2.310730e-05
1.154865e+01	-2.337500e-05
1.161536e+01	-2.364581e-05
1.168245e+01	-2.391975e-05
1.174992e+01	-2.419686e-05
1.181779e+01	-2.447719e-05
1.188605e+01	-2.476076e-05
1.195470e+01	-2.504762e-05
1.202375e+01	-2.533781e-05
1.209320e+01	-2.563135e-05
1.216305e+01	-2.592830e-05
1.223330e+01	-2.622868e-05
1.230396e+01	-2.653255e-05
1.237503e+01	-2.683993e-05
1.244651e+01	-2.715088e-05
1.251840e+01	-2.746543e-05
1.259070e+01	-2.778363e-05
1.266343e+01	-2.810551e-05
1.273657e+01	-2.843111e-05
1.281014e+01	-2.876050e-05
1.288413e+01	-2.909369e-05
1.295855e+01	-2.943075e-05
1.303339e+01	-2.977171e-05
1.310867e+01	-3.011663e-05
1.318439e+01	-3.046553e-05
1.326054e+01	-3.081848e-05
1.333713e+01	-3.117552e-05
1.341417e+01	-3.153670e-05
1.349165e+01	-3.190206e-05
1.356958e+01	-3.227165e-05
1.364795e+01	-3.264553e-05
1.372678e+01	-3.302373e-05
1.380607e+01	-3.340632e-05
1.388581e+01	-3.379334e-05
1.396602e+01	-3.418485e-05
1.404668e+01	-3.458088e-05
1.412782e+01	-3.498151e-05
1.420942e+01	-3.538678e-05
1.429149e+01	-3.579675e-05
1.437404e+01	-3.621146e-05
1.445706e+01	-3.663098e-05
1.454057e+01	-3.705536e-05
1.462455e+01	-3.748465e-05
1.470902e+01	-3.791892e-05
1.479398e+01	-3.835822e-05
1.487943e+01	-3.880261e-05
1.496537e+01	-3.925214e-05
1.505181e+01	-3.970689e-05
1.513875e+01	-4.016690e-05
1.522619e+01	-4.063224e-05
1.531414e+01	-4.110298e-05
1.540259e+01	-4.157917e-05
1.549156e+01	-4.206087e-05
1.558103e+01	-4.254815e-05
1.567103e+01	-4.304108e-05
1.576155e+01	-4.353972e-05
1.585258e+01	-4.404414e-05
1.594415e+01	-4.455440e-05
1.603624e+01	-4.507058e-05
1.612886e+01	-4.559273e-05
1.622202e+01	-4.612093e-05
1.631572e+01	-4.665525e-05
1.640996e+01	-4.719576e-05
1.650474e+01	-4.774253e-05
1.660008e+01	-4.829564e-05
1.669596e+01	-4.885516e-05
1.679239e+01	-4.942116e-05
1.688938e+01	-4.999371e-05
1.698694e+01	-5.057290e-05
1.708505e+01	-5.115880e-05
1.718373e+01	-5.175148e-05
1.728299e+01	-5.235103e-05
1.738281e+01	-5.295753e-05
1.748322e+01	-5.357105e-05
1.758420e+01	-5.419169e-05
1.768576e+01	-5.481951e-05
1.778792e+01	-5.545460e-05
1.789066e+01	-5.609706e-05
1.799399e+01	-5.674695e-05
1.809793e+01	-5.740438e-05
1.820246e+01	-5.806942e-05
1.830760e+01	-5.874216e-05
1.841334e+01	-5.942270e-05
1.851969e+01	-6.011113e-05
1.862666e+01	-6.080753e-05
1.873425e+01	-6.151199e-05
1.884246e+01	-6.222462e-05
1.895129e+01	-6.294551e-05
1.906075e+01	-6.367474e-05
1.917085e+01	-6.441243e-05
1.928158e+01	-6.515866e-05
1.939295e+01	-6.591353e-05
1.950496e+01	-6.667715e-05
1.961762e+01	-6.744962e-05
1.973093e+01	-6.823104e-05
1.984490e+01	-6.902151e-05
1.995952e+01	-6.982113e-05
2.007480e+01	-7.063003e-05
2.019076e+01	-7.144829e-05
2.030738e+01	-7.227603e-05
2.042467e+01	-7.311336e-05
2.054264e+01	-7.396039e-05
2.066130e+01	-7.481724e-05
2.078064e+01	-7.568401e-05
2.090066e+01	-7.656082e-05
2.102139e+01	-7.744779e-05
2.114280e+01	-7.834504e-05
2.126492e+01	-7.925268e-05
2.138775e+01	-8.017083e-05
2.151128e+01	-8.109963e-05
2.163553e+01	-8.203918e-05
2.176050e+01	-8.298962e-05
2.188619e+01	-8.395107e-05
2.201260e+01	-8.492365e-05
2.213974e+01	-8.590751e-05
2.226762e+01	-8.690276e-05
2.239624e+01	-8.790954e-05
2.252560e+01	-8.892799e-05
2.265571e+01	-8.995823e-05
2.278656e+01	-9.100041e-05
2.291818e+01	-9.205467e-05
2.305055e+01	-9.312114e-05
2.318369e+01	-9.419996e-05
2.331760e+01	-9.529128e-05
2.345228e+01	-9.639524e-05
2.358774e+01	-9.751200e-05
2.372398e+01	-9.864169e-05
2.386101e+01	-9.978447e-05
2.399883e+01	-1.009405e-04
2.413745e+01	-1.021099e-04
2.427686e+01	-1.032929e-04
2.441709e+01	-1.044895e-04
2.455812e+01	-1.057000e-04
2.469997e+01	-1.069246e-04
2.484263e+01	-1.081633e-04
2.498612e+01	-1.094164e-04
2.513044e+01	-1.106840e-04
2.527559e+01	-1.119663e-04
2.542158e+01	-1.132634e-04
2.556842e+01	-1.145756e-04
2.571610e+01	-1.159030e-04
2.586463e+01	-1.172457e-04
2.601403e+01	-1.186040e-04
2.616428e+01	-1.199781e-04
2.631541e+01	-1.213680e-04
2.646740e+01	-1.227741e-04
2.662028e+01	-1.241965e-04
2.677404e+01	-1.256353e-04
2.692868e+01	-1.270908e-04
2.708422e+01	-1.285632e-04
2.724066e+01	-1.300526e-04
2.739800e+01	-1.315592e-04
2.755625e+01	-1.330834e-04
2.771541e+01	-1.346252e-04
2.787550e+01	-1.361848e-04
2.803650e+01	-1.377625e-04
2.819844e+01	-1.393585e-04
2.836131e+01	-1.409730e-04
2.852513e+01	-1.426062e-04
2.868989e+01	-1.442583e-04
2.885560e+01	-1.459295e-04
2.902227e+01	-1.476201e-04
2.918990e+01	-1.493303e-04
2.935850e+01	-1.510603e-04
2.952807e+01	-1.528104e-04
2.969863e+01	-1.545807e-04
2.987016e+01	-1.563715e-04
3.004269e+01	-1.581831e-04
3.021622e+01	-1.600156e-04
3.039075e+01	-1.618694e-04
3.056628e+01	-1.637447e-04
3.074283e+01	-1.656417e-04
3.092040e+01	-1.675607e-04
3.109900e+01	-1.695019e-04
3.127862e+01	-1.714656e-04
3.145929e+01	-1.734520e-04
3.164099e+01	-1.754614e-04
3.182375e+01	-1.774942e-04
3.200756e+01	-1.795504e-04
3.219244e+01	-1.816305e-04
3.237838e+01	-1.837347e-04
3.256540e+01	-1.858633e-04
3.275349e+01	-1.880165e-04
3.294268e+01	-1.901947e-04
3.313295e+01	-1.923981e-04
3.332433e+01	-1.946271e-04
3.351681e+01	-1.968818e-04
3.371040e+01	-1.991627e-04
3.390511e+01	-2.014700e-04
3.410094e+01	-2.038040e-04
3.429791e+01	-2.061651e-04
3.449601e+01	-2.085535e-04
3.469526e+01	-2.109696e-04
3.489566e+01	-2.134137e-04
3.509721e+01	-2.158861e-04
3.529993e+01	-2.183871e-04
3.550382e+01	-2.209171e-04
3.570889e+01	-2.234765e-04
3.591515e+01	-2.260654e-04
3.612259e+01	-2.286844e-04
3.633123e+01	-2.313337e-04
3.654108e+01	-2.340137e-04
3.675214e+01	-2.367247e-04
3.696442e+01	-2.394672e-04
3.717792e+01	-2.422414e-04
3.739266e+01	-2.450478e-04
3.760864e+01	-2.478866e-04
3.782587e+01	-2.507584e-04
3.804435e+01	-2.536634e-04
3.826409e+01	-2.566021e-04
3.848510e+01	-2.595748e-04
3.870739e+01	-2.625819e-04
3.893096e+01	-2.656239e-04
3.915583e+01	-2.687012e-04
3.938199e+01	-2.718140e-04
3.960946e+01	-2.749630e-04
3.983824e+01	-2.781484e-04
4.006834e+01	-2.813707e-04
4.029978e+01	-2.846304e-04
4.053255e+01	-2.879278e-04
4.076666e+01	-2.912634e-04
4.100213e+01	-2.946377e-04
4.123896e+01	-2.980510e-04
4.147715e+01	-3.015039e-04
4.171672e+01	-3.049968e-04
4.195767e+01	-3.085301e-04
4.220002e+01	-3.121044e-04
4.244377e+01	-3.157201e-04
4.268892e+01	-3.193776e-04
4.293549e+01	-3.230776e-04
4.318348e+01	-3.268204e-04
4.343291e+01	-3.306066e-04
4.368377e+01	-3.344366e-04
4.393609e+01	-3.383110e-04
4.418986e+01	-3.422302e-04
4.444510e+01	-3.461949e-04
4.470182e+01	-3.502055e-04
4.496001e+01	-3.542626e-04
4.521970e+01	-3.583666e-04
4.548089e+01	-3.625182e-04
4.574358e+01	-3.667179e-04
4.600779e+01	-3.709663e-04
4.627353e+01	-3.752638e-04
4.654081e+01	-3.796112e-04
4.680963e+01	-3.840089e-04
4.708000e+01	-3.884575e-04
4.735193e+01	-3.929577e-04
4.762543e+01	-3.975101e-04
4.790051e+01	-4.021151e-04
4.817719e+01	-4.067735e-04
4.845545e+01	-4.114859e-04
4.873533e+01	-4.162528e-04
4.901682e+01	-4.210750e-04
4.929994e+01	-4.259530e-04
4.958470e+01	-4.308875e-04
4.987110e+01	-4.358792e-04
5.015915e+01	-4.409288e-04
5.044887e+01	-4.460368e-04
5.074026e+01	-4.512040e-04
5.103333e+01	-4.564310e-04
5.132810e+01	-4.617186e-04
5.162457e+01	-4.670675e-04
5.192275e+01	-4.724783e-04
5.222265e+01	-4.779518e-04
5.252429e+01	-4.834887e-04
5.282767e+01	-4.890897e-04
5.313280e+01	-4.947556e-04
5.343969e+01	-5.004872e-04
5.374836e+01	-5.062851e-04
5.405880e+01	-5.121502e-04
5.437105e+01	-5.180833e-04
5.468509e+01	-5.240851e-04
5.500095e+01	-5.301564e-04
5.531863e+01	-5.362980e-04
5.563815e+01	-5.425108e-04
5.595951e+01	-5.487955e-04
5.628273e+01	-5.551530e-04
5.660782e+01	-5.615842e-04
5.693479e+01	-5.680899e-04
5.726364e+01	-5.746710e-04
5.759439e+01	-5.813282e-04
5.792705e+01	-5.880626e-04
5.826164e+01	-5.948750e-04
5.859815e+01	-6.017663e-04
5.893662e+01	-6.087375e-04
5.927703e+01	-6.157894e-04
5.961941e+01	-6.229229e-04
5.996377e+01	-6.301392e-04
6.031012e+01	-6.374390e-04
6.065847e+01	-6.448233e-04
6.100883e+01	-6.522932e-04
6.136121e+01	-6.598496e-04
6.171563e+01	-6.674936e-04
6.207210e+01	-6.752261e-04
6.243063e+01	-6.830481e-04
6.279122e+01	-6.909608e-04
6.315390e+01	-6.989651e-04
6.351868e+01	-7.070622e-04
6.388556e+01	-7.152530e-04
6.425456e+01	-7.235387e-04
6.462569e+01	-7.319204e-04
6.499897e+01	-7.403992e-04
6.537440e+01	-7.489762e-04
6.575200e+01	-7.576525e-04
6.613178e+01	-7.664294e-04
6.651375e+01	-7.753079e-04
6.689793e+01	-7.842892e-04
6.728433e+01	-7.933746e-04
6.767297e+01	-8.025652e-04
6.806384e+01	-8.118623e-04
6.845698e+01	-8.212670e-04
6.885238e+01	-8.307807e-04
6.925007e+01	-8.404046e-04
6.965005e+01	-8.501400e-04
7.005235e+01	-8.599881e-04
7.045697e+01	-8.699503e-04
7.086393e+01	-8.800279e-04
7.127323e+01	-8.902222e-04
7.168490e+01	-9.005346e-04
7.209895e+01	-9.109664e-04
7.251539e+01	-9.215191e-04
7.293424e+01	-9.321940e-04
7.335551e+01	-9.429926e-04
7.377920e+01	-9.539162e-04
7.420535e+01	-9.649664e-04
7.463396e+01	-9.761445e-04
7.506504e+01	-9.874521e-04
7.549861e+01	-9.988907e-04
7.593469e+01	-1.010462e-03
7.637328e+01	-1.022167e-03
7.681441e+01	-1.034008e-03
7.725809e+01	-1.045985e-03
7.770433e+01	-1.058102e-03
7.815315e+01	-1.070359e-03
7.860456e+01	-1.082758e-03
7.905857e+01	-1.095300e-03
7.951521e+01	-1.107988e-03
7.997449e+01	-1.120823e-03
8.043642e+01	-1.133806e-03
8.090102e+01	-1.146940e-03
8.136830e+01	-1.160225e-03
8.183828e+01	-1.173665e-03
8.231097e+01	-1.187260e-03
8.278640e+01	-1.201013e-03
8.326457e+01	-1.214925e-03
8.374550e+01	-1.228999e-03
8.422921e+01	-1.243235e-03
8.471572e+01	-1.257636e-03
8.520503e+01	-1.272204e-03
8.569717e+01	-1.286941e-03
8.619215e+01	-1.301848e-03
8.669000e+01	-1.316928e-03
8.719071e+01	-1.332183e-03
8.769432e+01	-1.347614e-03
8.820084e+01	-1.363224e-03
8.871029e+01	-1.379015e-03
8.922267e+01	-1.394988e-03
8.973802e+01	-1.411147e-03
9.025634e+01	-1.427493e-03
9.077766e+01	-1.444028e-03
9.130199e+01	-1.460755e-03
9.182935e+01	-1.477675e-03
9.235975e+01	-1.494791e-03
9.289321e+01	-1.512106e-03
9.342976e+01	-1.529621e-03
9.396941e+01	-1.547339e-03
9.451217e+01	-1.565262e-03
9.505807e+01	-1.583393e-03
9.560712e+01	-1.601733e-03
9.615934e+01	-1.620286e-03
9.671476e+01	-1.639054e-03
9.727338e+01	-1.658040e-03
9.783522e+01	-1.677245e-03
9.840032e+01	-1.696672e-03
9.896867e+01	-1.716325e-03
9.954031e+01	-1.736205e-03
1.001153e+02	-1.756315e-03
1.006935e+02	-1.776658e-03
1.012751e+02	-1.797237e-03
1.018601e+02	-1.818054e-03
1.024484e+02	-1.839112e-03
1.030402e+02	-1.860414e-03
1.036353e+02	-1.881963e-03
1.042339e+02	-1.903761e-03
1.048360e+02	-1.925812e-03
1.054415e+02	-1.948118e-03
1.060505e+02	-1.970683e-03
1.066631e+02	-1.993508e-03
1.072791e+02	-2.016598e-03
1.078988e+02	-2.039955e-03
1.085220e+02	-2.063583e-03
1.091488e+02	-2.087485e-03
1.097793e+02	-2.111663e-03
1.104133e+02	-2.136121e-03
1.110511e+02	-2.160862e-03
1.116925e+02	-2.185890e-03
1.123376e+02	-2.211208e-03
1.129865e+02	-2.236819e-03
1.136391e+02	-2.262726e-03
1.142955e+02	-2.288934e-03
1.149556e+02	-2.315444e-03
1.156196e+02	-2.342262e-03
1.162874e+02	-2.369390e-03
1.169591e+02	-2.396833e-03
1.176347e+02	-2.424593e-03
1.183141e+02	-2.452675e-03
1.189975e+02	-2.481081e-03
1.196848e+02	-2.509817e-03
1.203761e+02	-2.538886e-03
1.210714e+02	-2.568291e-03
1.217707e+02	-2.598036e-03
1.224740e+02	-2.628126e-03
1.231814e+02	-2.658564e-03
1.238929e+02	-2.689355e-03
1.246085e+02	-2.720502e-03
1.253283e+02	-2.752009e-03
1.260522e+02	-2.783882e-03
1.267802e+02	-2.816123e-03
1.275125e+02	-2.848738e-03
1.282490e+02	-2.881731e-03
1.289898e+02	-2.915105e-03
1.297348e+02	-2.948866e-03
1.304842e+02	-2.983018e-03
1.312378e+02	-3.017565e-03
1.319959e+02	-3.052512e-03
1.327583e+02	-3.087863e-03
1.335251e+02	-3.123624e-03
1.342963e+02	-3.159799e-03
1.350720e+02	-3.196392e-03
1.358522e+02	-3.233410e-03
1.366368e+02	-3.270855e-03
1.374260e+02	-3.308735e-03
1.382198e+02	-3.347052e-03
1.390182e+02	-3.385814e-03
1.398211e+02	-3.425024e-03
1.406287e+02	-3.464688e-03
1.414410e+02	-3.504811e-03
1.422579e+02	-3.545398e-03
1.430796e+02	-3.586456e-03
1.439060e+02	-3.627988e-03
1.447372e+02	-3.670002e-03
1.455732e+02	-3.712502e-03
1.464141e+02	-3.755493e-03
1.472597e+02	-3.798982e-03
1.481103e+02	-3.842975e-03
1.489658e+02	-3.887477e-03
1.498262e+02	-3.932494e-03
1.506916e+02	-3.978032e-03
1.515620e+02	-4.024097e-03
1.524374e+02	-4.070696e-03
1.533179e+02	-4.117833e-03
1.542034e+02	-4.165517e-03
1.550941e+02	-4.213752e-03
1.559899e+02	-4.262545e-03
1.568909e+02	-4.311903e-03
1.577971e+02	-4.361833e-03
1.587085e+02	-4.412340e-03
1.596252e+02	-4.463432e-03
1.605472e+02	-4.515115e-03
1.614745e+02	-4.567396e-03
1.624072e+02	-4.620282e-03
1.633453e+02	-4.673781e-03
1.642887e+02	-4.727898e-03
1.652377e+02	-4.782642e-03
1.661921e+02	-4.838019e-03
1.671520e+02	-4.894037e-03
1.681175e+02	-4.950703e-03
1.690885e+02	-5.008025e-03
1.700651e+02	-5.066011e-03
1.710474e+02	-5.124667e-03
1.720354e+02	-5.184002e-03
1.730291e+02	-5.244024e-03
1.740285e+02	-5.304740e-03
1.750337e+02	-5.366159e-03
1.760446e+02	-5.428288e-03
1.770615e+02	-5.491136e-03
1.780842e+02	-5.554712e-03
1.791128e+02	-5.619023e-03
1.801473e+02	-5.684078e-03
1.811878e+02	-5.749886e-03
1.822344e+02	-5.816455e-03
1.832870e+02	-5.883794e-03
1.843456e+02	-5.951913e-03
1.854104e+02	-6.020819e-03
1.864813e+02	-6.090523e-03
1.875584e+02	-6.161033e-03
1.886418e+02	-6.232359e-03
1.897313e+02	-6.304510e-03
1.908272e+02	-6.377495e-03
1.919294e+02	-6.451325e-03
1.930380e+02	-6.526009e-03
1.941530e+02	-6.601557e-03
1.952744e+02	-6.677979e-03
1.964023e+02	-6.755285e-03
1.975367e+02	-6.833485e-03
1.986777e+02	-6.912589e-03
1.998252e+02	-6.992609e-03
2.009794e+02	-7.073554e-03
2.021403e+02	-7.155435e-03
2.033078e+02	-7.238263e-03
2.044821e+02	-7.322049e-03
2.056632e+02	-7.406805e-03
2.068511e+02	-7.492540e-03
2.080459e+02	-7.579267e-03
2.092475e+02	-7.666997e-03
2.104561e+02	-7.755742e-03
2.116717e+02	-7.845513e-03
2.128943e+02	-7.936322e-03
2.141240e+02	-8.028181e-03
2.153608e+02	-8.121102e-03
2.166047e+02	-8.215098e-03
2.178558e+02	-8.310181e-03
2.191141e+02	-8.406363e-03
2.203797e+02	-8.503657e-03
2.216526e+02	-8.602076e-03
2.229329e+02	-8.701633e-03
2.242205e+02	-8.802341e-03
2.255156e+02	-8.904214e-03
2.268182e+02	-9.007264e-03
2.281283e+02	-9.111506e-03
2.294459e+02	-9.216953e-03
2.307712e+02	-9.323618e-03
2.321041e+02	-9.431517e-03
2.334447e+02	-9.540663e-03
2.347931e+02	-9.651071e-03
2.361493e+02	-9.762755e-03
2.375133e+02	-9.875730e-03
2.388851e+02	-9.990011e-03
2.402649e+02	-1.010561e-02
2.416527e+02	-1.022255e-02
2.430484e+02	-1.034084e-02
2.444523e+02	-1.046050e-02
2.458642e+02	-1.058154e-02
2.472843e+02	-1.070397e-02
2.487126e+02	-1.082783e-02
2.501492e+02	-1.095311e-02
2.515940e+02	-1.107984e-02
2.530472e+02	-1.120804e-02
2.545088e+02	-1.133772e-02
2.559789e+02	-1.146890e-02
2.574574e+02	-1.160159e-02
2.589444e+02	-1.173581e-02
2.604401e+02	-1.187159e-02
2.619444e+02	-1.200893e-02
2.634574e+02	-1.214786e-02
2.649791e+02	-1.228840e-02
2.665096e+02	-1.243056e-02
2.680489e+02	-1.257436e-02
2.695972e+02	-1.271983e-02
2.711544e+02	-1.286697e-02
2.727205e+02	-1.301581e-02
2.742958e+02	-1.316637e-02
2.758801e+02	-1.331868e-02
2.774736e+02	-1.347274e-02
2.790762e+02	-1.362858e-02
2.806882e+02	-1.378621e-02
2.823094e+02	-1.394567e-02
2.839400e+02	-1.410697e-02
2.855800e+02	-1.427014e-02
2.872295e+02	-1.443519e-02
2.888886e+02	-1.460214e-02
2.905572e+02	-1.477102e-02
2.922354e+02	-1.494185e-02
2.939234e+02	-1.511465e-02
2.956211e+02	-1.528945e-02
2.973286e+02	-1.546627e-02
2.990459e+02	-1.564512e-02
3.007732e+02	-1.582605e-02
3.025104e+02	-1.600905e-02
3.042577e+02	-1.619418e-02
3.060151e+02	-1.638144e-02
3.077826e+02	-1.657086e-02
3.095604e+02	-1.676246e-02
3.113484e+02	-1.695628e-02
3.131467e+02	-1.715233e-02
3.149554e+02	-1.735065e-02
3.167746e+02	-1.755125e-02
3.186043e+02	-1.775417e-02
3.204445e+02	-1.795943e-02
3.222954e+02	-1.816706e-02
3.241570e+02	-1.837708e-02
3.260293e+02	-1.858953e-02
3.279124e+02	-1.880442e-02
3.298064e+02	-1.902180e-02
3.317114e+02	-1.924168e-02
3.336273e+02	-1.946410e-02
3.355544e+02	-1.968908e-02
3.374925e+02	-1.991666e-02
3.394418e+02	-2.014687e-02
3.414024e+02	-2.037972e-02
3.433744e+02	-2.061526e-02
3.453577e+02	-2.085352e-02
3.473525e+02	-2.109453e-02
3.493588e+02	-2.133831e-02
3.513766e+02	-2.158490e-02
3.534062e+02	-2.183434e-02
3.554474e+02	-2.208665e-02
3.575005e+02	-2.234187e-02
3.595654e+02	-2.260003e-02
3.616422e+02	-2.286117e-02
3.637311e+02	-2.312531e-02
3.658320e+02	-2.339250e-02
3.679450e+02	-2.366277e-02
3.700702e+02	-2.393615e-02
3.722077e+02	-2.421268e-02
3.743576e+02	-2.449240e-02
3.765199e+02	-2.477534e-02
3.786946e+02	-2.506153e-02
3.808820e+02	-2.535103e-02
3.830819e+02	-2.564386e-02
3.852946e+02	-2.594006e-02
3.875200e+02	-2.623967e-02
3.897583e+02	-2.654273e-02
3.920096e+02	-2.684928e-02
3.942738e+02	-2.715936e-02
3.965511e+02	-2.747301e-02
3.988416e+02	-2.779027e-02
4.011452e+02	-2.811118e-02
4.034622e+02	-2.843579e-02
4.057926e+02	-2.876413e-02
4.081365e+02	-2.909625e-02
4.104938e+02	-2.943219e-02
4.128648e+02	-2.977200e-02
4.152495e+02	-3.011572e-02
4.176480e+02	-3.046339e-02
4.200603e+02	-3.081506e-02
4.224866e+02	-3.117078e-02
4.249268e+02	-3.153058e-02
4.273812e+02	-3.189453e-02
4.298497e+02	-3.226266e-02
4.323325e+02	-3.263502e-02
4.348297e+02	-3.301166e-02
4.373412e+02	-3.339264e-02
4.398673e+02	-3.377799e-02
4.424079e+02	-3.416778e-02
4.449633e+02	-3.456204e-02
4.475334e+02	-3.496083e-02
4.501183e+02	-3.536421e-02
4.527182e+02	-3.577222e-02
4.553330e+02	-3.618492e-02
4.579630e+02	-3.660236e-02
4.606082e+02	-3.702460e-02
4.632687e+02	-3.745168e-02
4.659445e+02	-3.788367e-02
4.686358e+02	-3.832062e-02
4.713426e+02	-3.876259e-02
4.740650e+02	-3.920964e-02
4.768032e+02	-3.966181e-02
4.795572e+02	-4.011918e-02
4.823271e+02	-4.058179e-02
4.851130e+02	-4.104971e-02
4.879150e+02	-4.152301e-02
4.907332e+02	-4.200173e-02
4.935676e+02	-4.248595e-02
4.964185e+02	-4.297572e-02
4.992858e+02	-4.347110e-02
5.021696e+02	-4.397217e-02
5.050701e+02	-4.447899e-02
5.079874e+02	-4.499161e-02
5.109215e+02	-4.551012e-02
5.138726e+02	-4.603456e-02
5.168407e+02	-4.656502e-02
5.198259e+02	-4.710156e-02
5.228284e+02	-4.764424e-02
5.258482e+02	-4.819315e-02
5.288855e+02	-4.874834e-02
5.319403e+02	-4.930989e-02
5.350128e+02	-4.987787e-02
5.381030e+02	-5.045236e-02
5.412111e+02	-5.103342e-02
5.443371e+02	-5.162114e-02
5.474812e+02	-5.221558e-02
5.506434e+02	-5.281683e-02
5.538239e+02	-5.342496e-02
5.570228e+02	-5.404004e-02
5.602401e+02	-5.466216e-02
5.634760e+02	-5.529140e-02
5.667306e+02	-5.592784e-02
5.700040e+02	-5.657155e-02
5.732964e+02	-5.722263e-02
5.766077e+02	-5.788114e-02
5.799382e+02	-5.854719e-02
5.832879e+02	-5.922084e-02
5.866569e+02	-5.990219e-02
5.900454e+02	-6.059133e-02
5.934535e+02	-6.128834e-02
5.968813e+02	-6.199331e-02
6.003288e+02	-6.270633e-02
6.037963e+02	-6.342749e-02
6.072838e+02	-6.415688e-02
6.107914e+02	-6.489460e-02
6.143194e+02	-6.564074e-02
6.178676e+02	-6.639539e-02
6.214364e+02	-6.715864e-02
6.250258e+02	-6.793061e-02
6.286359e+02	-6.871137e-02
6.322669e+02	-6.950104e-02
6.359189e+02	-7.029971e-02
6.395919e+02	-7.110748e-02
6.432862e+02	-7.192446e-02
6.470017e+02	-7.275074e-02
6.507388e+02	-7.358644e-02
6.544974e+02	-7.443165e-02
6.582778e+02	-7.528649e-02
6.620800e+02	-7.615106e-02
6.659041e+02	-7.702547e-02
6.697504e+02	-7.790983e-02
6.736188e+02	-7.880425e-02
6.775096e+02	-7.970884e-02
6.814229e+02	-8.062372e-02
6.853587e+02	-8.154900e-02
6.893173e+02	-8.248480e-02
6.932988e+02	-8.343124e-02
6.973033e+02	-8.438843e-02
7.013309e+02	-8.535649e-02
