Frequency(Hz)	Magnitude(dB)
1.000000e+01	-1.838945e-05
1.005776e+01	-1.860249e-05
1.011585e+01	-1.881801e-05
1.017428e+01	-1.903602e-05
1.023305e+01	-1.925656e-05
1.029215e+01	-1.947965e-05
1.035160e+01	-1.970533e-05
1.041139e+01	-1.993362e-05
1.047153e+01	-2.016455e-05
1.053201e+01	-2.039817e-05
1.059284e+01	-2.063448e-05
1.065403e+01	-2.087354e-05
1.071556e+01	-2.111536e-05
1.077746e+01	-2.135999e-05
1.083971e+01	-2.160745e-05
1.090232e+01	-2.185778e-05
1.096529e+01	-2.211101e-05
1.102862e+01	-2.236717e-05
1.109232e+01	-2.262630e-05
1.115639e+01	-2.288843e-05
1.122083e+01	-2.315360e-05
1.128564e+01	-2.342184e-05
1.135083e+01	-2.369319e-05
1.141639e+01	-2.396768e-05
1.148233e+01	-2.424535e-05
1.154865e+01	-2.452624e-05
1.161536e+01	-2.481038e-05
1.168245e+01	-2.509781e-05
1.174992e+01	-2.538858e-05
1.181779e+01	-2.568271e-05
1.188605e+01	-2.598025e-05
1.195470e+01	-2.628124e-05
1.202375e+01	-2.658571e-05
1.209320e+01	-2.689372e-05
1.216305e+01	-2.720529e-05
1.223330e+01	-2.752047e-05
1.230396e+01	-2.783930e-05
1.237503e+01	-2.816182e-05
1.244651e+01	-2.848808e-05
1.251840e+01	-2.881812e-05
1.259070e+01	-2.915199e-05
1.266343e+01	-2.948972e-05
1.273657e+01	-2.983137e-05
1.281014e+01	-3.017697e-05
1.288413e+01	-3.052658e-05
1.295855e+01	-3.088024e-05
1.303339e+01	-3.123799e-05
1.310867e+01	-3.159989e-05
1.318439e+01	-3.196598e-05
1.326054e+01	-3.233632e-05
1.333713e+01	-3.271094e-05
1.341417e+01	-3.308990e-05
1.349165e+01	-3.347326e-05
1.356958e+01	-3.386105e-05
1.364795e+01	-3.425334e-05
1.372678e+01	-3.465018e-05
1.380607e+01	-3.505161e-05
1.388581e+01	-3.545769e-05
1.396602e+01	-3.586847e-05
1.404668e+01	-3.628402e-05
1.412782e+01	-3.670438e-05
1.420942e+01	-3.712960e-05
1.429149e+01	-3.755976e-05
1.437404e+01	-3.799490e-05
1.445706e+01	-3.843508e-05
1.454057e+01	-3.888036e-05
1.462455e+01	-3.933079e-05
1.470902e+01	-3.978645e-05
1.479398e+01	-4.024739e-05
1.487943e+01	-4.071366e-05
1.496537e+01	-4.118534e-05
1.505181e+01	-4.166248e-05
1.513875e+01	-4.214515e-05
1.522619e+01	-4.263341e-05
1.531414e+01	-4.312733e-05
1.540259e+01	-4.362697e-05
1.549156e+01	-4.413239e-05
1.558103e+01	-4.464368e-05
1.567103e+01	-4.516088e-05
1.576155e+01	-4.568408e-05
1.585258e+01	-4.621334e-05
1.594415e+01	-4.674874e-05
1.603624e+01	-4.729033e-05
1.612886e+01	-4.783820e-05
1.622202e+01	-4.839241e-05
1.631572e+01	-4.895305e-05
1.640996e+01	-4.952018e-05
1.650474e+01	-5.009388e-05
1.660008e+01	-5.067423e-05
1.669596e+01	-5.126130e-05
1.679239e+01	-5.185518e-05
1.688938e+01	-5.245593e-05
1.698694e+01	-5.306364e-05
1.708505e+01	-5.367840e-05
1.718373e+01	-5.430027e-05
1.728299e+01	-5.492935e-05
1.738281e+01	-5.556572e-05
1.748322e+01	-5.620946e-05
1.758420e+01	-5.686066e-05
1.768576e+01	-5.751940e-05
1.778792e+01	-5.818577e-05
1.789066e+01	-5.885987e-05
1.799399e+01	-5.954177e-05
1.809793e+01	-6.023157e-05
1.820246e+01	-6.092937e-05
1.830760e+01	-6.163525e-05
1.841334e+01	-6.234930e-05
1.851969e+01	-6.307163e-05
1.862666e+01	-6.380233e-05
1.873425e+01	-6.454149e-05
1.884246e+01	-6.528922e-05
1.895129e+01	-6.604561e-05
1.906075e+01	-6.681076e-05
1.917085e+01	-6.758477e-05
1.928158e+01	-6.836775e-05
1.939295e+01	-6.915981e-05
1.950496e+01	-6.996104e-05
1.961762e+01	-7.077155e-05
1.973093e+01	-7.159145e-05
1.984490e+01	-7.242085e-05
1.995952e+01	-7.325986e-05
2.007480e+01	-7.410859e-05
2.019076e+01	-7.496715e-05
2.030738e+01	-7.583566e-05
2.042467e+01	-7.671423e-05
2.054264e+01	-7.760297e-05
2.066130e+01	-7.850202e-05
2.078064e+01	-7.941148e-05
2.090066e+01	-8.033147e-05
2.102139e+01	-8.126213e-05
2.114280e+01	-8.220356e-05
2.126492e+01	-8.315591e-05
2.138775e+01	-8.411928e-05
2.151128e+01	-8.509382e-05
2.163553e+01	-8.607964e-05
2.176050e+01	-8.707689e-05
2.188619e+01	-8.808569e-05
2.201260e+01	-8.910618e-05
2.213974e+01	-9.013849e-05
2.226762e+01	-9.118275e-05
2.239624e+01	-9.223912e-05
2.252560e+01	-9.330773e-05
2.265571e+01	-9.438871e-05
2.278656e+01	-9.548222e-05
2.291818e+01	-9.658839e-05
2.305055e+01	-9.770738e-05
2.318369e+01	-9.883934e-05
2.331760e+01	-9.998441e-05
2.345228e+01	-1.011427e-04
2.358774e+01	-1.023145e-04
2.372398e+01	-1.034998e-04
2.386101e+01	-1.046989e-04
2.399883e+01	-1.059118e-04
2.413745e+01	-1.071388e-04
2.427686e+01	-1.083801e-04
2.441709e+01	-1.096357e-04
2.455812e+01	-1.109058e-04
2.469997e+01	-1.121907e-04
2.484263e+01	-1.134904e-04
2.498612e+01	-1.148052e-04
2.513044e+01	-1.161352e-04
2.527559e+01	-1.174807e-04
2.542158e+01	-1.188417e-04
2.556842e+01	-1.202185e-04
2.571610e+01	-1.216112e-04
2.586463e+01	-1.230201e-04
2.601403e+01	-1.244453e-04
2.616428e+01	-1.258870e-04
2.631541e+01	-1.273454e-04
2.646740e+01	-1.288208e-04
2.662028e+01	-1.303132e-04
2.677404e+01	-1.318229e-04
2.692868e+01	-1.333500e-04
2.708422e+01	-1.348949e-04
2.724066e+01	-1.364577e-04
2.739800e+01	-1.380386e-04
2.755625e+01	-1.396377e-04
2.771541e+01	-1.412555e-04
2.787550e+01	-1.428919e-04
2.803650e+01	-1.445473e-04
2.819844e+01	-1.462219e-04
2.836131e+01	-1.479159e-04
2.852513e+01	-1.496295e-04
2.868989e+01	-1.513630e-04
2.885560e+01	-1.531166e-04
2.902227e+01	-1.548904e-04
2.918990e+01	-1.566848e-04
2.935850e+01	-1.585000e-04
2.952807e+01	-1.603363e-04
2.969863e+01	-1.621938e-04
2.987016e+01	-1.640728e-04
3.004269e+01	-1.659736e-04
3.021622e+01	-1.678964e-04
3.039075e+01	-1.698415e-04
3.056628e+01	-1.718091e-04
3.074283e+01	-1.737995e-04
3.092040e+01	-1.758130e-04
3.109900e+01	-1.778498e-04
3.127862e+01	-1.799102e-04
3.145929e+01	-1.819945e-04
3.164099e+01	-1.841029e-04
3.182375e+01	-1.862357e-04
3.200756e+01	-1.883933e-04
3.219244e+01	-1.905758e-04
3.237838e+01	-1.927836e-04
3.256540e+01	-1.950170e-04
3.275349e+01	-1.972763e-04
3.294268e+01	-1.995618e-04
3.313295e+01	-2.018737e-04
3.332433e+01	-2.042124e-04
3.351681e+01	-2.065782e-04
3.371040e+01	-2.089714e-04
3.390511e+01	-2.113923e-04
3.410094e+01	-2.138413e-04
3.429791e+01	-2.163187e-04
3.449601e+01	-2.188247e-04
3.469526e+01	-2.213598e-04
3.489566e+01	-2.239243e-04
3.509721e+01	-2.265184e-04
3.529993e+01	-2.291426e-04
3.550382e+01	-2.317972e-04
3.570889e+01	-2.344826e-04
3.591515e+01	-2.371991e-04
3.612259e+01	-2.399470e-04
3.633123e+01	-2.427268e-04
3.654108e+01	-2.455388e-04
3.675214e+01	-2.483833e-04
3.696442e+01	-2.512608e-04
3.717792e+01	-2.541717e-04
3.739266e+01	-2.571162e-04
3.760864e+01	-2.600949e-04
3.782587e+01	-2.631081e-04
3.804435e+01	-2.661562e-04
3.826409e+01	-2.692396e-04
3.848510e+01	-2.723587e-04
3.870739e+01	-2.755139e-04
3.893096e+01	-2.787057e-04
3.915583e+01	-2.819345e-04
3.938199e+01	-2.852007e-04
3.960946e+01	-2.885047e-04
3.983824e+01	-2.918470e-04
4.006834e+01	-2.952280e-04
4.029978e+01	-2.986482e-04
4.053255e+01	-3.021080e-04
4.076666e+01	-3.056079e-04
4.100213e+01	-3.091483e-04
4.123896e+01	-3.127298e-04
4.147715e+01	-3.163527e-04
4.171672e+01	-3.200176e-04
4.195767e+01	-3.237249e-04
4.220002e+01	-3.274752e-04
4.244377e+01	-3.312690e-04
4.268892e+01	-3.351067e-04
4.293549e+01	-3.389888e-04
4.318348e+01	-3.429160e-04
4.343291e+01	-3.468886e-04
4.368377e+01	-3.509072e-04
4.393609e+01	-3.549724e-04
4.418986e+01	-3.590847e-04
4.444510e+01	-3.632446e-04
4.470182e+01	-3.674527e-04
4.496001e+01	-3.717096e-04
4.521970e+01	-3.760158e-04
4.548089e+01	-3.803718e-04
4.574358e+01	-3.847783e-04
4.600779e+01	-3.892359e-04
4.627353e+01	-3.937451e-04
4.654081e+01	-3.983065e-04
4.680963e+01	-4.029208e-04
4.708000e+01	-4.075885e-04
4.735193e+01	-4.123103e-04
4.762543e+01	-4.170868e-04
4.790051e+01	-4.219187e-04
4.817719e+01	-4.268065e-04
4.845545e+01	-4.317509e-04
4.873533e+01	-4.367526e-04
4.901682e+01	-4.418123e-04
4.929994e+01	-4.469305e-04
4.958470e+01	-4.521081e-04
4.987110e+01	-4.573456e-04
5.015915e+01	-4.626438e-04
5.044887e+01	-4.680033e-04
5.074026e+01	-4.734250e-04
5.103333e+01	-4.789094e-04
5.132810e+01	-4.844574e-04
5.162457e+01	-4.900697e-04
5.192275e+01	-4.957470e-04
5.222265e+01	-5.014900e-04
5.252429e+01	-5.072996e-04
5.282767e+01	-5.131764e-04
5.313280e+01	-5.191213e-04
5.343969e+01	-5.251351e-04
5.374836e+01	-5.312186e-04
5.405880e+01	-5.373725e-04
5.437105e+01	-5.435978e-04
5.468509e+01	-5.498951e-04
5.500095e+01	-5.562654e-04
5.531863e+01	-5.627094e-04
5.563815e+01	-5.692282e-04
5.595951e+01	-5.758224e-04
5.628273e+01	-5.824930e-04
5.660782e+01	-5.892409e-04
5.693479e+01	-5.960669e-04
5.726364e+01	-6.029721e-04
5.759439e+01	-6.099572e-04
5.792705e+01	-6.170232e-04
5.826164e+01	-6.241711e-04
5.859815e+01	-6.314017e-04
5.893662e+01	-6.387162e-04
5.927703e+01	-6.461153e-04
5.961941e+01	-6.536002e-04
5.996377e+01	-6.611717e-04
6.031012e+01	-6.688310e-04
6.065847e+01	-6.765790e-04
6.100883e+01	-6.844167e-04
6.136121e+01	-6.923452e-04
6.171563e+01	-7.003656e-04
6.207210e+01	-7.084789e-04
6.243063e+01	-7.166861e-04
6.279122e+01	-7.249884e-04
6.315390e+01	-7.333869e-04
6.351868e+01	-7.418827e-04
6.388556e+01	-7.504769e-04
6.425456e+01	-7.591706e-04
6.462569e+01	-7.679650e-04
6.499897e+01	-7.768613e-04
6.537440e+01	-7.858606e-04
6.575200e+01	-7.949642e-04
6.613178e+01	-8.041732e-04
6.651375e+01	-8.134889e-04
6.689793e+01	-8.229125e-04
6.728433e+01	-8.324453e-04
6.767297e+01	-8.420885e-04
6.806384e+01	-8.518433e-04
6.845698e+01	-8.617112e-04
6.885238e+01	-8.716933e-04
6.925007e+01	-8.817911e-04
6.965005e+01	-8.920059e-04
7.005235e+01	-9.023389e-04
7.045697e+01	-9.127917e-04
7.086393e+01	-9.233655e-04
7.127323e+01	-9.340618e-04
7.168490e+01	-9.448820e-04
7.209895e+01	-9.558275e-04
7.251539e+01	-9.668998e-04
7.293424e+01	-9.781003e-04
7.335551e+01	-9.894306e-04
7.377920e+01	-1.000892e-03
7.420535e+01	-1.012486e-03
7.463396e+01	-1.024215e-03
7.506504e+01	-1.036079e-03
7.549861e+01	-1.048081e-03
7.593469e+01	-1.060222e-03
7.637328e+01	-1.072503e-03
7.681441e+01	-1.084927e-03
7.725809e+01	-1.097495e-03
7.770433e+01	-1.110208e-03
7.815315e+01	-1.123068e-03
7.860456e+01	-1.136078e-03
7.905857e+01	-1.149238e-03
7.951521e+01	-1.162550e-03
7.997449e+01	-1.176017e-03
8.043642e+01	-1.189639e-03
8.090102e+01	-1.203420e-03
8.136830e+01	-1.217360e-03
8.183828e+01	-1.231461e-03
8.231097e+01	-1.245726e-03
8.278640e+01	-1.260156e-03
8.326457e+01	-1.274753e-03
8.374550e+01	-1.289519e-03
8.422921e+01	-1.304456e-03
8.471572e+01	-1.319566e-03
8.520503e+01	-1.334852e-03
8.569717e+01	-1.350314e-03
8.619215e+01	-1.365955e-03
8.669000e+01	-1.381778e-03
8.719071e+01	-1.397783e-03
8.769432e+01	-1.413974e-03
8.820084e+01	-1.430353e-03
8.871029e+01	-1.446921e-03
8.922267e+01	-1.463681e-03
8.973802e+01	-1.480636e-03
9.025634e+01	-1.497786e-03
9.077766e+01	-1.515135e-03
9.130199e+01	-1.532686e-03
9.182935e+01	-1.550439e-03
9.235975e+01	-1.568398e-03
9.289321e+01	-1.586565e-03
9.342976e+01	-1.604942e-03
9.396941e+01	-1.623533e-03
9.451217e+01	-1.642338e-03
9.505807e+01	-1.661361e-03
9.560712e+01	-1.680605e-03
9.615934e+01	-1.700071e-03
9.671476e+01	-1.719763e-03
9.727338e+01	-1.739683e-03
9.783522e+01	-1.759834e-03
9.840032e+01	-1.780218e-03
9.896867e+01	-1.800838e-03
9.954031e+01	-1.821697e-03
1.001153e+02	-1.842797e-03
1.006935e+02	-1.864142e-03
1.012751e+02	-1.885734e-03
1.018601e+02	-1.907576e-03
1.024484e+02	-1.929670e-03
1.030402e+02	-1.952021e-03
1.036353e+02	-1.974631e-03
1.042339e+02	-1.997502e-03
1.048360e+02	-2.020638e-03
1.054415e+02	-2.044042e-03
1.060505e+02	-2.067718e-03
1.066631e+02	-2.091667e-03
1.072791e+02	-2.115893e-03
1.078988e+02	-2.140401e-03
1.085220e+02	-2.165192e-03
1.091488e+02	-2.190270e-03
1.097793e+02	-2.215638e-03
1.104133e+02	-2.241300e-03
1.110511e+02	-2.267259e-03
1.116925e+02	-2.293519e-03
1.123376e+02	-2.320083e-03
1.129865e+02	-2.346955e-03
1.136391e+02	-2.374137e-03
1.142955e+02	-2.401635e-03
1.149556e+02	-2.429450e-03
1.156196e+02	-2.457588e-03
1.162874e+02	-2.486052e-03
1.169591e+02	-2.514845e-03
1.176347e+02	-2.543972e-03
1.183141e+02	-2.573436e-03
1.189975e+02	-2.603241e-03
1.196848e+02	-2.633391e-03
1.203761e+02	-2.663890e-03
1.210714e+02	-2.694742e-03
1.217707e+02	-2.725952e-03
1.224740e+02	-2.757523e-03
1.231814e+02	-2.789459e-03
1.238929e+02	-2.821765e-03
1.246085e+02	-2.854445e-03
1.253283e+02	-2.887504e-03
1.260522e+02	-2.920945e-03
1.267802e+02	-2.954773e-03
1.275125e+02	-2.988993e-03
1.282490e+02	-3.023610e-03
1.289898e+02	-3.058627e-03
1.297348e+02	-3.094049e-03
1.304842e+02	-3.129881e-03
1.312378e+02	-3.166129e-03
1.319959e+02	-3.202796e-03
1.327583e+02	-3.239887e-03
1.335251e+02	-3.277408e-03
1.342963e+02	-3.315363e-03
1.350720e+02	-3.353757e-03
1.358522e+02	-3.392596e-03
1.366368e+02	-3.431885e-03
1.374260e+02	-3.471628e-03
1.382198e+02	-3.511832e-03
1.390182e+02	-3.552501e-03
1.398211e+02	-3.593640e-03
1.406287e+02	-3.635256e-03
1.414410e+02	-3.677354e-03
1.422579e+02	-3.719938e-03
1.430796e+02	-3.763016e-03
1.439060e+02	-3.806593e-03
1.447372e+02	-3.850673e-03
1.455732e+02	-3.895264e-03
1.464141e+02	-3.940372e-03
1.472597e+02	-3.986001e-03
1.481103e+02	-4.032158e-03
1.489658e+02	-4.078850e-03
1.498262e+02	-4.126082e-03
1.506916e+02	-4.173861e-03
1.515620e+02	-4.222192e-03
1.524374e+02	-4.271083e-03
1.533179e+02	-4.320540e-03
1.542034e+02	-4.370570e-03
1.550941e+02	-4.421178e-03
1.559899e+02	-4.472372e-03
1.568909e+02	-4.524159e-03
1.577971e+02	-4.576545e-03
1.587085e+02	-4.629537e-03
1.596252e+02	-4.683142e-03
1.605472e+02	-4.737368e-03
1.614745e+02	-4.792221e-03
1.624072e+02	-4.847710e-03
1.633453e+02	-4.903840e-03
1.642887e+02	-4.960619e-03
1.652377e+02	-5.018056e-03
1.661921e+02	-5.076158e-03
1.671520e+02	-5.134932e-03
1.681175e+02	-5.194385e-03
1.690885e+02	-5.254527e-03
1.700651e+02	-5.315365e-03
1.710474e+02	-5.376907e-03
1.720354e+02	-5.439160e-03
1.730291e+02	-5.502135e-03
1.740285e+02	-5.565837e-03
1.750337e+02	-5.630277e-03
1.760446e+02	-5.695462e-03
1.770615e+02	-5.761402e-03
1.780842e+02	-5.828105e-03
1.791128e+02	-5.895579e-03
1.801473e+02	-5.963834e-03
1.811878e+02	-6.032878e-03
1.822344e+02	-6.102721e-03
1.832870e+02	-6.173373e-03
1.843456e+02	-6.244841e-03
1.854104e+02	-6.317136e-03
1.864813e+02	-6.390268e-03
1.875584e+02	-6.464246e-03
1.886418e+02	-6.539079e-03
1.897313e+02	-6.614778e-03
1.908272e+02	-6.691353e-03
1.919294e+02	-6.768814e-03
1.930380e+02	-6.847170e-03
1.941530e+02	-6.926433e-03
1.952744e+02	-7.006613e-03
1.964023e+02	-7.087720e-03
1.975367e+02	-7.169765e-03
1.986777e+02	-7.252759e-03
1.998252e+02	-7.336713e-03
2.009794e+02	-7.421638e-03
2.021403e+02	-7.507545e-03
2.033078e+02	-7.594446e-03
2.044821e+02	-7.682351e-03
2.056632e+02	-7.771273e-03
2.068511e+02	-7.861224e-03
2.080459e+02	-7.952215e-03
2.092475e+02	-8.044258e-03
2.104561e+02	-8.137365e-03
2.116717e+02	-8.231549e-03
2.128943e+02	-8.326822e-03
2.141240e+02	-8.423196e-03
2.153608e+02	-8.520685e-03
2.166047e+02	-8.619301e-03
2.178558e+02	-8.719058e-03
2.191141e+02	-8.819968e-03
2.203797e+02	-8.922044e-03
2.216526e+02	-9.025300e-03
2.229329e+02	-9.129751e-03
2.242205e+02	-9.235408e-03
2.255156e+02	-9.342288e-03
2.268182e+02	-9.450402e-03
2.281283e+02	-9.559767e-03
2.294459e+02	-9.670396e-03
2.307712e+02	-9.782303e-03
2.321041e+02	-9.895504e-03
2.334447e+02	-1.001001e-02
2.347931e+02	-1.012585e-02
2.361493e+02	-1.024302e-02
2.375133e+02	-1.036154e-02
2.388851e+02	-1.048144e-02
2.402649e+02	-1.060272e-02
2.416527e+02	-1.072541e-02
2.430484e+02	-1.084951e-02
2.444523e+02	-1.097504e-02
2.458642e+02	-1.110203e-02
2.472843e+02	-1.123048e-02
2.487126e+02	-1.136042e-02
2.501492e+02	-1.149186e-02
2.515940e+02	-1.162481e-02
2.530472e+02	-1.175931e-02
2.545088e+02	-1.189536e-02
2.559789e+02	-1.203297e-02
2.574574e+02	-1.217218e-02
2.589444e+02	-1.231300e-02
2.604401e+02	-1.245545e-02
2.619444e+02	-1.259953e-02
2.634574e+02	-1.274529e-02
2.649791e+02	-1.289273e-02
2.665096e+02	-1.304187e-02
2.680489e+02	-1.319273e-02
2.695972e+02	-1.334534e-02
2.711544e+02	-1.349970e-02
2.727205e+02	-1.365586e-02
2.742958e+02	-1.381381e-02
2.758801e+02	-1.397359e-02
2.774736e+02	-1.413521e-02
2.790762e+02	-1.429870e-02
2.806882e+02	-1.446408e-02
2.823094e+02	-1.463137e-02
2.839400e+02	-1.480058e-02
2.855800e+02	-1.497176e-02
2.872295e+02	-1.514491e-02
2.888886e+02	-1.532005e-02
2.905572e+02	-1.549722e-02
2.922354e+02	-1.567644e-02
2.939234e+02	-1.585772e-02
2.956211e+02	-1.604109e-02
2.973286e+02	-1.622659e-02
2.990459e+02	-1.641422e-02
3.007732e+02	-1.660402e-02
3.025104e+02	-1.679601e-02
3.042577e+02	-1.699021e-02
3.060151e+02	-1.718666e-02
3.077826e+02	-1.738537e-02
3.095604e+02	-1.758637e-02
3.113484e+02	-1.778970e-02
3.131467e+02	-1.799537e-02
3.149554e+02	-1.820341e-02
3.167746e+02	-1.841385e-02
3.186043e+02	-1.862672e-02
3.204445e+02	-1.884205e-02
3.222954e+02	-1.905986e-02
3.241570e+02	-1.928018e-02
3.260293e+02	-1.950305e-02
3.279124e+02	-1.972848e-02
3.298064e+02	-1.995651e-02
3.317114e+02	-2.018717e-02
3.336273e+02	-2.042050e-02
3.355544e+02	-2.065651e-02
3.374925e+02	-2.089524e-02
3.394418e+02	-2.113673e-02
3.414024e+02	-2.138100e-02
3.433744e+02	-2.162808e-02
3.453577e+02	-2.187802e-02
3.473525e+02	-2.213083e-02
3.493588e+02	-2.238656e-02
3.513766e+02	-2.264524e-02
3.534062e+02	-2.290690e-02
3.554474e+02	-2.317157e-02
3.575005e+02	-2.343929e-02
3.595654e+02	-2.371010e-02
3.616422e+02	-2.398403e-02
3.637311e+02	-2.426111e-02
3.658320e+02	-2.454138e-02
3.679450e+02	-2.482489e-02
3.700702e+02	-2.511166e-02
3.722077e+02	-2.540173e-02
3.743576e+02	-2.569514e-02
3.765199e+02	-2.599193e-02
3.786946e+02	-2.629214e-02
3.808820e+02	-2.659581e-02
3.830819e+02	-2.690297e-02
3.852946e+02	-2.721367e-02
3.875200e+02	-2.752795e-02
3.897583e+02	-2.784584e-02
3.920096e+02	-2.816739e-02
3.942738e+02	-2.849265e-02
3.965511e+02	-2.882164e-02
3.988416e+02	-2.915443e-02
4.011452e+02	-2.949104e-02
4.034622e+02	-2.983152e-02
4.057926e+02	-3.017593e-02
4.081365e+02	-3.052429e-02
4.104938e+02	-3.087666e-02
4.128648e+02	-3.123309e-02
4.152495e+02	-3.159361e-02
4.176480e+02	-3.195828e-02
4.200603e+02	-3.232715e-02
4.224866e+02	-3.270025e-02
4.249268e+02	-3.307765e-02
4.273812e+02	-3.345938e-02
4.298497e+02	-3.384550e-02
4.323325e+02	-3.423607e-02
4.348297e+02	-3.463111e-02
4.373412e+02	-3.503070e-02
4.398673e+02	-3.543488e-02
4.424079e+02	-3.584371e-02
4.449633e+02	-3.625723e-02
4.475334e+02	-3.667550e-02
4.501183e+02	-3.709858e-02
4.527182e+02	-3.752652e-02
4.553330e+02	-3.795937e-02
4.579630e+02	-3.839719e-02
4.606082e+02	-3.884004e-02
4.632687e+02	-3.928797e-02
4.659445e+02	-3.974105e-02
4.686358e+02	-4.019932e-02
4.713426e+02	-4.066286e-02
4.740650e+02	-4.113172e-02
4.768032e+02	-4.160595e-02
4.795572e+02	-4.208563e-02
4.823271e+02	-4.257081e-02
4.851130e+02	-4.306155e-02
4.879150e+02	-4.355793e-02
4.907332e+02	-4.405999e-02
4.935676e+02	-4.456782e-02
4.964185e+02	-4.508147e-02
4.992858e+02	-4.560100e-02
5.021696e+02	-4.612649e-02
5.050701e+02	-4.665800e-02
5.079874e+02	-4.719561e-02
5.109215e+02	-4.773937e-02
5.138726e+02	-4.828937e-02
5.168407e+02	-4.884566e-02
5.198259e+02	-4.940833e-02
5.228284e+02	-4.997744e-02
5.258482e+02	-5.055307e-02
5.288855e+02	-5.113529e-02
5.319403e+02	-5.172418e-02
5.350128e+02	-5.231980e-02
5.381030e+02	-5.292225e-02
5.412111e+02	-5.353158e-02
5.443371e+02	-5.414789e-02
5.474812e+02	-5.477125e-02
5.506434e+02	-5.540174e-02
5.538239e+02	-5.603944e-02
5.570228e+02	-5.668443e-02
5.602401e+02	-5.733680e-02
5.634760e+02	-5.799663e-02
5.667306e+02	-5.866399e-02
5.700040e+02	-5.933898e-02
5.732964e+02	-6.002169e-02
5.766077e+02	-6.071220e-02
5.799382e+02	-6.141059e-02
5.832879e+02	-6.211696e-02
5.866569e+02	-6.283139e-02
5.900454e+02	-6.355399e-02
5.934535e+02	-6.428483e-02
5.968813e+02	-6.502401e-02
6.003288e+02	-6.577163e-02
6.037963e+02	-6.652777e-02
6.072838e+02	-6.729254e-02
6.107914e+02	-6.806604e-02
6.143194e+02	-6.884835e-02
6.178676e+02	-6.963959e-02
6.214364e+02	-7.043984e-02
6.250258e+02	-7.124921e-02
6.286359e+02	-7.206781e-02
6.322669e+02	-7.289573e-02
6.359189e+02	-7.373309e-02
6.395919e+02	-7.457997e-02
6.432862e+02	-7.543651e-02
6.470017e+02	-7.630279e-02
6.507388e+02	-7.717893e-02
6.544974e+02	-7.806504e-02
6.582778e+02	-7.896123e-02
6.620800e+02	-7.986762e-02
6.659041e+02	-8.078431e-02
6.697504e+02	-8.171142e-02
6.736188e+02	-8.264908e-02
6.775096e+02	-8.359738e-02
6.814229e+02	-8.455647e-02
6.853587e+02	-8.552645e-02
6.893173e+02	-8.650744e-02
6.932988e+02	-8.749957e-02
6.973033e+02	-8.850297e-02
7.013309e+02	-8.951775e-02
