Frequency(Hz)	Magnitude(dB)
1.000000e+01	-2.157488e+00
1.005776e+01	-2.177146e+00
1.011585e+01	-2.196870e+00
1.017428e+01	-2.216835e+00
1.023305e+01	-2.236929e+00
1.029215e+01	-2.257034e+00
1.035160e+01	-2.277514e+00
1.041139e+01	-2.298007e+00
1.047153e+01	-2.318620e+00
1.053201e+01	-2.339241e+00
1.059284e+01	-2.360325e+00
1.065403e+01	-2.381166e+00
1.071556e+01	-2.402629e+00
1.077746e+01	-2.423788e+00
1.083971e+01	-2.445154e+00
1.090232e+01	-2.466730e+00
1.096529e+01	-2.488543e+00
1.102862e+01	-2.510553e+00
1.109232e+01	-2.532572e+00
1.115639e+01	-2.554638e+00
1.122083e+01	-2.577113e+00
1.128564e+01	-2.599571e+00
1.135083e+01	-2.621970e+00
1.141639e+01	-2.644785e+00
1.148233e+01	-2.667891e+00
1.154865e+01	-2.690866e+00
1.161536e+01	-2.713985e+00
1.168245e+01	-2.737211e+00
1.174992e+01	-2.760683e+00
1.181779e+01	-2.784266e+00
1.188605e+01	-2.808206e+00
1.195470e+01	-2.832095e+00
1.202375e+01	-2.856035e+00
1.209320e+01	-2.880206e+00
1.216305e+01	-2.904415e+00
1.223330e+01	-2.928968e+00
1.230396e+01	-2.953564e+00
1.237503e+01	-2.978371e+00
1.244651e+01	-3.003279e+00
1.251840e+01	-3.028123e+00
1.259070e+01	-3.053473e+00
1.266343e+01	-3.078597e+00
1.273657e+01	-3.104135e+00
1.281014e+01	-3.129835e+00
1.288413e+01	-3.155676e+00
1.295855e+01	-3.181618e+00
1.303339e+01	-3.207745e+00
1.310867e+01	-3.233581e+00
1.318439e+01	-3.260001e+00
1.326054e+01	-3.286584e+00
1.333713e+01	-3.313315e+00
1.341417e+01	-3.340008e+00
1.349165e+01	-3.366894e+00
1.356958e+01	-3.393982e+00
1.364795e+01	-3.421326e+00
1.372678e+01	-3.448477e+00
1.380607e+01	-3.475627e+00
1.388581e+01	-3.503620e+00
1.396602e+01	-3.531291e+00
1.404668e+01	-3.558908e+00
1.412782e+01	-3.587532e+00
1.420942e+01	-3.615738e+00
1.429149e+01	-3.643770e+00
1.437404e+01	-3.672428e+00
1.445706e+01	-3.700719e+00
1.454057e+01	-3.729728e+00
1.462455e+01	-3.758451e+00
1.470902e+01	-3.787961e+00
1.479398e+01	-3.817099e+00
1.487943e+01	-3.846260e+00
1.496537e+01	-3.875828e+00
1.505181e+01	-3.905375e+00
1.513875e+01	-3.935138e+00
1.522619e+01	-3.964908e+00
1.531414e+01	-3.995101e+00
1.540259e+01	-4.025096e+00
1.549156e+01	-4.055393e+00
1.558103e+01	-4.085731e+00
1.567103e+01	-4.116282e+00
1.576155e+01	-4.146808e+00
1.585258e+01	-4.177967e+00
1.594415e+01	-4.208787e+00
1.603624e+01	-4.240068e+00
1.612886e+01	-4.271411e+00
1.622202e+01	-4.302592e+00
1.631572e+01	-4.334183e+00
1.640996e+01	-4.365750e+00
1.650474e+01	-4.397389e+00
1.660008e+01	-4.429591e+00
1.669596e+01	-4.461340e+00
1.679239e+01	-4.493802e+00
1.688938e+01	-4.526041e+00
1.698694e+01	-4.558457e+00
1.708505e+01	-4.591222e+00
1.718373e+01	-4.623774e+00
1.728299e+01	-4.656477e+00
1.738281e+01	-4.689655e+00
1.748322e+01	-4.722454e+00
1.758420e+01	-4.755729e+00
1.768576e+01	-4.789273e+00
1.778792e+01	-4.822706e+00
1.789066e+01	-4.856334e+00
1.799399e+01	-4.890324e+00
1.809793e+01	-4.923826e+00
1.820246e+01	-4.957931e+00
1.830760e+01	-4.991881e+00
1.841334e+01	-5.026040e+00
1.851969e+01	-5.060555e+00
1.862666e+01	-5.094803e+00
1.873425e+01	-5.129781e+00
1.884246e+01	-5.164485e+00
1.895129e+01	-5.198998e+00
1.906075e+01	-5.234320e+00
1.917085e+01	-5.269551e+00
1.928158e+01	-5.304911e+00
1.939295e+01	-5.339735e+00
1.950496e+01	-5.375506e+00
1.961762e+01	-5.411034e+00
1.973093e+01	-5.446891e+00
1.984490e+01	-5.482458e+00
1.995952e+01	-5.518644e+00
2.007480e+01	-5.554447e+00
2.019076e+01	-5.590774e+00
2.030738e+01	-5.626974e+00
2.042467e+01	-5.663130e+00
2.054264e+01	-5.699927e+00
2.066130e+01	-5.736636e+00
2.078064e+01	-5.773077e+00
2.090066e+01	-5.810236e+00
2.102139e+01	-5.846792e+00
2.114280e+01	-5.883984e+00
2.126492e+01	-5.921225e+00
2.138775e+01	-5.958380e+00
2.151128e+01	-5.995881e+00
2.163553e+01	-6.033226e+00
2.176050e+01	-6.070859e+00
2.188619e+01	-6.108768e+00
2.201260e+01	-6.146820e+00
2.213974e+01	-6.184529e+00
2.226762e+01	-6.222076e+00
2.239624e+01	-6.260760e+00
2.252560e+01	-6.298977e+00
2.265571e+01	-6.337260e+00
2.278656e+01	-6.375818e+00
2.291818e+01	-6.414238e+00
2.305055e+01	-6.452878e+00
2.318369e+01	-6.491814e+00
2.331760e+01	-6.530521e+00
2.345228e+01	-6.569738e+00
2.358774e+01	-6.608560e+00
2.372398e+01	-6.647600e+00
2.386101e+01	-6.686959e+00
2.399883e+01	-6.726349e+00
2.413745e+01	-6.766039e+00
2.427686e+01	-6.805451e+00
2.441709e+01	-6.844757e+00
2.455812e+01	-6.884561e+00
2.469997e+01	-6.924344e+00
2.484263e+01	-6.964322e+00
2.498612e+01	-7.004386e+00
2.513044e+01	-7.044632e+00
2.527559e+01	-7.084867e+00
2.542158e+01	-7.124804e+00
2.556842e+01	-7.165343e+00
2.571610e+01	-7.205703e+00
2.586463e+01	-7.246195e+00
2.601403e+01	-7.286774e+00
2.616428e+01	-7.327578e+00
2.631541e+01	-7.368572e+00
2.646740e+01	-7.409332e+00
2.662028e+01	-7.450445e+00
2.677404e+01	-7.491923e+00
2.692868e+01	-7.532641e+00
2.708422e+01	-7.573837e+00
2.724066e+01	-7.614984e+00
2.739800e+01	-7.656244e+00
2.755625e+01	-7.698062e+00
2.771541e+01	-7.739391e+00
2.787550e+01	-7.781161e+00
2.803650e+01	-7.823246e+00
2.819844e+01	-7.864400e+00
2.836131e+01	-7.906492e+00
2.852513e+01	-7.948454e+00
2.868989e+01	-7.990633e+00
2.885560e+01	-8.032585e+00
2.902227e+01	-8.074847e+00
2.918990e+01	-8.117153e+00
2.935850e+01	-8.159105e+00
2.952807e+01	-8.202112e+00
2.969863e+01	-8.244604e+00
2.987016e+01	-8.287157e+00
3.004269e+01	-8.329733e+00
3.021622e+01	-8.372703e+00
3.039075e+01	-8.415377e+00
3.056628e+01	-8.457711e+00
3.074283e+01	-8.500583e+00
3.092040e+01	-8.544034e+00
3.109900e+01	-8.587505e+00
3.127862e+01	-8.630460e+00
3.145929e+01	-8.673517e+00
3.164099e+01	-8.717058e+00
3.182375e+01	-8.760241e+00
3.200756e+01	-8.802899e+00
3.219244e+01	-8.846618e+00
3.237838e+01	-8.890417e+00
3.256540e+01	-8.934153e+00
3.275349e+01	-8.977558e+00
3.294268e+01	-9.021175e+00
3.313295e+01	-9.065256e+00
3.332433e+01	-9.109101e+00
3.351681e+01	-9.153167e+00
3.371040e+01	-9.196942e+00
3.390511e+01	-9.241016e+00
3.410094e+01	-9.284919e+00
3.429791e+01	-9.329183e+00
3.449601e+01	-9.373690e+00
3.469526e+01	-9.417821e+00
3.489566e+01	-9.461924e+00
3.509721e+01	-9.506491e+00
3.529993e+01	-9.550608e+00
3.550382e+01	-9.595058e+00
3.570889e+01	-9.639657e+00
3.591515e+01	-9.684565e+00
3.612259e+01	-9.729655e+00
3.633123e+01	-9.773913e+00
3.654108e+01	-9.819001e+00
3.675214e+01	-9.862831e+00
3.696442e+01	-9.908490e+00
3.717792e+01	-9.953455e+00
3.739266e+01	-9.998261e+00
3.760864e+01	-1.004326e+01
3.782587e+01	-1.008858e+01
3.804435e+01	-1.013327e+01
3.826409e+01	-1.017932e+01
3.848510e+01	-1.022428e+01
3.870739e+01	-1.026900e+01
3.893096e+01	-1.031511e+01
3.915583e+01	-1.036071e+01
3.938199e+01	-1.040579e+01
3.960946e+01	-1.045133e+01
3.983824e+01	-1.049690e+01
4.006834e+01	-1.054249e+01
4.029978e+01	-1.058818e+01
4.053255e+01	-1.063303e+01
4.076666e+01	-1.067947e+01
4.100213e+01	-1.072512e+01
4.123896e+01	-1.077054e+01
4.147715e+01	-1.081676e+01
4.171672e+01	-1.086259e+01
4.195767e+01	-1.090841e+01
4.220002e+01	-1.095504e+01
4.244377e+01	-1.100141e+01
4.268892e+01	-1.104664e+01
4.293549e+01	-1.109305e+01
4.318348e+01	-1.113897e+01
4.343291e+01	-1.118544e+01
4.368377e+01	-1.123124e+01
4.393609e+01	-1.127794e+01
4.418986e+01	-1.132371e+01
4.444510e+01	-1.137064e+01
4.470182e+01	-1.141650e+01
4.496001e+01	-1.146356e+01
4.521970e+01	-1.150990e+01
4.548089e+01	-1.155628e+01
4.574358e+01	-1.160302e+01
4.600779e+01	-1.164932e+01
4.627353e+01	-1.169575e+01
4.654081e+01	-1.174224e+01
4.680963e+01	-1.178989e+01
4.708000e+01	-1.183588e+01
4.735193e+01	-1.188256e+01
4.762543e+01	-1.192981e+01
4.790051e+01	-1.197612e+01
4.817719e+01	-1.202310e+01
4.845545e+01	-1.207074e+01
4.873533e+01	-1.211715e+01
4.901682e+01	-1.216458e+01
4.929994e+01	-1.221130e+01
4.958470e+01	-1.225826e+01
4.987110e+01	-1.230537e+01
5.015915e+01	-1.235241e+01
5.044887e+01	-1.239898e+01
5.074026e+01	-1.244684e+01
5.103333e+01	-1.249411e+01
5.132810e+01	-1.254077e+01
5.162457e+01	-1.258860e+01
5.192275e+01	-1.263621e+01
5.222265e+01	-1.268282e+01
5.252429e+01	-1.273025e+01
5.282767e+01	-1.277695e+01
5.313280e+01	-1.282493e+01
5.343969e+01	-1.287274e+01
5.374836e+01	-1.291962e+01
5.405880e+01	-1.296675e+01
5.437105e+01	-1.301539e+01
5.468509e+01	-1.306244e+01
5.500095e+01	-1.311017e+01
5.531863e+01	-1.315745e+01
5.563815e+01	-1.320501e+01
5.595951e+01	-1.325358e+01
5.628273e+01	-1.330053e+01
5.660782e+01	-1.334808e+01
5.693479e+01	-1.339619e+01
5.726364e+01	-1.344413e+01
5.759439e+01	-1.349185e+01
5.792705e+01	-1.353993e+01
5.826164e+01	-1.358765e+01
5.859815e+01	-1.363476e+01
5.893662e+01	-1.368300e+01
5.927703e+01	-1.373141e+01
5.961941e+01	-1.377856e+01
5.996377e+01	-1.382636e+01
6.031012e+01	-1.387375e+01
6.065847e+01	-1.392137e+01
6.100883e+01	-1.396988e+01
6.136121e+01	-1.402004e+01
6.171563e+01	-1.406647e+01
6.207210e+01	-1.411480e+01
6.243063e+01	-1.416331e+01
6.279122e+01	-1.421049e+01
6.315390e+01	-1.425933e+01
6.351868e+01	-1.430765e+01
6.388556e+01	-1.435526e+01
6.425456e+01	-1.440370e+01
6.462569e+01	-1.445165e+01
6.499897e+01	-1.450037e+01
6.537440e+01	-1.454966e+01
6.575200e+01	-1.459666e+01
6.613178e+01	-1.464592e+01
6.651375e+01	-1.469328e+01
6.689793e+01	-1.474110e+01
6.728433e+01	-1.478965e+01
6.767297e+01	-1.483865e+01
6.806384e+01	-1.488547e+01
6.845698e+01	-1.493479e+01
6.885238e+01	-1.498312e+01
6.925007e+01	-1.503234e+01
6.965005e+01	-1.508074e+01
7.005235e+01	-1.513049e+01
7.045697e+01	-1.517743e+01
7.086393e+01	-1.522637e+01
7.127323e+01	-1.527495e+01
7.168490e+01	-1.532213e+01
7.209895e+01	-1.537230e+01
7.251539e+01	-1.542121e+01
7.293424e+01	-1.546958e+01
7.335551e+01	-1.551721e+01
7.377920e+01	-1.556623e+01
7.420535e+01	-1.561526e+01
7.463396e+01	-1.566333e+01
7.506504e+01	-1.571188e+01
7.549861e+01	-1.575996e+01
7.593469e+01	-1.580974e+01
7.637328e+01	-1.585832e+01
7.681441e+01	-1.590751e+01
7.725809e+01	-1.595600e+01
7.770433e+01	-1.600418e+01
7.815315e+01	-1.605323e+01
7.860456e+01	-1.610282e+01
7.905857e+01	-1.615148e+01
7.951521e+01	-1.620024e+01
7.997449e+01	-1.624780e+01
8.043642e+01	-1.629702e+01
8.090102e+01	-1.634691e+01
8.136830e+01	-1.639603e+01
8.183828e+01	-1.644487e+01
8.231097e+01	-1.649231e+01
8.278640e+01	-1.654157e+01
8.326457e+01	-1.659070e+01
8.374550e+01	-1.663975e+01
8.422921e+01	-1.668991e+01
8.471572e+01	-1.673741e+01
8.520503e+01	-1.678686e+01
8.569717e+01	-1.683595e+01
8.619215e+01	-1.688459e+01
8.669000e+01	-1.693376e+01
8.719071e+01	-1.698305e+01
8.769432e+01	-1.703217e+01
8.820084e+01	-1.708024e+01
8.871029e+01	-1.712977e+01
8.922267e+01	-1.717935e+01
8.973802e+01	-1.722853e+01
9.025634e+01	-1.727760e+01
9.077766e+01	-1.732592e+01
9.130199e+01	-1.737611e+01
9.182935e+01	-1.742377e+01
9.235975e+01	-1.747321e+01
9.289321e+01	-1.752286e+01
9.342976e+01	-1.757243e+01
9.396941e+01	-1.762042e+01
9.451217e+01	-1.766967e+01
9.505807e+01	-1.771979e+01
9.560712e+01	-1.776852e+01
9.615934e+01	-1.781724e+01
9.671476e+01	-1.786784e+01
9.727338e+01	-1.791611e+01
9.783522e+01	-1.796479e+01
9.840032e+01	-1.801458e+01
9.896867e+01	-1.806396e+01
9.954031e+01	-1.811296e+01
1.001153e+02	-1.816198e+01
1.006935e+02	-1.821144e+01
1.012751e+02	-1.826122e+01
1.018601e+02	-1.830995e+01
1.024484e+02	-1.835953e+01
1.030402e+02	-1.840864e+01
1.036353e+02	-1.845822e+01
1.042339e+02	-1.850847e+01
1.048360e+02	-1.855665e+01
1.054415e+02	-1.860540e+01
1.060505e+02	-1.865619e+01
1.066631e+02	-1.870463e+01
1.072791e+02	-1.875349e+01
1.078988e+02	-1.880351e+01
1.085220e+02	-1.885267e+01
1.091488e+02	-1.890194e+01
1.097793e+02	-1.895118e+01
1.104133e+02	-1.900147e+01
1.110511e+02	-1.905073e+01
1.116925e+02	-1.909911e+01
1.123376e+02	-1.914898e+01
1.129865e+02	-1.919931e+01
1.136391e+02	-1.924864e+01
1.142955e+02	-1.929896e+01
1.149556e+02	-1.934692e+01
1.156196e+02	-1.939631e+01
1.162874e+02	-1.944534e+01
1.169591e+02	-1.949555e+01
1.176347e+02	-1.954645e+01
1.183141e+02	-1.959549e+01
1.189975e+02	-1.964492e+01
1.196848e+02	-1.969367e+01
1.203761e+02	-1.974215e+01
1.210714e+02	-1.979337e+01
1.217707e+02	-1.984289e+01
1.224740e+02	-1.989119e+01
1.231814e+02	-1.994221e+01
1.238929e+02	-1.999001e+01
1.246085e+02	-2.004026e+01
1.253283e+02	-2.009025e+01
1.260522e+02	-2.013964e+01
1.267802e+02	-2.018993e+01
1.275125e+02	-2.023942e+01
1.282490e+02	-2.028806e+01
1.289898e+02	-2.033817e+01
1.297348e+02	-2.038790e+01
1.304842e+02	-2.043534e+01
1.312378e+02	-2.048692e+01
1.319959e+02	-2.053652e+01
1.327583e+02	-2.058467e+01
1.335251e+02	-2.063398e+01
1.342963e+02	-2.068349e+01
1.350720e+02	-2.073385e+01
1.358522e+02	-2.078348e+01
1.366368e+02	-2.083350e+01
1.374260e+02	-2.088223e+01
1.382198e+02	-2.093123e+01
1.390182e+02	-2.098383e+01
1.398211e+02	-2.103043e+01
1.406287e+02	-2.108095e+01
1.414410e+02	-2.113099e+01
1.422579e+02	-2.118202e+01
1.430796e+02	-2.123038e+01
1.439060e+02	-2.128024e+01
1.447372e+02	-2.132923e+01
1.455732e+02	-2.137911e+01
1.464141e+02	-2.142694e+01
1.472597e+02	-2.147944e+01
1.481103e+02	-2.153052e+01
1.489658e+02	-2.157774e+01
1.498262e+02	-2.162672e+01
1.506916e+02	-2.167782e+01
1.515620e+02	-2.172767e+01
1.524374e+02	-2.177645e+01
1.533179e+02	-2.182696e+01
1.542034e+02	-2.187596e+01
1.550941e+02	-2.192496e+01
1.559899e+02	-2.197777e+01
1.568909e+02	-2.202482e+01
1.577971e+02	-2.207626e+01
1.587085e+02	-2.212549e+01
1.596252e+02	-2.217474e+01
1.605472e+02	-2.222536e+01
1.614745e+02	-2.227451e+01
1.624072e+02	-2.232293e+01
1.633453e+02	-2.237535e+01
1.642887e+02	-2.242304e+01
1.652377e+02	-2.247362e+01
1.661921e+02	-2.252201e+01
1.671520e+02	-2.257320e+01
1.681175e+02	-2.262328e+01
1.690885e+02	-2.267126e+01
1.700651e+02	-2.272071e+01
1.710474e+02	-2.277264e+01
1.720354e+02	-2.282159e+01
1.730291e+02	-2.286993e+01
1.740285e+02	-2.292177e+01
1.750337e+02	-2.297246e+01
1.760446e+02	-2.302216e+01
1.770615e+02	-2.307065e+01
1.780842e+02	-2.312271e+01
1.791128e+02	-2.317235e+01
1.801473e+02	-2.322281e+01
1.811878e+02	-2.327178e+01
1.822344e+02	-2.331962e+01
1.832870e+02	-2.336987e+01
1.843456e+02	-2.341834e+01
1.854104e+02	-2.346823e+01
1.864813e+02	-2.351999e+01
1.875584e+02	-2.357126e+01
1.886418e+02	-2.361902e+01
1.897313e+02	-2.366599e+01
1.908272e+02	-2.371860e+01
1.919294e+02	-2.376766e+01
1.930380e+02	-2.381823e+01
1.941530e+02	-2.386916e+01
1.952744e+02	-2.392038e+01
1.964023e+02	-2.397010e+01
1.975367e+02	-2.401972e+01
1.986777e+02	-2.406880e+01
1.998252e+02	-2.411974e+01
2.009794e+02	-2.416464e+01
2.021403e+02	-2.421653e+01
2.033078e+02	-2.426877e+01
2.044821e+02	-2.431813e+01
2.056632e+02	-2.436563e+01
2.068511e+02	-2.441739e+01
2.080459e+02	-2.446589e+01
2.092475e+02	-2.451660e+01
2.104561e+02	-2.456801e+01
2.116717e+02	-2.461644e+01
2.128943e+02	-2.466433e+01
2.141240e+02	-2.471720e+01
2.153608e+02	-2.476568e+01
2.166047e+02	-2.481666e+01
2.178558e+02	-2.486300e+01
2.191141e+02	-2.491446e+01
2.203797e+02	-2.496384e+01
2.216526e+02	-2.501676e+01
2.229329e+02	-2.506666e+01
2.242205e+02	-2.511591e+01
2.255156e+02	-2.516426e+01
2.268182e+02	-2.521495e+01
2.281283e+02	-2.526676e+01
2.294459e+02	-2.531656e+01
2.307712e+02	-2.536364e+01
2.321041e+02	-2.541293e+01
2.334447e+02	-2.546701e+01
2.347931e+02	-2.551491e+01
2.361493e+02	-2.556537e+01
2.375133e+02	-2.561742e+01
2.388851e+02	-2.566201e+01
2.402649e+02	-2.571395e+01
2.416527e+02	-2.576322e+01
2.430484e+02	-2.581614e+01
2.444523e+02	-2.586499e+01
2.458642e+02	-2.591061e+01
2.472843e+02	-2.596727e+01
2.487126e+02	-2.601488e+01
2.501492e+02	-2.606310e+01
2.515940e+02	-2.611629e+01
2.530472e+02	-2.616524e+01
2.545088e+02	-2.621669e+01
2.559789e+02	-2.626282e+01
2.574574e+02	-2.631198e+01
2.589444e+02	-2.636532e+01
2.604401e+02	-2.641538e+01
2.619444e+02	-2.646508e+01
2.634574e+02	-2.651549e+01
2.649791e+02	-2.656428e+01
2.665096e+02	-2.661532e+01
2.680489e+02	-2.666326e+01
2.695972e+02	-2.671586e+01
2.711544e+02	-2.676231e+01
2.727205e+02	-2.681392e+01
2.742958e+02	-2.686478e+01
2.758801e+02	-2.691485e+01
2.774736e+02	-2.696493e+01
2.790762e+02	-2.701681e+01
2.806882e+02	-2.706247e+01
2.823094e+02	-2.711262e+01
2.839400e+02	-2.716404e+01
2.855800e+02	-2.721377e+01
2.872295e+02	-2.726348e+01
2.888886e+02	-2.731277e+01
2.905572e+02	-2.735982e+01
2.922354e+02	-2.741524e+01
2.939234e+02	-2.745932e+01
2.956211e+02	-2.751119e+01
2.973286e+02	-2.756662e+01
2.990459e+02	-2.761372e+01
3.007732e+02	-2.766380e+01
3.025104e+02	-2.770827e+01
3.042577e+02	-2.776271e+01
3.060151e+02	-2.781279e+01
3.077826e+02	-2.785970e+01
3.095604e+02	-2.791464e+01
3.113484e+02	-2.796760e+01
3.131467e+02	-2.801199e+01
3.149554e+02	-2.806600e+01
3.167746e+02	-2.811784e+01
3.186043e+02	-2.816492e+01
3.204445e+02	-2.821444e+01
3.222954e+02	-2.826582e+01
3.241570e+02	-2.831012e+01
3.260293e+02	-2.836877e+01
3.279124e+02	-2.841285e+01
3.298064e+02	-2.846442e+01
3.317114e+02	-2.851147e+01
3.336273e+02	-2.856497e+01
3.355544e+02	-2.860834e+01
3.374925e+02	-2.866625e+01
3.394418e+02	-2.871251e+01
3.414024e+02	-2.876924e+01
3.433744e+02	-2.881477e+01
3.453577e+02	-2.886596e+01
3.473525e+02	-2.891112e+01
3.493588e+02	-2.896910e+01
3.513766e+02	-2.901220e+01
3.534062e+02	-2.906463e+01
3.554474e+02	-2.911355e+01
3.575005e+02	-2.916584e+01
3.595654e+02	-2.921659e+01
3.616422e+02	-2.926271e+01
3.637311e+02	-2.931484e+01
3.658320e+02	-2.936290e+01
3.679450e+02	-2.941346e+01
3.700702e+02	-2.946924e+01
3.722077e+02	-2.951731e+01
3.743576e+02	-2.956283e+01
3.765199e+02	-2.961497e+01
3.786946e+02	-2.966050e+01
3.808820e+02	-2.971483e+01
3.830819e+02	-2.976782e+01
3.852946e+02	-2.980928e+01
3.875200e+02	-2.986134e+01
3.897583e+02	-2.991528e+01
3.920096e+02	-2.996773e+01
3.942738e+02	-3.001657e+01
3.965511e+02	-3.006392e+01
3.988416e+02	-3.011679e+01
4.011452e+02	-3.016555e+01
4.034622e+02	-3.021315e+01
4.057926e+02	-3.026605e+01
4.081365e+02	-3.031603e+01
4.104938e+02	-3.036507e+01
4.128648e+02	-3.041907e+01
4.152495e+02	-3.046720e+01
4.176480e+02	-3.051390e+01
4.200603e+02	-3.056512e+01
4.224866e+02	-3.061712e+01
4.249268e+02	-3.067230e+01
4.273812e+02	-3.071814e+01
4.298497e+02	-3.077097e+01
4.323325e+02	-3.081618e+01
4.348297e+02	-3.087118e+01
4.373412e+02	-3.091678e+01
4.398673e+02	-3.097073e+01
4.424079e+02	-3.101617e+01
4.449633e+02	-3.106664e+01
4.475334e+02	-3.112014e+01
4.501183e+02	-3.117300e+01
4.527182e+02	-3.122247e+01
4.553330e+02	-3.126567e+01
4.579630e+02	-3.132157e+01
4.606082e+02	-3.137009e+01
4.632687e+02	-3.142067e+01
4.659445e+02	-3.146422e+01
4.686358e+02	-3.151820e+01
4.713426e+02	-3.157192e+01
4.740650e+02	-3.161772e+01
4.768032e+02	-3.166452e+01
4.795572e+02	-3.171717e+01
4.823271e+02	-3.177526e+01
4.851130e+02	-3.182154e+01
4.879150e+02	-3.186705e+01
4.907332e+02	-3.192231e+01
4.935676e+02	-3.198336e+01
4.964185e+02	-3.202389e+01
4.992858e+02	-3.206866e+01
5.021696e+02	-3.212724e+01
5.050701e+02	-3.217744e+01
5.079874e+02	-3.222718e+01
5.109215e+02	-3.226927e+01
5.138726e+02	-3.232327e+01
5.168407e+02	-3.236776e+01
5.198259e+02	-3.241872e+01
5.228284e+02	-3.247273e+01
5.258482e+02	-3.252142e+01
5.288855e+02	-3.257724e+01
5.319403e+02	-3.262497e+01
5.350128e+02	-3.267458e+01
5.381030e+02	-3.271827e+01
5.412111e+02	-3.277222e+01
5.443371e+02	-3.282491e+01
5.474812e+02	-3.288316e+01
5.506434e+02	-3.292850e+01
5.538239e+02	-3.297873e+01
5.570228e+02	-3.303066e+01
5.602401e+02	-3.308125e+01
5.634760e+02	-3.313215e+01
5.667306e+02	-3.317724e+01
5.700040e+02	-3.322482e+01
5.732964e+02	-3.327736e+01
5.766077e+02	-3.333138e+01
5.799382e+02	-3.337285e+01
5.832879e+02	-3.342512e+01
5.866569e+02	-3.347892e+01
5.900454e+02	-3.352140e+01
5.934535e+02	-3.358013e+01
5.968813e+02	-3.362934e+01
6.003288e+02	-3.368154e+01
6.037963e+02	-3.372691e+01
6.072838e+02	-3.378422e+01
6.107914e+02	-3.383241e+01
6.143194e+02	-3.388998e+01
6.178676e+02	-3.393408e+01
6.214364e+02	-3.398886e+01
6.250258e+02	-3.403121e+01
6.286359e+02	-3.409101e+01
6.322669e+02	-3.413592e+01
6.359189e+02	-3.418636e+01
6.395919e+02	-3.423515e+01
6.432862e+02	-3.429025e+01
6.470017e+02	-3.434061e+01
6.507388e+02	-3.439461e+01
6.544974e+02	-3.443682e+01
6.582778e+02	-3.448554e+01
6.620800e+02	-3.454209e+01
6.659041e+02	-3.458187e+01
6.697504e+02	-3.464450e+01
6.736188e+02	-3.468519e+01
6.775096e+02	-3.474425e+01
6.814229e+02	-3.478825e+01
6.853587e+02	-3.483898e+01
6.893173e+02	-3.489863e+01
6.932988e+02	-3.493041e+01
6.973033e+02	-3.498869e+01
7.013309e+02	-3.504054e+01
