Frequency(Hz)	Magnitude(dB)
1.000000e+01	-1.826112e-05
1.005776e+01	-1.847268e-05
1.011585e+01	-1.868669e-05
1.017428e+01	-1.890318e-05
1.023305e+01	-1.912218e-05
1.029215e+01	-1.934372e-05
1.035160e+01	-1.956782e-05
1.041139e+01	-1.979452e-05
1.047153e+01	-2.002384e-05
1.053201e+01	-2.025582e-05
1.059284e+01	-2.049049e-05
1.065403e+01	-2.072788e-05
1.071556e+01	-2.096802e-05
1.077746e+01	-2.121094e-05
1.083971e+01	-2.145667e-05
1.090232e+01	-2.170525e-05
1.096529e+01	-2.195671e-05
1.102862e+01	-2.221109e-05
1.109232e+01	-2.246841e-05
1.115639e+01	-2.272871e-05
1.122083e+01	-2.299203e-05
1.128564e+01	-2.325839e-05
1.135083e+01	-2.352785e-05
1.141639e+01	-2.380043e-05
1.148233e+01	-2.407616e-05
1.154865e+01	-2.435509e-05
1.161536e+01	-2.463725e-05
1.168245e+01	-2.492268e-05
1.174992e+01	-2.521141e-05
1.181779e+01	-2.550349e-05
1.188605e+01	-2.579896e-05
1.195470e+01	-2.609784e-05
1.202375e+01	-2.640019e-05
1.209320e+01	-2.670605e-05
1.216305e+01	-2.701544e-05
1.223330e+01	-2.732842e-05
1.230396e+01	-2.764503e-05
1.237503e+01	-2.796530e-05
1.244651e+01	-2.828929e-05
1.251840e+01	-2.861703e-05
1.259070e+01	-2.894856e-05
1.266343e+01	-2.928394e-05
1.273657e+01	-2.962320e-05
1.281014e+01	-2.996639e-05
1.288413e+01	-3.031356e-05
1.295855e+01	-3.066475e-05
1.303339e+01	-3.102001e-05
1.310867e+01	-3.137938e-05
1.318439e+01	-3.174292e-05
1.326054e+01	-3.211067e-05
1.333713e+01	-3.248268e-05
1.341417e+01	-3.285900e-05
1.349165e+01	-3.323968e-05
1.356958e+01	-3.362476e-05
1.364795e+01	-3.401432e-05
1.372678e+01	-3.440838e-05
1.380607e+01	-3.480701e-05
1.388581e+01	-3.521026e-05
1.396602e+01	-3.561817e-05
1.404668e+01	-3.603082e-05
1.412782e+01	-3.644825e-05
1.420942e+01	-3.687051e-05
1.429149e+01	-3.729766e-05
1.437404e+01	-3.772976e-05
1.445706e+01	-3.816687e-05
1.454057e+01	-3.860904e-05
1.462455e+01	-3.905634e-05
1.470902e+01	-3.950881e-05
1.479398e+01	-3.996653e-05
1.487943e+01	-4.042955e-05
1.496537e+01	-4.089794e-05
1.505181e+01	-4.137175e-05
1.513875e+01	-4.185105e-05
1.522619e+01	-4.233590e-05
1.531414e+01	-4.282638e-05
1.540259e+01	-4.332253e-05
1.549156e+01	-4.382443e-05
1.558103e+01	-4.433215e-05
1.567103e+01	-4.484574e-05
1.576155e+01	-4.536529e-05
1.585258e+01	-4.589086e-05
1.594415e+01	-4.642251e-05
1.603624e+01	-4.696033e-05
1.612886e+01	-4.750437e-05
1.622202e+01	-4.805472e-05
1.631572e+01	-4.861145e-05
1.640996e+01	-4.917462e-05
1.650474e+01	-4.974432e-05
1.660008e+01	-5.032062e-05
1.669596e+01	-5.090359e-05
1.679239e+01	-5.149332e-05
1.688938e+01	-5.208988e-05
1.698694e+01	-5.269335e-05
1.708505e+01	-5.330382e-05
1.718373e+01	-5.392135e-05
1.728299e+01	-5.454604e-05
1.738281e+01	-5.517797e-05
1.748322e+01	-5.581722e-05
1.758420e+01	-5.646387e-05
1.768576e+01	-5.711802e-05
1.778792e+01	-5.777974e-05
1.789066e+01	-5.844913e-05
1.799399e+01	-5.912628e-05
1.809793e+01	-5.981127e-05
1.820246e+01	-6.050419e-05
1.830760e+01	-6.120515e-05
1.841334e+01	-6.191422e-05
1.851969e+01	-6.263151e-05
1.862666e+01	-6.335711e-05
1.873425e+01	-6.409111e-05
1.884246e+01	-6.483362e-05
1.895129e+01	-6.558473e-05
1.906075e+01	-6.634454e-05
1.917085e+01	-6.711315e-05
1.928158e+01	-6.789067e-05
1.939295e+01	-6.867720e-05
1.950496e+01	-6.947284e-05
1.961762e+01	-7.027769e-05
1.973093e+01	-7.109187e-05
1.984490e+01	-7.191548e-05
1.995952e+01	-7.274864e-05
2.007480e+01	-7.359145e-05
2.019076e+01	-7.444402e-05
2.030738e+01	-7.530646e-05
2.042467e+01	-7.617890e-05
2.054264e+01	-7.706145e-05
2.066130e+01	-7.795422e-05
2.078064e+01	-7.885733e-05
2.090066e+01	-7.977091e-05
2.102139e+01	-8.069507e-05
2.114280e+01	-8.162993e-05
2.126492e+01	-8.257563e-05
2.138775e+01	-8.353228e-05
2.151128e+01	-8.450002e-05
2.163553e+01	-8.547896e-05
2.176050e+01	-8.646925e-05
2.188619e+01	-8.747101e-05
2.201260e+01	-8.848438e-05
2.213974e+01	-8.950948e-05
2.226762e+01	-9.054647e-05
2.239624e+01	-9.159546e-05
2.252560e+01	-9.265661e-05
2.265571e+01	-9.373005e-05
2.278656e+01	-9.481593e-05
2.291818e+01	-9.591438e-05
2.305055e+01	-9.702557e-05
2.318369e+01	-9.814962e-05
2.331760e+01	-9.928670e-05
2.345228e+01	-1.004370e-04
2.358774e+01	-1.016005e-04
2.372398e+01	-1.027776e-04
2.386101e+01	-1.039683e-04
2.399883e+01	-1.051728e-04
2.413745e+01	-1.063912e-04
2.427686e+01	-1.076238e-04
2.441709e+01	-1.088706e-04
2.455812e+01	-1.101319e-04
2.469997e+01	-1.114078e-04
2.484263e+01	-1.126984e-04
2.498612e+01	-1.140041e-04
2.513044e+01	-1.153248e-04
2.527559e+01	-1.166609e-04
2.542158e+01	-1.180124e-04
2.556842e+01	-1.193796e-04
2.571610e+01	-1.207626e-04
2.586463e+01	-1.221617e-04
2.601403e+01	-1.235769e-04
2.616428e+01	-1.250086e-04
2.631541e+01	-1.264568e-04
2.646740e+01	-1.279218e-04
2.662028e+01	-1.294038e-04
2.677404e+01	-1.309030e-04
2.692868e+01	-1.324195e-04
2.708422e+01	-1.339536e-04
2.724066e+01	-1.355055e-04
2.739800e+01	-1.370753e-04
2.755625e+01	-1.386633e-04
2.771541e+01	-1.402698e-04
2.787550e+01	-1.418948e-04
2.803650e+01	-1.435387e-04
2.819844e+01	-1.452016e-04
2.836131e+01	-1.468837e-04
2.852513e+01	-1.485854e-04
2.868989e+01	-1.503068e-04
2.885560e+01	-1.520481e-04
2.902227e+01	-1.538096e-04
2.918990e+01	-1.555915e-04
2.935850e+01	-1.573940e-04
2.952807e+01	-1.592174e-04
2.969863e+01	-1.610620e-04
2.987016e+01	-1.629279e-04
3.004269e+01	-1.648154e-04
3.021622e+01	-1.667248e-04
3.039075e+01	-1.686563e-04
3.056628e+01	-1.706102e-04
3.074283e+01	-1.725867e-04
3.092040e+01	-1.745862e-04
3.109900e+01	-1.766088e-04
3.127862e+01	-1.786548e-04
3.145929e+01	-1.807245e-04
3.164099e+01	-1.828182e-04
3.182375e+01	-1.849362e-04
3.200756e+01	-1.870786e-04
3.219244e+01	-1.892460e-04
3.237838e+01	-1.914384e-04
3.256540e+01	-1.936562e-04
3.275349e+01	-1.958997e-04
3.294268e+01	-1.981692e-04
3.313295e+01	-2.004650e-04
3.332433e+01	-2.027874e-04
3.351681e+01	-2.051367e-04
3.371040e+01	-2.075132e-04
3.390511e+01	-2.099172e-04
3.410094e+01	-2.123491e-04
3.429791e+01	-2.148092e-04
3.449601e+01	-2.172977e-04
3.469526e+01	-2.198151e-04
3.489566e+01	-2.223617e-04
3.509721e+01	-2.249377e-04
3.529993e+01	-2.275436e-04
3.550382e+01	-2.301797e-04
3.570889e+01	-2.328464e-04
3.591515e+01	-2.355439e-04
3.612259e+01	-2.382726e-04
3.633123e+01	-2.410330e-04
3.654108e+01	-2.438254e-04
3.675214e+01	-2.466501e-04
3.696442e+01	-2.495075e-04
3.717792e+01	-2.523980e-04
3.739266e+01	-2.553221e-04
3.760864e+01	-2.582799e-04
3.782587e+01	-2.612721e-04
3.804435e+01	-2.642989e-04
3.826409e+01	-2.673608e-04
3.848510e+01	-2.704582e-04
3.870739e+01	-2.735914e-04
3.893096e+01	-2.767609e-04
3.915583e+01	-2.799672e-04
3.938199e+01	-2.832106e-04
3.960946e+01	-2.864915e-04
3.983824e+01	-2.898105e-04
4.006834e+01	-2.931679e-04
4.029978e+01	-2.965642e-04
4.053255e+01	-2.999999e-04
4.076666e+01	-3.034754e-04
4.100213e+01	-3.069911e-04
4.123896e+01	-3.105475e-04
4.147715e+01	-3.141452e-04
4.171672e+01	-3.177845e-04
4.195767e+01	-3.214660e-04
4.220002e+01	-3.251901e-04
4.244377e+01	-3.289574e-04
4.268892e+01	-3.327683e-04
4.293549e+01	-3.366234e-04
4.318348e+01	-3.405231e-04
4.343291e+01	-3.444680e-04
4.368377e+01	-3.484586e-04
4.393609e+01	-3.524954e-04
4.418986e+01	-3.565790e-04
4.444510e+01	-3.607099e-04
4.470182e+01	-3.648887e-04
4.496001e+01	-3.691158e-04
4.521970e+01	-3.733919e-04
4.548089e+01	-3.777176e-04
4.574358e+01	-3.820934e-04
4.600779e+01	-3.865198e-04
4.627353e+01	-3.909976e-04
4.654081e+01	-3.955272e-04
4.680963e+01	-4.001093e-04
4.708000e+01	-4.047444e-04
4.735193e+01	-4.094333e-04
4.762543e+01	-4.141764e-04
4.790051e+01	-4.189746e-04
4.817719e+01	-4.238283e-04
4.845545e+01	-4.287382e-04
4.873533e+01	-4.337050e-04
4.901682e+01	-4.387293e-04
4.929994e+01	-4.438119e-04
4.958470e+01	-4.489533e-04
4.987110e+01	-4.541543e-04
5.015915e+01	-4.594155e-04
5.044887e+01	-4.647377e-04
5.074026e+01	-4.701215e-04
5.103333e+01	-4.755677e-04
5.132810e+01	-4.810769e-04
5.162457e+01	-4.866500e-04
5.192275e+01	-4.922877e-04
5.222265e+01	-4.979907e-04
5.252429e+01	-5.037597e-04
5.282767e+01	-5.095955e-04
5.313280e+01	-5.154990e-04
5.343969e+01	-5.214708e-04
5.374836e+01	-5.275118e-04
5.405880e+01	-5.336228e-04
5.437105e+01	-5.398046e-04
5.468509e+01	-5.460580e-04
5.500095e+01	-5.523838e-04
5.531863e+01	-5.587830e-04
5.563815e+01	-5.652562e-04
5.595951e+01	-5.718044e-04
5.628273e+01	-5.784285e-04
5.660782e+01	-5.851293e-04
5.693479e+01	-5.919077e-04
5.726364e+01	-5.987646e-04
5.759439e+01	-6.057010e-04
5.792705e+01	-6.127177e-04
5.826164e+01	-6.198157e-04
5.859815e+01	-6.269959e-04
5.893662e+01	-6.342593e-04
5.927703e+01	-6.416069e-04
5.961941e+01	-6.490395e-04
5.996377e+01	-6.565582e-04
6.031012e+01	-6.641641e-04
6.065847e+01	-6.718580e-04
6.100883e+01	-6.796410e-04
6.136121e+01	-6.875142e-04
6.171563e+01	-6.954786e-04
6.207210e+01	-7.035353e-04
6.243063e+01	-7.116853e-04
6.279122e+01	-7.199297e-04
6.315390e+01	-7.282696e-04
6.351868e+01	-7.367060e-04
6.388556e+01	-7.452403e-04
6.425456e+01	-7.538733e-04
6.462569e+01	-7.626064e-04
6.499897e+01	-7.714406e-04
6.537440e+01	-7.803771e-04
6.575200e+01	-7.894172e-04
6.613178e+01	-7.985620e-04
6.651375e+01	-8.078127e-04
6.689793e+01	-8.171705e-04
6.728433e+01	-8.266368e-04
6.767297e+01	-8.362127e-04
6.806384e+01	-8.458995e-04
6.845698e+01	-8.556985e-04
6.885238e+01	-8.656110e-04
6.925007e+01	-8.756383e-04
6.965005e+01	-8.857818e-04
7.005235e+01	-8.960428e-04
7.045697e+01	-9.064226e-04
7.086393e+01	-9.169226e-04
7.127323e+01	-9.275443e-04
7.168490e+01	-9.382890e-04
7.209895e+01	-9.491581e-04
7.251539e+01	-9.601532e-04
7.293424e+01	-9.712756e-04
7.335551e+01	-9.825268e-04
7.377920e+01	-9.939083e-04
7.420535e+01	-1.005422e-03
7.463396e+01	-1.017068e-03
7.506504e+01	-1.028850e-03
7.549861e+01	-1.040768e-03
7.593469e+01	-1.052824e-03
7.637328e+01	-1.065020e-03
7.681441e+01	-1.077357e-03
7.725809e+01	-1.089837e-03
7.770433e+01	-1.102461e-03
7.815315e+01	-1.115232e-03
7.860456e+01	-1.128151e-03
7.905857e+01	-1.141219e-03
7.951521e+01	-1.154438e-03
7.997449e+01	-1.167811e-03
8.043642e+01	-1.181339e-03
8.090102e+01	-1.195023e-03
8.136830e+01	-1.208866e-03
8.183828e+01	-1.222869e-03
8.231097e+01	-1.237034e-03
8.278640e+01	-1.251363e-03
8.326457e+01	-1.265859e-03
8.374550e+01	-1.280522e-03
8.422921e+01	-1.295355e-03
8.471572e+01	-1.310359e-03
8.520503e+01	-1.325538e-03
8.569717e+01	-1.340892e-03
8.619215e+01	-1.356425e-03
8.669000e+01	-1.372137e-03
8.719071e+01	-1.388031e-03
8.769432e+01	-1.404109e-03
8.820084e+01	-1.420373e-03
8.871029e+01	-1.436826e-03
8.922267e+01	-1.453469e-03
8.973802e+01	-1.470305e-03
9.025634e+01	-1.487336e-03
9.077766e+01	-1.504564e-03
9.130199e+01	-1.521992e-03
9.182935e+01	-1.539621e-03
9.235975e+01	-1.557455e-03
9.289321e+01	-1.575495e-03
9.342976e+01	-1.593745e-03
9.396941e+01	-1.612205e-03
9.451217e+01	-1.630879e-03
9.505807e+01	-1.649770e-03
9.560712e+01	-1.668879e-03
9.615934e+01	-1.688210e-03
9.671476e+01	-1.707765e-03
9.727338e+01	-1.727545e-03
9.783522e+01	-1.747556e-03
9.840032e+01	-1.767797e-03
9.896867e+01	-1.788274e-03
9.954031e+01	-1.808987e-03
1.001153e+02	-1.829940e-03
1.006935e+02	-1.851136e-03
1.012751e+02	-1.872577e-03
1.018601e+02	-1.894267e-03
1.024484e+02	-1.916207e-03
1.030402e+02	-1.938402e-03
1.036353e+02	-1.960854e-03
1.042339e+02	-1.983566e-03
1.048360e+02	-2.006541e-03
1.054415e+02	-2.029782e-03
1.060505e+02	-2.053292e-03
1.066631e+02	-2.077074e-03
1.072791e+02	-2.101131e-03
1.078988e+02	-2.125468e-03
1.085220e+02	-2.150086e-03
1.091488e+02	-2.174989e-03
1.097793e+02	-2.200180e-03
1.104133e+02	-2.225663e-03
1.110511e+02	-2.251442e-03
1.116925e+02	-2.277518e-03
1.123376e+02	-2.303897e-03
1.129865e+02	-2.330581e-03
1.136391e+02	-2.357574e-03
1.142955e+02	-2.384880e-03
1.149556e+02	-2.412501e-03
1.156196e+02	-2.440443e-03
1.162874e+02	-2.468708e-03
1.169591e+02	-2.497301e-03
1.176347e+02	-2.526224e-03
1.183141e+02	-2.555482e-03
1.189975e+02	-2.585080e-03
1.196848e+02	-2.615019e-03
1.203761e+02	-2.645306e-03
1.210714e+02	-2.675943e-03
1.217707e+02	-2.706935e-03
1.224740e+02	-2.738285e-03
1.231814e+02	-2.769999e-03
1.238929e+02	-2.802080e-03
1.246085e+02	-2.834532e-03
1.253283e+02	-2.867360e-03
1.260522e+02	-2.900568e-03
1.267802e+02	-2.934160e-03
1.275125e+02	-2.968142e-03
1.282490e+02	-3.002517e-03
1.289898e+02	-3.037289e-03
1.297348e+02	-3.072465e-03
1.304842e+02	-3.108047e-03
1.312378e+02	-3.144042e-03
1.319959e+02	-3.180453e-03
1.327583e+02	-3.217286e-03
1.335251e+02	-3.254545e-03
1.342963e+02	-3.292235e-03
1.350720e+02	-3.330362e-03
1.358522e+02	-3.368930e-03
1.366368e+02	-3.407945e-03
1.374260e+02	-3.447411e-03
1.382198e+02	-3.487334e-03
1.390182e+02	-3.527719e-03
1.398211e+02	-3.568572e-03
1.406287e+02	-3.609898e-03
1.414410e+02	-3.651702e-03
1.422579e+02	-3.693990e-03
1.430796e+02	-3.736767e-03
1.439060e+02	-3.780040e-03
1.447372e+02	-3.823813e-03
1.455732e+02	-3.868093e-03
1.464141e+02	-3.912886e-03
1.472597e+02	-3.958197e-03
1.481103e+02	-4.004032e-03
1.489658e+02	-4.050398e-03
1.498262e+02	-4.097301e-03
1.506916e+02	-4.144747e-03
1.515620e+02	-4.192742e-03
1.524374e+02	-4.241292e-03
1.533179e+02	-4.290404e-03
1.542034e+02	-4.340085e-03
1.550941e+02	-4.390340e-03
1.559899e+02	-4.441177e-03
1.568909e+02	-4.492603e-03
1.577971e+02	-4.544623e-03
1.587085e+02	-4.597246e-03
1.596252e+02	-4.650478e-03
1.605472e+02	-4.704326e-03
1.614745e+02	-4.758797e-03
1.624072e+02	-4.813898e-03
1.633453e+02	-4.869637e-03
1.642887e+02	-4.926021e-03
1.652377e+02	-4.983057e-03
1.661921e+02	-5.040754e-03
1.671520e+02	-5.099118e-03
1.681175e+02	-5.158157e-03
1.690885e+02	-5.217880e-03
1.700651e+02	-5.278293e-03
1.710474e+02	-5.339406e-03
1.720354e+02	-5.401226e-03
1.730291e+02	-5.463761e-03
1.740285e+02	-5.527020e-03
1.750337e+02	-5.591010e-03
1.760446e+02	-5.655741e-03
1.770615e+02	-5.721221e-03
1.780842e+02	-5.787459e-03
1.791128e+02	-5.854463e-03
1.801473e+02	-5.922242e-03
1.811878e+02	-5.990805e-03
1.822344e+02	-6.060162e-03
1.832870e+02	-6.130320e-03
1.843456e+02	-6.201291e-03
1.854104e+02	-6.273082e-03
1.864813e+02	-6.345704e-03
1.875584e+02	-6.419167e-03
1.886418e+02	-6.493479e-03
1.897313e+02	-6.568650e-03
1.908272e+02	-6.644691e-03
1.919294e+02	-6.721612e-03
1.930380e+02	-6.799422e-03
1.941530e+02	-6.878133e-03
1.952744e+02	-6.957754e-03
1.964023e+02	-7.038296e-03
1.975367e+02	-7.119769e-03
1.986777e+02	-7.202185e-03
1.998252e+02	-7.285554e-03
2.009794e+02	-7.369887e-03
2.021403e+02	-7.455196e-03
2.033078e+02	-7.541491e-03
2.044821e+02	-7.628784e-03
2.056632e+02	-7.717087e-03
2.068511e+02	-7.806410e-03
2.080459e+02	-7.896767e-03
2.092475e+02	-7.988169e-03
2.104561e+02	-8.080628e-03
2.116717e+02	-8.174155e-03
2.128943e+02	-8.268765e-03
2.141240e+02	-8.364468e-03
2.153608e+02	-8.461278e-03
2.166047e+02	-8.559207e-03
2.178558e+02	-8.658268e-03
2.191141e+02	-8.758475e-03
2.203797e+02	-8.859840e-03
2.216526e+02	-8.962378e-03
2.229329e+02	-9.066100e-03
2.242205e+02	-9.171022e-03
2.255156e+02	-9.277157e-03
2.268182e+02	-9.384519e-03
2.281283e+02	-9.493122e-03
2.294459e+02	-9.602980e-03
2.307712e+02	-9.714108e-03
2.321041e+02	-9.826521e-03
2.334447e+02	-9.940233e-03
2.347931e+02	-1.005526e-02
2.361493e+02	-1.017162e-02
2.375133e+02	-1.028932e-02
2.388851e+02	-1.040838e-02
2.402649e+02	-1.052881e-02
2.416527e+02	-1.065064e-02
2.430484e+02	-1.077388e-02
2.444523e+02	-1.089854e-02
2.458642e+02	-1.102464e-02
2.472843e+02	-1.115220e-02
2.487126e+02	-1.128123e-02
2.501492e+02	-1.141176e-02
2.515940e+02	-1.154379e-02
2.530472e+02	-1.167735e-02
2.545088e+02	-1.181245e-02
2.559789e+02	-1.194911e-02
2.574574e+02	-1.208735e-02
2.589444e+02	-1.222719e-02
2.604401e+02	-1.236864e-02
2.619444e+02	-1.251173e-02
2.634574e+02	-1.265646e-02
2.649791e+02	-1.280288e-02
2.665096e+02	-1.295098e-02
2.680489e+02	-1.310079e-02
2.695972e+02	-1.325234e-02
2.711544e+02	-1.340563e-02
2.727205e+02	-1.356069e-02
2.742958e+02	-1.371755e-02
2.758801e+02	-1.387622e-02
2.774736e+02	-1.403671e-02
2.790762e+02	-1.419907e-02
2.806882e+02	-1.436329e-02
2.823094e+02	-1.452942e-02
2.839400e+02	-1.469746e-02
2.855800e+02	-1.486744e-02
2.872295e+02	-1.503938e-02
2.888886e+02	-1.521331e-02
2.905572e+02	-1.538925e-02
2.922354e+02	-1.556722e-02
2.939234e+02	-1.574724e-02
2.956211e+02	-1.592934e-02
2.973286e+02	-1.611354e-02
2.990459e+02	-1.629987e-02
3.007732e+02	-1.648835e-02
3.025104e+02	-1.667900e-02
3.042577e+02	-1.687185e-02
3.060151e+02	-1.706693e-02
3.077826e+02	-1.726426e-02
3.095604e+02	-1.746387e-02
3.113484e+02	-1.766578e-02
3.131467e+02	-1.787002e-02
3.149554e+02	-1.807662e-02
3.167746e+02	-1.828560e-02
3.186043e+02	-1.849699e-02
3.204445e+02	-1.871082e-02
3.222954e+02	-1.892711e-02
3.241570e+02	-1.914590e-02
3.260293e+02	-1.936722e-02
3.279124e+02	-1.959109e-02
3.298064e+02	-1.981753e-02
3.317114e+02	-2.004659e-02
3.336273e+02	-2.027829e-02
3.355544e+02	-2.051267e-02
3.374925e+02	-2.074974e-02
3.394418e+02	-2.098955e-02
3.414024e+02	-2.123212e-02
3.433744e+02	-2.147749e-02
3.453577e+02	-2.172569e-02
3.473525e+02	-2.197675e-02
3.493588e+02	-2.223070e-02
3.513766e+02	-2.248758e-02
3.534062e+02	-2.274742e-02
3.554474e+02	-2.301025e-02
3.575005e+02	-2.327612e-02
3.595654e+02	-2.354504e-02
3.616422e+02	-2.381707e-02
3.637311e+02	-2.409223e-02
3.658320e+02	-2.437056e-02
3.679450e+02	-2.465209e-02
3.700702e+02	-2.493687e-02
3.722077e+02	-2.522493e-02
3.743576e+02	-2.551630e-02
3.765199e+02	-2.581104e-02
3.786946e+02	-2.610916e-02
3.808820e+02	-2.641072e-02
3.830819e+02	-2.671575e-02
3.852946e+02	-2.702429e-02
3.875200e+02	-2.733639e-02
3.897583e+02	-2.765208e-02
3.920096e+02	-2.797140e-02
3.942738e+02	-2.829440e-02
3.965511e+02	-2.862111e-02
3.988416e+02	-2.895158e-02
4.011452e+02	-2.928586e-02
4.034622e+02	-2.962399e-02
4.057926e+02	-2.996600e-02
4.081365e+02	-3.031195e-02
4.104938e+02	-3.066188e-02
4.128648e+02	-3.101583e-02
4.152495e+02	-3.137385e-02
4.176480e+02	-3.173600e-02
4.200603e+02	-3.210230e-02
4.224866e+02	-3.247282e-02
4.249268e+02	-3.284760e-02
4.273812e+02	-3.322669e-02
4.298497e+02	-3.361014e-02
4.323325e+02	-3.399799e-02
4.348297e+02	-3.439030e-02
4.373412e+02	-3.478712e-02
4.398673e+02	-3.518850e-02
4.424079e+02	-3.559450e-02
4.449633e+02	-3.600515e-02
4.475334e+02	-3.642053e-02
4.501183e+02	-3.684068e-02
4.527182e+02	-3.726565e-02
4.553330e+02	-3.769550e-02
4.579630e+02	-3.813029e-02
4.606082e+02	-3.857008e-02
4.632687e+02	-3.901491e-02
4.659445e+02	-3.946485e-02
4.686358e+02	-3.991995e-02
4.713426e+02	-4.038028e-02
4.740650e+02	-4.084589e-02
4.768032e+02	-4.131684e-02
4.795572e+02	-4.179320e-02
4.823271e+02	-4.227503e-02
4.851130e+02	-4.276238e-02
4.879150e+02	-4.325532e-02
4.907332e+02	-4.375391e-02
4.935676e+02	-4.425822e-02
4.964185e+02	-4.476832e-02
4.992858e+02	-4.528426e-02
5.021696e+02	-4.580612e-02
5.050701e+02	-4.633396e-02
5.079874e+02	-4.686785e-02
5.109215e+02	-4.740785e-02
5.138726e+02	-4.795405e-02
5.168407e+02	-4.850650e-02
5.198259e+02	-4.906528e-02
5.228284e+02	-4.963046e-02
5.258482e+02	-5.020211e-02
5.288855e+02	-5.078031e-02
5.319403e+02	-5.136513e-02
5.350128e+02	-5.195664e-02
5.381030e+02	-5.255493e-02
5.412111e+02	-5.316006e-02
5.443371e+02	-5.377211e-02
5.474812e+02	-5.439117e-02
5.506434e+02	-5.501731e-02
5.538239e+02	-5.565061e-02
5.570228e+02	-5.629115e-02
5.602401e+02	-5.693902e-02
5.634760e+02	-5.759429e-02
5.667306e+02	-5.825706e-02
5.700040e+02	-5.892740e-02
5.732964e+02	-5.960540e-02
5.766077e+02	-6.029114e-02
5.799382e+02	-6.098472e-02
5.832879e+02	-6.168623e-02
5.866569e+02	-6.239574e-02
5.900454e+02	-6.311335e-02
5.934535e+02	-6.383916e-02
5.968813e+02	-6.457325e-02
6.003288e+02	-6.531572e-02
6.037963e+02	-6.606666e-02
6.072838e+02	-6.682617e-02
6.107914e+02	-6.759434e-02
6.143194e+02	-6.837127e-02
6.178676e+02	-6.915706e-02
6.214364e+02	-6.995181e-02
6.250258e+02	-7.075561e-02
6.286359e+02	-7.156858e-02
6.322669e+02	-7.239081e-02
6.359189e+02	-7.322241e-02
6.395919e+02	-7.406347e-02
6.432862e+02	-7.491412e-02
6.470017e+02	-7.577445e-02
6.507388e+02	-7.664457e-02
6.544974e+02	-7.752459e-02
6.582778e+02	-7.841463e-02
6.620800e+02	-7.931479e-02
6.659041e+02	-8.022519e-02
6.697504e+02	-8.114594e-02
6.736188e+02	-8.207716e-02
6.775096e+02	-8.301896e-02
6.814229e+02	-8.397147e-02
6.853587e+02	-8.493479e-02
6.893173e+02	-8.590906e-02
6.932988e+02	-8.689439e-02
6.973033e+02	-8.789091e-02
7.013309e+02	-8.889874e-02
