Frequency(Hz)	Magnitude(dB)
1.000000e+01	-1.761630e-05
1.005776e+01	-1.782039e-05
1.011585e+01	-1.802684e-05
1.017428e+01	-1.823568e-05
1.023305e+01	-1.844695e-05
1.029215e+01	-1.866066e-05
1.035160e+01	-1.887685e-05
1.041139e+01	-1.909554e-05
1.047153e+01	-1.931677e-05
1.053201e+01	-1.954056e-05
1.059284e+01	-1.976694e-05
1.065403e+01	-1.999595e-05
1.071556e+01	-2.022761e-05
1.077746e+01	-2.046195e-05
1.083971e+01	-2.069900e-05
1.090232e+01	-2.093881e-05
1.096529e+01	-2.118139e-05
1.102862e+01	-2.142678e-05
1.109232e+01	-2.167502e-05
1.115639e+01	-2.192613e-05
1.122083e+01	-2.218015e-05
1.128564e+01	-2.243711e-05
1.135083e+01	-2.269705e-05
1.141639e+01	-2.296000e-05
1.148233e+01	-2.322600e-05
1.154865e+01	-2.349507e-05
1.161536e+01	-2.376727e-05
1.168245e+01	-2.404262e-05
1.174992e+01	-2.432116e-05
1.181779e+01	-2.460293e-05
1.188605e+01	-2.488796e-05
1.195470e+01	-2.517629e-05
1.202375e+01	-2.546796e-05
1.209320e+01	-2.576302e-05
1.216305e+01	-2.606149e-05
1.223330e+01	-2.636342e-05
1.230396e+01	-2.666884e-05
1.237503e+01	-2.697781e-05
1.244651e+01	-2.729035e-05
1.251840e+01	-2.760652e-05
1.259070e+01	-2.792635e-05
1.266343e+01	-2.824988e-05
1.273657e+01	-2.857716e-05
1.281014e+01	-2.890824e-05
1.288413e+01	-2.924314e-05
1.295855e+01	-2.958193e-05
1.303339e+01	-2.992465e-05
1.310867e+01	-3.027133e-05
1.318439e+01	-3.062203e-05
1.326054e+01	-3.097680e-05
1.333713e+01	-3.133567e-05
1.341417e+01	-3.169870e-05
1.349165e+01	-3.206594e-05
1.356958e+01	-3.243743e-05
1.364795e+01	-3.281322e-05
1.372678e+01	-3.319337e-05
1.380607e+01	-3.357793e-05
1.388581e+01	-3.396693e-05
1.396602e+01	-3.436045e-05
1.404668e+01	-3.475852e-05
1.412782e+01	-3.516121e-05
1.420942e+01	-3.556856e-05
1.429149e+01	-3.598063e-05
1.437404e+01	-3.639747e-05
1.445706e+01	-3.681915e-05
1.454057e+01	-3.724570e-05
1.462455e+01	-3.767720e-05
1.470902e+01	-3.811370e-05
1.479398e+01	-3.855526e-05
1.487943e+01	-3.900193e-05
1.496537e+01	-3.945378e-05
1.505181e+01	-3.991086e-05
1.513875e+01	-4.037323e-05
1.522619e+01	-4.084097e-05
1.531414e+01	-4.131412e-05
1.540259e+01	-4.179275e-05
1.549156e+01	-4.227693e-05
1.558103e+01	-4.276672e-05
1.567103e+01	-4.326218e-05
1.576155e+01	-4.376338e-05
1.585258e+01	-4.427039e-05
1.594415e+01	-4.478327e-05
1.603624e+01	-4.530210e-05
1.612886e+01	-4.582693e-05
1.622202e+01	-4.635785e-05
1.631572e+01	-4.689491e-05
1.640996e+01	-4.743820e-05
1.650474e+01	-4.798778e-05
1.660008e+01	-4.854373e-05
1.669596e+01	-4.910612e-05
1.679239e+01	-4.967503e-05
1.688938e+01	-5.025052e-05
1.698694e+01	-5.083268e-05
1.708505e+01	-5.142159e-05
1.718373e+01	-5.201732e-05
1.728299e+01	-5.261995e-05
1.738281e+01	-5.322957e-05
1.748322e+01	-5.384624e-05
1.758420e+01	-5.447006e-05
1.768576e+01	-5.510111e-05
1.778792e+01	-5.573947e-05
1.789066e+01	-5.638522e-05
1.799399e+01	-5.703845e-05
1.809793e+01	-5.769926e-05
1.820246e+01	-5.836771e-05
1.830760e+01	-5.904391e-05
1.841334e+01	-5.972795e-05
1.851969e+01	-6.041991e-05
1.862666e+01	-6.111989e-05
1.873425e+01	-6.182797e-05
1.884246e+01	-6.254426e-05
1.895129e+01	-6.326885e-05
1.906075e+01	-6.400183e-05
1.917085e+01	-6.474331e-05
1.928158e+01	-6.549337e-05
1.939295e+01	-6.625212e-05
1.950496e+01	-6.701967e-05
1.961762e+01	-6.779610e-05
1.973093e+01	-6.858153e-05
1.984490e+01	-6.937606e-05
1.995952e+01	-7.017980e-05
2.007480e+01	-7.099284e-05
2.019076e+01	-7.181531e-05
2.030738e+01	-7.264730e-05
2.042467e+01	-7.348893e-05
2.054264e+01	-7.434032e-05
2.066130e+01	-7.520156e-05
2.078064e+01	-7.607279e-05
2.090066e+01	-7.695410e-05
2.102139e+01	-7.784563e-05
2.114280e+01	-7.874748e-05
2.126492e+01	-7.965979e-05
2.138775e+01	-8.058266e-05
2.151128e+01	-8.151622e-05
2.163553e+01	-8.246060e-05
2.176050e+01	-8.341592e-05
2.188619e+01	-8.438231e-05
2.201260e+01	-8.535989e-05
2.213974e+01	-8.634880e-05
2.226762e+01	-8.734917e-05
2.239624e+01	-8.836112e-05
2.252560e+01	-8.938480e-05
2.265571e+01	-9.042034e-05
2.278656e+01	-9.146787e-05
2.291818e+01	-9.252754e-05
2.305055e+01	-9.359948e-05
2.318369e+01	-9.468385e-05
2.331760e+01	-9.578078e-05
2.345228e+01	-9.689041e-05
2.358774e+01	-9.801290e-05
2.372398e+01	-9.914839e-05
2.386101e+01	-1.002970e-04
2.399883e+01	-1.014590e-04
2.413745e+01	-1.026344e-04
2.427686e+01	-1.038234e-04
2.441709e+01	-1.050263e-04
2.455812e+01	-1.062430e-04
2.469997e+01	-1.074738e-04
2.484263e+01	-1.087189e-04
2.498612e+01	-1.099785e-04
2.513044e+01	-1.112526e-04
2.527559e+01	-1.125415e-04
2.542158e+01	-1.138453e-04
2.556842e+01	-1.151642e-04
2.571610e+01	-1.164984e-04
2.586463e+01	-1.178480e-04
2.601403e+01	-1.192133e-04
2.616428e+01	-1.205944e-04
2.631541e+01	-1.219915e-04
2.646740e+01	-1.234048e-04
2.662028e+01	-1.248344e-04
2.677404e+01	-1.262807e-04
2.692868e+01	-1.277436e-04
2.708422e+01	-1.292236e-04
2.724066e+01	-1.307206e-04
2.739800e+01	-1.322350e-04
2.755625e+01	-1.337670e-04
2.771541e+01	-1.353167e-04
2.787550e+01	-1.368844e-04
2.803650e+01	-1.384702e-04
2.819844e+01	-1.400744e-04
2.836131e+01	-1.416971e-04
2.852513e+01	-1.433387e-04
2.868989e+01	-1.449993e-04
2.885560e+01	-1.466791e-04
2.902227e+01	-1.483784e-04
2.918990e+01	-1.500974e-04
2.935850e+01	-1.518363e-04
2.952807e+01	-1.535953e-04
2.969863e+01	-1.553747e-04
2.987016e+01	-1.571748e-04
3.004269e+01	-1.589956e-04
3.021622e+01	-1.608376e-04
3.039075e+01	-1.627009e-04
3.056628e+01	-1.645858e-04
3.074283e+01	-1.664926e-04
3.092040e+01	-1.684214e-04
3.109900e+01	-1.703726e-04
3.127862e+01	-1.723463e-04
3.145929e+01	-1.743430e-04
3.164099e+01	-1.763628e-04
3.182375e+01	-1.784059e-04
3.200756e+01	-1.804728e-04
3.219244e+01	-1.825635e-04
3.237838e+01	-1.846785e-04
3.256540e+01	-1.868181e-04
3.275349e+01	-1.889823e-04
3.294268e+01	-1.911717e-04
3.313295e+01	-1.933864e-04
3.332433e+01	-1.956268e-04
3.351681e+01	-1.978932e-04
3.371040e+01	-2.001858e-04
3.390511e+01	-2.025049e-04
3.410094e+01	-2.048509e-04
3.429791e+01	-2.072241e-04
3.449601e+01	-2.096248e-04
3.469526e+01	-2.120533e-04
3.489566e+01	-2.145100e-04
3.509721e+01	-2.169951e-04
3.529993e+01	-2.195089e-04
3.550382e+01	-2.220519e-04
3.570889e+01	-2.246244e-04
3.591515e+01	-2.272267e-04
3.612259e+01	-2.298591e-04
3.633123e+01	-2.325220e-04
3.654108e+01	-2.352158e-04
3.675214e+01	-2.379407e-04
3.696442e+01	-2.406973e-04
3.717792e+01	-2.434857e-04
3.739266e+01	-2.463065e-04
3.760864e+01	-2.491600e-04
3.782587e+01	-2.520465e-04
3.804435e+01	-2.549664e-04
3.826409e+01	-2.579202e-04
3.848510e+01	-2.609082e-04
3.870739e+01	-2.639308e-04
3.893096e+01	-2.669884e-04
3.915583e+01	-2.700814e-04
3.938199e+01	-2.732103e-04
3.960946e+01	-2.763754e-04
3.983824e+01	-2.795772e-04
4.006834e+01	-2.828161e-04
4.029978e+01	-2.860924e-04
4.053255e+01	-2.894068e-04
4.076666e+01	-2.927595e-04
4.100213e+01	-2.961511e-04
4.123896e+01	-2.995820e-04
4.147715e+01	-3.030526e-04
4.171672e+01	-3.065634e-04
4.195767e+01	-3.101149e-04
4.220002e+01	-3.137076e-04
4.244377e+01	-3.173418e-04
4.268892e+01	-3.210182e-04
4.293549e+01	-3.247371e-04
4.318348e+01	-3.284992e-04
4.343291e+01	-3.323048e-04
4.368377e+01	-3.361545e-04
4.393609e+01	-3.400488e-04
4.418986e+01	-3.439882e-04
4.444510e+01	-3.479732e-04
4.470182e+01	-3.520044e-04
4.496001e+01	-3.560823e-04
4.521970e+01	-3.602075e-04
4.548089e+01	-3.643804e-04
4.574358e+01	-3.686016e-04
4.600779e+01	-3.728718e-04
4.627353e+01	-3.771915e-04
4.654081e+01	-3.815611e-04
4.680963e+01	-3.859814e-04
4.708000e+01	-3.904529e-04
4.735193e+01	-3.949762e-04
4.762543e+01	-3.995519e-04
4.790051e+01	-4.041806e-04
4.817719e+01	-4.088630e-04
4.845545e+01	-4.135995e-04
4.873533e+01	-4.183910e-04
4.901682e+01	-4.232379e-04
4.929994e+01	-4.281410e-04
4.958470e+01	-4.331009e-04
4.987110e+01	-4.381182e-04
5.015915e+01	-4.431937e-04
5.044887e+01	-4.483279e-04
5.074026e+01	-4.535217e-04
5.103333e+01	-4.587755e-04
5.132810e+01	-4.640903e-04
5.162457e+01	-4.694666e-04
5.192275e+01	-4.749052e-04
5.222265e+01	-4.804068e-04
5.252429e+01	-4.859722e-04
5.282767e+01	-4.916020e-04
5.313280e+01	-4.972970e-04
5.343969e+01	-5.030580e-04
5.374836e+01	-5.088857e-04
5.405880e+01	-5.147809e-04
5.437105e+01	-5.207445e-04
5.468509e+01	-5.267771e-04
5.500095e+01	-5.328795e-04
5.531863e+01	-5.390527e-04
5.563815e+01	-5.452974e-04
5.595951e+01	-5.516144e-04
5.628273e+01	-5.580046e-04
5.660782e+01	-5.644688e-04
5.693479e+01	-5.710079e-04
5.726364e+01	-5.776228e-04
5.759439e+01	-5.843142e-04
5.792705e+01	-5.910832e-04
5.826164e+01	-5.979306e-04
5.859815e+01	-6.048573e-04
5.893662e+01	-6.118643e-04
5.927703e+01	-6.189524e-04
5.961941e+01	-6.261226e-04
5.996377e+01	-6.333759e-04
6.031012e+01	-6.407132e-04
6.065847e+01	-6.481354e-04
6.100883e+01	-6.556437e-04
6.136121e+01	-6.632389e-04
6.171563e+01	-6.709222e-04
6.207210e+01	-6.786944e-04
6.243063e+01	-6.865566e-04
6.279122e+01	-6.945099e-04
6.315390e+01	-7.025553e-04
6.351868e+01	-7.106940e-04
6.388556e+01	-7.189269e-04
6.425456e+01	-7.272552e-04
6.462569e+01	-7.356799e-04
6.499897e+01	-7.442022e-04
6.537440e+01	-7.528233e-04
6.575200e+01	-7.615441e-04
6.613178e+01	-7.703661e-04
6.651375e+01	-7.792902e-04
6.689793e+01	-7.883176e-04
6.728433e+01	-7.974497e-04
6.767297e+01	-8.066875e-04
6.806384e+01	-8.160323e-04
6.845698e+01	-8.254854e-04
6.885238e+01	-8.350479e-04
6.925007e+01	-8.447212e-04
6.965005e+01	-8.545066e-04
7.005235e+01	-8.644053e-04
7.045697e+01	-8.744187e-04
7.086393e+01	-8.845480e-04
7.127323e+01	-8.947947e-04
7.168490e+01	-9.051601e-04
7.209895e+01	-9.156455e-04
7.251539e+01	-9.262523e-04
7.293424e+01	-9.369821e-04
7.335551e+01	-9.478361e-04
7.377920e+01	-9.588158e-04
7.420535e+01	-9.699227e-04
7.463396e+01	-9.811583e-04
7.506504e+01	-9.925240e-04
7.549861e+01	-1.004021e-03
7.593469e+01	-1.015652e-03
7.637328e+01	-1.027417e-03
7.681441e+01	-1.039318e-03
7.725809e+01	-1.051358e-03
7.770433e+01	-1.063537e-03
7.815315e+01	-1.075856e-03
7.860456e+01	-1.088319e-03
7.905857e+01	-1.100926e-03
7.951521e+01	-1.113679e-03
7.997449e+01	-1.126579e-03
8.043642e+01	-1.139629e-03
8.090102e+01	-1.152830e-03
8.136830e+01	-1.166185e-03
8.183828e+01	-1.179693e-03
8.231097e+01	-1.193358e-03
8.278640e+01	-1.207182e-03
8.326457e+01	-1.221165e-03
8.374550e+01	-1.235311e-03
8.422921e+01	-1.249620e-03
8.471572e+01	-1.264095e-03
8.520503e+01	-1.278738e-03
8.569717e+01	-1.293550e-03
8.619215e+01	-1.308534e-03
8.669000e+01	-1.323692e-03
8.719071e+01	-1.339025e-03
8.769432e+01	-1.354535e-03
8.820084e+01	-1.370225e-03
8.871029e+01	-1.386097e-03
8.922267e+01	-1.402153e-03
8.973802e+01	-1.418395e-03
9.025634e+01	-1.434825e-03
9.077766e+01	-1.451445e-03
9.130199e+01	-1.468257e-03
9.182935e+01	-1.485264e-03
9.235975e+01	-1.502469e-03
9.289321e+01	-1.519872e-03
9.342976e+01	-1.537477e-03
9.396941e+01	-1.555286e-03
9.451217e+01	-1.573301e-03
9.505807e+01	-1.591525e-03
9.560712e+01	-1.609960e-03
9.615934e+01	-1.628608e-03
9.671476e+01	-1.647472e-03
9.727338e+01	-1.666555e-03
9.783522e+01	-1.685859e-03
9.840032e+01	-1.705386e-03
9.896867e+01	-1.725139e-03
9.954031e+01	-1.745122e-03
1.001153e+02	-1.765335e-03
1.006935e+02	-1.785783e-03
1.012751e+02	-1.806467e-03
1.018601e+02	-1.827391e-03
1.024484e+02	-1.848558e-03
1.030402e+02	-1.869969e-03
1.036353e+02	-1.891628e-03
1.042339e+02	-1.913539e-03
1.048360e+02	-1.935703e-03
1.054415e+02	-1.958123e-03
1.060505e+02	-1.980803e-03
1.066631e+02	-2.003746e-03
1.072791e+02	-2.026955e-03
1.078988e+02	-2.050432e-03
1.085220e+02	-2.074181e-03
1.091488e+02	-2.098205e-03
1.097793e+02	-2.122507e-03
1.104133e+02	-2.147091e-03
1.110511e+02	-2.171960e-03
1.116925e+02	-2.197116e-03
1.123376e+02	-2.222564e-03
1.129865e+02	-2.248306e-03
1.136391e+02	-2.274346e-03
1.142955e+02	-2.300688e-03
1.149556e+02	-2.327335e-03
1.156196e+02	-2.354291e-03
1.162874e+02	-2.381558e-03
1.169591e+02	-2.409142e-03
1.176347e+02	-2.437044e-03
1.183141e+02	-2.465270e-03
1.189975e+02	-2.493823e-03
1.196848e+02	-2.522706e-03
1.203761e+02	-2.551923e-03
1.210714e+02	-2.581479e-03
1.217707e+02	-2.611378e-03
1.224740e+02	-2.641622e-03
1.231814e+02	-2.672216e-03
1.238929e+02	-2.703165e-03
1.246085e+02	-2.734472e-03
1.253283e+02	-2.766141e-03
1.260522e+02	-2.798178e-03
1.267802e+02	-2.830585e-03
1.275125e+02	-2.863367e-03
1.282490e+02	-2.896529e-03
1.289898e+02	-2.930074e-03
1.297348e+02	-2.964008e-03
1.304842e+02	-2.998335e-03
1.312378e+02	-3.033060e-03
1.319959e+02	-3.068186e-03
1.327583e+02	-3.103719e-03
1.335251e+02	-3.139664e-03
1.342963e+02	-3.176024e-03
1.350720e+02	-3.212805e-03
1.358522e+02	-3.250013e-03
1.366368e+02	-3.287651e-03
1.374260e+02	-3.325724e-03
1.382198e+02	-3.364239e-03
1.390182e+02	-3.403199e-03
1.398211e+02	-3.442610e-03
1.406287e+02	-3.482478e-03
1.414410e+02	-3.522807e-03
1.422579e+02	-3.563603e-03
1.430796e+02	-3.604871e-03
1.439060e+02	-3.646617e-03
1.447372e+02	-3.688846e-03
1.455732e+02	-3.731564e-03
1.464141e+02	-3.774776e-03
1.472597e+02	-3.818488e-03
1.481103e+02	-3.862707e-03
1.489658e+02	-3.907437e-03
1.498262e+02	-3.952685e-03
1.506916e+02	-3.998457e-03
1.515620e+02	-4.044759e-03
1.524374e+02	-4.091596e-03
1.533179e+02	-4.138976e-03
1.542034e+02	-4.186903e-03
1.550941e+02	-4.235386e-03
1.559899e+02	-4.284430e-03
1.568909e+02	-4.334041e-03
1.577971e+02	-4.384227e-03
1.587085e+02	-4.434993e-03
1.596252e+02	-4.486347e-03
1.605472e+02	-4.538296e-03
1.614745e+02	-4.590845e-03
1.624072e+02	-4.644003e-03
1.633453e+02	-4.697776e-03
1.642887e+02	-4.752171e-03
1.652377e+02	-4.807195e-03
1.661921e+02	-4.862857e-03
1.671520e+02	-4.919162e-03
1.681175e+02	-4.976119e-03
1.690885e+02	-5.033735e-03
1.700651e+02	-5.092018e-03
1.710474e+02	-5.150975e-03
1.720354e+02	-5.210615e-03
1.730291e+02	-5.270944e-03
1.740285e+02	-5.331972e-03
1.750337e+02	-5.393706e-03
1.760446e+02	-5.456154e-03
1.770615e+02	-5.519325e-03
1.780842e+02	-5.583226e-03
1.791128e+02	-5.647867e-03
1.801473e+02	-5.713256e-03
1.811878e+02	-5.779401e-03
1.822344e+02	-5.846312e-03
1.832870e+02	-5.913997e-03
1.843456e+02	-5.982465e-03
1.854104e+02	-6.051725e-03
1.864813e+02	-6.121786e-03
1.875584e+02	-6.192658e-03
1.886418e+02	-6.264349e-03
1.897313e+02	-6.336870e-03
1.908272e+02	-6.410230e-03
1.919294e+02	-6.484439e-03
1.930380e+02	-6.559506e-03
1.941530e+02	-6.635441e-03
1.952744e+02	-6.712255e-03
1.964023e+02	-6.789957e-03
1.975367e+02	-6.868558e-03
1.986777e+02	-6.948068e-03
1.998252e+02	-7.028498e-03
2.009794e+02	-7.109858e-03
2.021403e+02	-7.192159e-03
2.033078e+02	-7.275412e-03
2.044821e+02	-7.359628e-03
2.056632e+02	-7.444818e-03
2.068511e+02	-7.530993e-03
2.080459e+02	-7.618165e-03
2.092475e+02	-7.706345e-03
2.104561e+02	-7.795544e-03
2.116717e+02	-7.885776e-03
2.128943e+02	-7.977050e-03
2.141240e+02	-8.069380e-03
2.153608e+02	-8.162778e-03
2.166047e+02	-8.257255e-03
2.178558e+02	-8.352826e-03
2.191141e+02	-8.449501e-03
2.203797e+02	-8.547294e-03
2.216526e+02	-8.646217e-03
2.229329e+02	-8.746285e-03
2.242205e+02	-8.847509e-03
2.255156e+02	-8.949904e-03
2.268182e+02	-9.053482e-03
2.281283e+02	-9.158258e-03
2.294459e+02	-9.264246e-03
2.307712e+02	-9.371458e-03
2.321041e+02	-9.479910e-03
2.334447e+02	-9.589615e-03
2.347931e+02	-9.700589e-03
2.361493e+02	-9.812846e-03
2.375133e+02	-9.926399e-03
2.388851e+02	-1.004127e-02
2.402649e+02	-1.015746e-02
2.416527e+02	-1.027500e-02
2.430484e+02	-1.039389e-02
2.444523e+02	-1.051416e-02
2.458642e+02	-1.063582e-02
2.472843e+02	-1.075889e-02
2.487126e+02	-1.088338e-02
2.501492e+02	-1.100930e-02
2.515940e+02	-1.113668e-02
2.530472e+02	-1.126554e-02
2.545088e+02	-1.139588e-02
2.559789e+02	-1.152773e-02
2.574574e+02	-1.166110e-02
2.589444e+02	-1.179601e-02
2.604401e+02	-1.193248e-02
2.619444e+02	-1.207053e-02
2.634574e+02	-1.221017e-02
2.649791e+02	-1.235143e-02
2.665096e+02	-1.249432e-02
2.680489e+02	-1.263886e-02
2.695972e+02	-1.278506e-02
2.711544e+02	-1.293296e-02
2.727205e+02	-1.308257e-02
2.742958e+02	-1.323390e-02
2.758801e+02	-1.338698e-02
2.774736e+02	-1.354183e-02
2.790762e+02	-1.369847e-02
2.806882e+02	-1.385691e-02
2.823094e+02	-1.401719e-02
2.839400e+02	-1.417932e-02
2.855800e+02	-1.434331e-02
2.872295e+02	-1.450921e-02
2.888886e+02	-1.467701e-02
2.905572e+02	-1.484676e-02
2.922354e+02	-1.501846e-02
2.939234e+02	-1.519215e-02
2.956211e+02	-1.536784e-02
2.973286e+02	-1.554556e-02
2.990459e+02	-1.572534e-02
3.007732e+02	-1.590718e-02
3.025104e+02	-1.609113e-02
3.042577e+02	-1.627720e-02
3.060151e+02	-1.646542e-02
3.077826e+02	-1.665580e-02
3.095604e+02	-1.684839e-02
3.113484e+02	-1.704320e-02
3.131467e+02	-1.724026e-02
3.149554e+02	-1.743959e-02
3.167746e+02	-1.764122e-02
3.186043e+02	-1.784517e-02
3.204445e+02	-1.805148e-02
3.222954e+02	-1.826017e-02
3.241570e+02	-1.847127e-02
3.260293e+02	-1.868480e-02
3.279124e+02	-1.890080e-02
3.298064e+02	-1.911928e-02
3.317114e+02	-1.934029e-02
3.336273e+02	-1.956385e-02
3.355544e+02	-1.978998e-02
3.374925e+02	-2.001872e-02
3.394418e+02	-2.025010e-02
3.414024e+02	-2.048415e-02
3.433744e+02	-2.072089e-02
3.453577e+02	-2.096037e-02
3.473525e+02	-2.120261e-02
3.493588e+02	-2.144764e-02
3.513766e+02	-2.169549e-02
3.534062e+02	-2.194620e-02
3.554474e+02	-2.219980e-02
3.575005e+02	-2.245632e-02
3.595654e+02	-2.271580e-02
3.616422e+02	-2.297827e-02
3.637311e+02	-2.324377e-02
3.658320e+02	-2.351232e-02
3.679450e+02	-2.378397e-02
3.700702e+02	-2.405875e-02
3.722077e+02	-2.433669e-02
3.743576e+02	-2.461783e-02
3.765199e+02	-2.490222e-02
3.786946e+02	-2.518988e-02
3.808820e+02	-2.548085e-02
3.830819e+02	-2.577517e-02
3.852946e+02	-2.607288e-02
3.875200e+02	-2.637402e-02
3.897583e+02	-2.667863e-02
3.920096e+02	-2.698675e-02
3.942738e+02	-2.729841e-02
3.965511e+02	-2.761366e-02
3.988416e+02	-2.793254e-02
4.011452e+02	-2.825509e-02
4.034622e+02	-2.858135e-02
4.057926e+02	-2.891137e-02
4.081365e+02	-2.924518e-02
4.104938e+02	-2.958284e-02
4.128648e+02	-2.992438e-02
4.152495e+02	-3.026985e-02
4.176480e+02	-3.061929e-02
4.200603e+02	-3.097275e-02
4.224866e+02	-3.133028e-02
4.249268e+02	-3.169192e-02
4.273812e+02	-3.205772e-02
4.298497e+02	-3.242773e-02
4.323325e+02	-3.280199e-02
4.348297e+02	-3.318055e-02
4.373412e+02	-3.356347e-02
4.398673e+02	-3.395079e-02
4.424079e+02	-3.434256e-02
4.449633e+02	-3.473883e-02
4.475334e+02	-3.513965e-02
4.501183e+02	-3.554508e-02
4.527182e+02	-3.595517e-02
4.553330e+02	-3.636997e-02
4.579630e+02	-3.678954e-02
4.606082e+02	-3.721392e-02
4.632687e+02	-3.764318e-02
4.659445e+02	-3.807737e-02
4.686358e+02	-3.851655e-02
4.713426e+02	-3.896076e-02
4.740650e+02	-3.941008e-02
4.768032e+02	-3.986456e-02
4.795572e+02	-4.032425e-02
4.823271e+02	-4.078922e-02
4.851130e+02	-4.125952e-02
4.879150e+02	-4.173522e-02
4.907332e+02	-4.221638e-02
4.935676e+02	-4.270305e-02
4.964185e+02	-4.319531e-02
4.992858e+02	-4.369322e-02
5.021696e+02	-4.419683e-02
5.050701e+02	-4.470622e-02
5.079874e+02	-4.522146e-02
5.109215e+02	-4.574259e-02
5.138726e+02	-4.626970e-02
5.168407e+02	-4.680285e-02
5.198259e+02	-4.734212e-02
5.228284e+02	-4.788756e-02
5.258482e+02	-4.843925e-02
5.288855e+02	-4.899726e-02
5.319403e+02	-4.956166e-02
5.350128e+02	-5.013252e-02
5.381030e+02	-5.070992e-02
5.412111e+02	-5.129393e-02
5.443371e+02	-5.188463e-02
5.474812e+02	-5.248209e-02
5.506434e+02	-5.308639e-02
5.538239e+02	-5.369760e-02
5.570228e+02	-5.431580e-02
5.602401e+02	-5.494108e-02
5.634760e+02	-5.557350e-02
5.667306e+02	-5.621316e-02
5.700040e+02	-5.686014e-02
5.732964e+02	-5.751451e-02
5.766077e+02	-5.817636e-02
5.799382e+02	-5.884578e-02
5.832879e+02	-5.952284e-02
5.866569e+02	-6.020765e-02
5.900454e+02	-6.090027e-02
5.934535e+02	-6.160081e-02
5.968813e+02	-6.230934e-02
6.003288e+02	-6.302597e-02
6.037963e+02	-6.375078e-02
6.072838e+02	-6.448386e-02
6.107914e+02	-6.522531e-02
6.143194e+02	-6.597521e-02
6.178676e+02	-6.673368e-02
6.214364e+02	-6.750079e-02
6.250258e+02	-6.827665e-02
6.286359e+02	-6.906136e-02
6.322669e+02	-6.985502e-02
6.359189e+02	-7.065772e-02
6.395919e+02	-7.146957e-02
6.432862e+02	-7.229067e-02
6.470017e+02	-7.312113e-02
6.507388e+02	-7.396104e-02
6.544974e+02	-7.481051e-02
6.582778e+02	-7.566966e-02
6.620800e+02	-7.653859e-02
6.659041e+02	-7.741741e-02
6.697504e+02	-7.830622e-02
6.736188e+02	-7.920515e-02
6.775096e+02	-8.011430e-02
6.814229e+02	-8.103379e-02
6.853587e+02	-8.196373e-02
6.893173e+02	-8.290424e-02
6.932988e+02	-8.385544e-02
6.973033e+02	-8.481745e-02
7.013309e+02	-8.579038e-02
