Frequency(Hz)	Magnitude(dB)
1.000000e+01	-2.076262e+00
1.005776e+01	-2.095469e+00
1.011585e+01	-2.114671e+00
1.017428e+01	-2.133876e+00
1.023305e+01	-2.153576e+00
1.029215e+01	-2.173268e+00
1.035160e+01	-2.192889e+00
1.041139e+01	-2.212755e+00
1.047153e+01	-2.232830e+00
1.053201e+01	-2.252946e+00
1.059284e+01	-2.273319e+00
1.065403e+01	-2.293639e+00
1.071556e+01	-2.314347e+00
1.077746e+01	-2.335028e+00
1.083971e+01	-2.355666e+00
1.090232e+01	-2.376812e+00
1.096529e+01	-2.398033e+00
1.102862e+01	-2.419308e+00
1.109232e+01	-2.441012e+00
1.115639e+01	-2.462438e+00
1.122083e+01	-2.484144e+00
1.128564e+01	-2.506021e+00
1.135083e+01	-2.528196e+00
1.141639e+01	-2.550282e+00
1.148233e+01	-2.572519e+00
1.154865e+01	-2.594802e+00
1.161536e+01	-2.617265e+00
1.168245e+01	-2.640185e+00
1.174992e+01	-2.662916e+00
1.181779e+01	-2.685921e+00
1.188605e+01	-2.709192e+00
1.195470e+01	-2.732385e+00
1.202375e+01	-2.755916e+00
1.209320e+01	-2.779382e+00
1.216305e+01	-2.803321e+00
1.223330e+01	-2.827123e+00
1.230396e+01	-2.850988e+00
1.237503e+01	-2.875162e+00
1.244651e+01	-2.899374e+00
1.251840e+01	-2.924005e+00
1.259070e+01	-2.948571e+00
1.266343e+01	-2.973440e+00
1.273657e+01	-2.997996e+00
1.281014e+01	-3.023036e+00
1.288413e+01	-3.048175e+00
1.295855e+01	-3.073518e+00
1.303339e+01	-3.098891e+00
1.310867e+01	-3.124590e+00
1.318439e+01	-3.150374e+00
1.326054e+01	-3.176371e+00
1.333713e+01	-3.202117e+00
1.341417e+01	-3.228589e+00
1.349165e+01	-3.254930e+00
1.356958e+01	-3.281130e+00
1.364795e+01	-3.307890e+00
1.372678e+01	-3.334801e+00
1.380607e+01	-3.361225e+00
1.388581e+01	-3.388486e+00
1.396602e+01	-3.415577e+00
1.404668e+01	-3.442893e+00
1.412782e+01	-3.470471e+00
1.420942e+01	-3.497989e+00
1.429149e+01	-3.525951e+00
1.437404e+01	-3.553538e+00
1.445706e+01	-3.581494e+00
1.454057e+01	-3.609861e+00
1.462455e+01	-3.637990e+00
1.470902e+01	-3.666597e+00
1.479398e+01	-3.694958e+00
1.487943e+01	-3.723959e+00
1.496537e+01	-3.752828e+00
1.505181e+01	-3.781869e+00
1.513875e+01	-3.810825e+00
1.522619e+01	-3.840185e+00
1.531414e+01	-3.869781e+00
1.540259e+01	-3.899210e+00
1.549156e+01	-3.928850e+00
1.558103e+01	-3.958711e+00
1.567103e+01	-3.988782e+00
1.576155e+01	-4.019009e+00
1.585258e+01	-4.049181e+00
1.594415e+01	-4.079573e+00
1.603624e+01	-4.110214e+00
1.612886e+01	-4.140856e+00
1.622202e+01	-4.171530e+00
1.631572e+01	-4.202448e+00
1.640996e+01	-4.233661e+00
1.650474e+01	-4.264956e+00
1.660008e+01	-4.296231e+00
1.669596e+01	-4.327645e+00
1.679239e+01	-4.359346e+00
1.688938e+01	-4.391111e+00
1.698694e+01	-4.422866e+00
1.708505e+01	-4.455180e+00
1.718373e+01	-4.487180e+00
1.728299e+01	-4.519604e+00
1.738281e+01	-4.552025e+00
1.748322e+01	-4.584686e+00
1.758420e+01	-4.617123e+00
1.768576e+01	-4.649741e+00
1.778792e+01	-4.682783e+00
1.789066e+01	-4.715962e+00
1.799399e+01	-4.749284e+00
1.809793e+01	-4.782425e+00
1.820246e+01	-4.815874e+00
1.830760e+01	-4.849452e+00
1.841334e+01	-4.883275e+00
1.851969e+01	-4.916889e+00
1.862666e+01	-4.951322e+00
1.873425e+01	-4.985300e+00
1.884246e+01	-5.019373e+00
1.895129e+01	-5.053647e+00
1.906075e+01	-5.088251e+00
1.917085e+01	-5.122359e+00
1.928158e+01	-5.157486e+00
1.939295e+01	-5.192224e+00
1.950496e+01	-5.227150e+00
1.961762e+01	-5.262177e+00
1.973093e+01	-5.297520e+00
1.984490e+01	-5.333010e+00
1.995952e+01	-5.368185e+00
2.007480e+01	-5.403997e+00
2.019076e+01	-5.439435e+00
2.030738e+01	-5.475497e+00
2.042467e+01	-5.511226e+00
2.054264e+01	-5.547207e+00
2.066130e+01	-5.583108e+00
2.078064e+01	-5.619598e+00
2.090066e+01	-5.655936e+00
2.102139e+01	-5.692283e+00
2.114280e+01	-5.728947e+00
2.126492e+01	-5.765588e+00
2.138775e+01	-5.802471e+00
2.151128e+01	-5.839599e+00
2.163553e+01	-5.876315e+00
2.176050e+01	-5.913807e+00
2.188619e+01	-5.950873e+00
2.201260e+01	-5.988227e+00
2.213974e+01	-6.025699e+00
2.226762e+01	-6.063336e+00
2.239624e+01	-6.100860e+00
2.252560e+01	-6.138813e+00
2.265571e+01	-6.176667e+00
2.278656e+01	-6.214583e+00
2.291818e+01	-6.252209e+00
2.305055e+01	-6.291399e+00
2.318369e+01	-6.329174e+00
2.331760e+01	-6.367473e+00
2.345228e+01	-6.406394e+00
2.358774e+01	-6.444980e+00
2.372398e+01	-6.483828e+00
2.386101e+01	-6.522923e+00
2.399883e+01	-6.561238e+00
2.413745e+01	-6.600687e+00
2.427686e+01	-6.639850e+00
2.441709e+01	-6.678720e+00
2.455812e+01	-6.718091e+00
2.469997e+01	-6.757331e+00
2.484263e+01	-6.797207e+00
2.498612e+01	-6.836950e+00
2.513044e+01	-6.876262e+00
2.527559e+01	-6.916111e+00
2.542158e+01	-6.956130e+00
2.556842e+01	-6.996506e+00
2.571610e+01	-7.036315e+00
2.586463e+01	-7.076308e+00
2.601403e+01	-7.116874e+00
2.616428e+01	-7.157362e+00
2.631541e+01	-7.197323e+00
2.646740e+01	-7.238243e+00
2.662028e+01	-7.278468e+00
2.677404e+01	-7.319409e+00
2.692868e+01	-7.360542e+00
2.708422e+01	-7.401229e+00
2.724066e+01	-7.442070e+00
2.739800e+01	-7.483247e+00
2.755625e+01	-7.524083e+00
2.771541e+01	-7.565265e+00
2.787550e+01	-7.607082e+00
2.803650e+01	-7.647998e+00
2.819844e+01	-7.689465e+00
2.836131e+01	-7.731316e+00
2.852513e+01	-7.772615e+00
2.868989e+01	-7.814154e+00
2.885560e+01	-7.856160e+00
2.902227e+01	-7.898087e+00
2.918990e+01	-7.939887e+00
2.935850e+01	-7.981986e+00
2.952807e+01	-8.024383e+00
2.969863e+01	-8.066746e+00
2.987016e+01	-8.108518e+00
3.004269e+01	-8.150873e+00
3.021622e+01	-8.193216e+00
3.039075e+01	-8.235500e+00
3.056628e+01	-8.278618e+00
3.074283e+01	-8.321098e+00
3.092040e+01	-8.363493e+00
3.109900e+01	-8.406084e+00
3.127862e+01	-8.449612e+00
3.145929e+01	-8.491961e+00
3.164099e+01	-8.535357e+00
3.182375e+01	-8.578250e+00
3.200756e+01	-8.621530e+00
3.219244e+01	-8.664323e+00
3.237838e+01	-8.707867e+00
3.256540e+01	-8.751254e+00
3.275349e+01	-8.794776e+00
3.294268e+01	-8.838520e+00
3.313295e+01	-8.881121e+00
3.332433e+01	-8.925171e+00
3.351681e+01	-8.969094e+00
3.371040e+01	-9.012798e+00
3.390511e+01	-9.056384e+00
3.410094e+01	-9.099556e+00
3.429791e+01	-9.143877e+00
3.449601e+01	-9.187526e+00
3.469526e+01	-9.232007e+00
3.489566e+01	-9.275754e+00
3.509721e+01	-9.319952e+00
3.529993e+01	-9.364166e+00
3.550382e+01	-9.408205e+00
3.570889e+01	-9.453019e+00
3.591515e+01	-9.497805e+00
3.612259e+01	-9.541714e+00
3.633123e+01	-9.586362e+00
3.654108e+01	-9.631235e+00
3.675214e+01	-9.675629e+00
3.696442e+01	-9.720528e+00
3.717792e+01	-9.764735e+00
3.739266e+01	-9.809873e+00
3.760864e+01	-9.854640e+00
3.782587e+01	-9.899223e+00
3.804435e+01	-9.943814e+00
3.826409e+01	-9.989334e+00
3.848510e+01	-1.003426e+01
3.870739e+01	-1.007923e+01
3.893096e+01	-1.012497e+01
3.915583e+01	-1.017023e+01
3.938199e+01	-1.021437e+01
3.960946e+01	-1.026045e+01
3.983824e+01	-1.030594e+01
4.006834e+01	-1.035071e+01
4.029978e+01	-1.039637e+01
4.053255e+01	-1.044198e+01
4.076666e+01	-1.048742e+01
4.100213e+01	-1.053290e+01
4.123896e+01	-1.057855e+01
4.147715e+01	-1.062414e+01
4.171672e+01	-1.066965e+01
4.195767e+01	-1.071654e+01
4.220002e+01	-1.076146e+01
4.244377e+01	-1.080760e+01
4.268892e+01	-1.085390e+01
4.293549e+01	-1.089892e+01
4.318348e+01	-1.094570e+01
4.343291e+01	-1.099140e+01
4.368377e+01	-1.103721e+01
4.393609e+01	-1.108301e+01
4.418986e+01	-1.112955e+01
4.444510e+01	-1.117530e+01
4.470182e+01	-1.122217e+01
4.496001e+01	-1.126813e+01
4.521970e+01	-1.131488e+01
4.548089e+01	-1.136056e+01
4.574358e+01	-1.140708e+01
4.600779e+01	-1.145399e+01
4.627353e+01	-1.149982e+01
4.654081e+01	-1.154661e+01
4.680963e+01	-1.159298e+01
4.708000e+01	-1.163973e+01
4.735193e+01	-1.168687e+01
4.762543e+01	-1.173255e+01
4.790051e+01	-1.177926e+01
4.817719e+01	-1.182738e+01
4.845545e+01	-1.187258e+01
4.873533e+01	-1.191970e+01
4.901682e+01	-1.196685e+01
4.929994e+01	-1.201381e+01
4.958470e+01	-1.206119e+01
4.987110e+01	-1.210787e+01
5.015915e+01	-1.215459e+01
5.044887e+01	-1.220145e+01
5.074026e+01	-1.224859e+01
5.103333e+01	-1.229539e+01
5.132810e+01	-1.234205e+01
5.162457e+01	-1.238989e+01
5.192275e+01	-1.243722e+01
5.222265e+01	-1.248448e+01
5.252429e+01	-1.253141e+01
5.282767e+01	-1.257859e+01
5.313280e+01	-1.262628e+01
5.343969e+01	-1.267311e+01
5.374836e+01	-1.272040e+01
5.405880e+01	-1.276835e+01
5.437105e+01	-1.281541e+01
5.468509e+01	-1.286289e+01
5.500095e+01	-1.291047e+01
5.531863e+01	-1.295722e+01
5.563815e+01	-1.300507e+01
5.595951e+01	-1.305253e+01
5.628273e+01	-1.310028e+01
5.660782e+01	-1.314774e+01
5.693479e+01	-1.319546e+01
5.726364e+01	-1.324289e+01
5.759439e+01	-1.329128e+01
5.792705e+01	-1.333894e+01
5.826164e+01	-1.338630e+01
5.859815e+01	-1.343383e+01
5.893662e+01	-1.348145e+01
5.927703e+01	-1.352946e+01
5.961941e+01	-1.357677e+01
5.996377e+01	-1.362515e+01
6.031012e+01	-1.367243e+01
6.065847e+01	-1.372068e+01
6.100883e+01	-1.376878e+01
6.136121e+01	-1.381593e+01
6.171563e+01	-1.386497e+01
6.207210e+01	-1.391246e+01
6.243063e+01	-1.396044e+01
6.279122e+01	-1.400904e+01
6.315390e+01	-1.405660e+01
6.351868e+01	-1.410573e+01
6.388556e+01	-1.415406e+01
6.425456e+01	-1.420123e+01
6.462569e+01	-1.424932e+01
6.499897e+01	-1.429842e+01
6.537440e+01	-1.434557e+01
6.575200e+01	-1.439429e+01
6.613178e+01	-1.444126e+01
6.651375e+01	-1.449059e+01
6.689793e+01	-1.453795e+01
6.728433e+01	-1.458758e+01
6.767297e+01	-1.463587e+01
6.806384e+01	-1.468368e+01
6.845698e+01	-1.473134e+01
6.885238e+01	-1.477963e+01
6.925007e+01	-1.482878e+01
6.965005e+01	-1.487735e+01
7.005235e+01	-1.492567e+01
7.045697e+01	-1.497329e+01
7.086393e+01	-1.502196e+01
7.127323e+01	-1.506990e+01
7.168490e+01	-1.511914e+01
7.209895e+01	-1.516827e+01
7.251539e+01	-1.521666e+01
7.293424e+01	-1.526535e+01
7.335551e+01	-1.531400e+01
7.377920e+01	-1.536236e+01
7.420535e+01	-1.541032e+01
7.463396e+01	-1.545862e+01
7.506504e+01	-1.550831e+01
7.549861e+01	-1.555630e+01
7.593469e+01	-1.560535e+01
7.637328e+01	-1.565330e+01
7.681441e+01	-1.570207e+01
7.725809e+01	-1.575122e+01
7.770433e+01	-1.579912e+01
7.815315e+01	-1.584938e+01
7.860456e+01	-1.589633e+01
7.905857e+01	-1.594679e+01
7.951521e+01	-1.599485e+01
7.997449e+01	-1.604359e+01
8.043642e+01	-1.609163e+01
8.090102e+01	-1.614015e+01
8.136830e+01	-1.618981e+01
8.183828e+01	-1.623863e+01
8.231097e+01	-1.628704e+01
8.278640e+01	-1.633575e+01
8.326457e+01	-1.638444e+01
8.374550e+01	-1.643426e+01
8.422921e+01	-1.648363e+01
8.471572e+01	-1.653212e+01
8.520503e+01	-1.657956e+01
8.569717e+01	-1.663079e+01
8.619215e+01	-1.667907e+01
8.669000e+01	-1.672871e+01
8.719071e+01	-1.677702e+01
8.769432e+01	-1.682594e+01
8.820084e+01	-1.687485e+01
8.871029e+01	-1.692325e+01
8.922267e+01	-1.697190e+01
8.973802e+01	-1.702187e+01
9.025634e+01	-1.707078e+01
9.077766e+01	-1.712012e+01
9.130199e+01	-1.716934e+01
9.182935e+01	-1.721802e+01
9.235975e+01	-1.726569e+01
9.289321e+01	-1.731691e+01
9.342976e+01	-1.736604e+01
9.396941e+01	-1.741458e+01
9.451217e+01	-1.746306e+01
9.505807e+01	-1.751277e+01
9.560712e+01	-1.756266e+01
9.615934e+01	-1.761115e+01
9.671476e+01	-1.766058e+01
9.727338e+01	-1.770886e+01
9.783522e+01	-1.775750e+01
9.840032e+01	-1.780794e+01
9.896867e+01	-1.785659e+01
9.954031e+01	-1.790604e+01
1.001153e+02	-1.795486e+01
1.006935e+02	-1.800538e+01
1.012751e+02	-1.805385e+01
1.018601e+02	-1.810421e+01
1.024484e+02	-1.815244e+01
1.030402e+02	-1.820206e+01
1.036353e+02	-1.825162e+01
1.042339e+02	-1.830082e+01
1.048360e+02	-1.835020e+01
1.054415e+02	-1.839938e+01
1.060505e+02	-1.844880e+01
1.066631e+02	-1.849666e+01
1.072791e+02	-1.854667e+01
1.078988e+02	-1.859539e+01
1.085220e+02	-1.864510e+01
1.091488e+02	-1.869545e+01
1.097793e+02	-1.874379e+01
1.104133e+02	-1.879342e+01
1.110511e+02	-1.884301e+01
1.116925e+02	-1.889209e+01
1.123376e+02	-1.894166e+01
1.129865e+02	-1.899128e+01
1.136391e+02	-1.904023e+01
1.142955e+02	-1.908994e+01
1.149556e+02	-1.913975e+01
1.156196e+02	-1.918751e+01
1.162874e+02	-1.923833e+01
1.169591e+02	-1.928839e+01
1.176347e+02	-1.933700e+01
1.183141e+02	-1.938612e+01
1.189975e+02	-1.943591e+01
1.196848e+02	-1.948572e+01
1.203761e+02	-1.953413e+01
1.210714e+02	-1.958518e+01
1.217707e+02	-1.963235e+01
1.224740e+02	-1.968150e+01
1.231814e+02	-1.973272e+01
1.238929e+02	-1.978223e+01
1.246085e+02	-1.983110e+01
1.253283e+02	-1.988220e+01
1.260522e+02	-1.993181e+01
1.267802e+02	-1.998043e+01
1.275125e+02	-2.002875e+01
1.282490e+02	-2.007953e+01
1.289898e+02	-2.012933e+01
1.297348e+02	-2.017890e+01
1.304842e+02	-2.022871e+01
1.312378e+02	-2.027805e+01
1.319959e+02	-2.032791e+01
1.327583e+02	-2.037747e+01
1.335251e+02	-2.042679e+01
1.342963e+02	-2.047758e+01
1.350720e+02	-2.052512e+01
1.358522e+02	-2.057670e+01
1.366368e+02	-2.062329e+01
1.374260e+02	-2.067435e+01
1.382198e+02	-2.072389e+01
1.390182e+02	-2.077266e+01
1.398211e+02	-2.082409e+01
1.406287e+02	-2.087362e+01
1.414410e+02	-2.092344e+01
1.422579e+02	-2.097341e+01
1.430796e+02	-2.102077e+01
1.439060e+02	-2.107178e+01
1.447372e+02	-2.112001e+01
1.455732e+02	-2.117149e+01
1.464141e+02	-2.121907e+01
1.472597e+02	-2.127084e+01
1.481103e+02	-2.132030e+01
1.489658e+02	-2.137200e+01
1.498262e+02	-2.141789e+01
1.506916e+02	-2.146882e+01
1.515620e+02	-2.151800e+01
1.524374e+02	-2.156800e+01
1.533179e+02	-2.161669e+01
1.542034e+02	-2.166777e+01
1.550941e+02	-2.171699e+01
1.559899e+02	-2.176713e+01
1.568909e+02	-2.181796e+01
1.577971e+02	-2.186735e+01
1.587085e+02	-2.191413e+01
1.596252e+02	-2.196772e+01
1.605472e+02	-2.201638e+01
1.614745e+02	-2.206415e+01
1.624072e+02	-2.211470e+01
1.633453e+02	-2.216349e+01
1.642887e+02	-2.221545e+01
1.652377e+02	-2.226558e+01
1.661921e+02	-2.231377e+01
1.671520e+02	-2.236594e+01
1.681175e+02	-2.241350e+01
1.690885e+02	-2.246434e+01
1.700651e+02	-2.251205e+01
1.710474e+02	-2.256082e+01
1.720354e+02	-2.261181e+01
1.730291e+02	-2.266273e+01
1.740285e+02	-2.271169e+01
1.750337e+02	-2.275926e+01
1.760446e+02	-2.281182e+01
1.770615e+02	-2.286208e+01
1.780842e+02	-2.291130e+01
1.791128e+02	-2.296050e+01
1.801473e+02	-2.301221e+01
1.811878e+02	-2.305938e+01
1.822344e+02	-2.311054e+01
1.832870e+02	-2.316177e+01
1.843456e+02	-2.320999e+01
1.854104e+02	-2.326003e+01
1.864813e+02	-2.331134e+01
1.875584e+02	-2.336029e+01
1.886418e+02	-2.341087e+01
1.897313e+02	-2.346111e+01
1.908272e+02	-2.350587e+01
1.919294e+02	-2.355954e+01
1.930380e+02	-2.360675e+01
1.941530e+02	-2.365628e+01
1.952744e+02	-2.370687e+01
1.964023e+02	-2.375730e+01
1.975367e+02	-2.380827e+01
1.986777e+02	-2.385749e+01
1.998252e+02	-2.390722e+01
2.009794e+02	-2.395734e+01
2.021403e+02	-2.400810e+01
2.033078e+02	-2.406011e+01
2.044821e+02	-2.410847e+01
2.056632e+02	-2.415775e+01
2.068511e+02	-2.420828e+01
2.080459e+02	-2.425673e+01
2.092475e+02	-2.430364e+01
2.104561e+02	-2.435836e+01
2.116717e+02	-2.440512e+01
2.128943e+02	-2.445401e+01
2.141240e+02	-2.450423e+01
2.153608e+02	-2.455705e+01
2.166047e+02	-2.460761e+01
2.178558e+02	-2.465814e+01
2.191141e+02	-2.470755e+01
2.203797e+02	-2.475553e+01
2.216526e+02	-2.480780e+01
2.229329e+02	-2.485561e+01
2.242205e+02	-2.490781e+01
2.255156e+02	-2.495820e+01
2.268182e+02	-2.500646e+01
2.281283e+02	-2.505689e+01
2.294459e+02	-2.510526e+01
2.307712e+02	-2.515512e+01
2.321041e+02	-2.520685e+01
2.334447e+02	-2.525609e+01
2.347931e+02	-2.530451e+01
2.361493e+02	-2.535491e+01
2.375133e+02	-2.540522e+01
2.388851e+02	-2.545605e+01
2.402649e+02	-2.550375e+01
2.416527e+02	-2.555167e+01
2.430484e+02	-2.560258e+01
2.444523e+02	-2.565176e+01
2.458642e+02	-2.570154e+01
2.472843e+02	-2.575231e+01
2.487126e+02	-2.579909e+01
2.501492e+02	-2.585376e+01
2.515940e+02	-2.590717e+01
2.530472e+02	-2.595190e+01
2.545088e+02	-2.600230e+01
2.559789e+02	-2.605394e+01
2.574574e+02	-2.610194e+01
2.589444e+02	-2.615282e+01
2.604401e+02	-2.620372e+01
2.619444e+02	-2.625561e+01
2.634574e+02	-2.630395e+01
2.649791e+02	-2.635724e+01
2.665096e+02	-2.640696e+01
2.680489e+02	-2.645563e+01
2.695972e+02	-2.650733e+01
2.711544e+02	-2.655454e+01
2.727205e+02	-2.660483e+01
2.742958e+02	-2.665218e+01
2.758801e+02	-2.670371e+01
2.774736e+02	-2.675238e+01
2.790762e+02	-2.680368e+01
2.806882e+02	-2.685442e+01
2.823094e+02	-2.690394e+01
2.839400e+02	-2.694941e+01
2.855800e+02	-2.700460e+01
2.872295e+02	-2.705350e+01
2.888886e+02	-2.710438e+01
2.905572e+02	-2.715472e+01
2.922354e+02	-2.720521e+01
2.939234e+02	-2.725337e+01
2.956211e+02	-2.730233e+01
2.973286e+02	-2.735446e+01
2.990459e+02	-2.740380e+01
3.007732e+02	-2.745182e+01
3.025104e+02	-2.750175e+01
3.042577e+02	-2.755243e+01
3.060151e+02	-2.760570e+01
3.077826e+02	-2.765015e+01
3.095604e+02	-2.770488e+01
3.113484e+02	-2.775178e+01
3.131467e+02	-2.780532e+01
3.149554e+02	-2.785498e+01
3.167746e+02	-2.790491e+01
3.186043e+02	-2.795305e+01
3.204445e+02	-2.800467e+01
3.222954e+02	-2.805181e+01
3.241570e+02	-2.810333e+01
3.260293e+02	-2.815376e+01
3.279124e+02	-2.820617e+01
3.298064e+02	-2.825534e+01
3.317114e+02	-2.830513e+01
3.336273e+02	-2.835810e+01
3.355544e+02	-2.840531e+01
3.374925e+02	-2.845597e+01
3.394418e+02	-2.850164e+01
3.414024e+02	-2.855267e+01
3.433744e+02	-2.860004e+01
3.453577e+02	-2.865380e+01
3.473525e+02	-2.870041e+01
3.493588e+02	-2.875748e+01
3.513766e+02	-2.880614e+01
3.534062e+02	-2.885213e+01
3.554474e+02	-2.890729e+01
3.575005e+02	-2.895402e+01
3.595654e+02	-2.900304e+01
3.616422e+02	-2.905803e+01
3.637311e+02	-2.910378e+01
3.658320e+02	-2.915550e+01
3.679450e+02	-2.920839e+01
3.700702e+02	-2.925707e+01
3.722077e+02	-2.930895e+01
3.743576e+02	-2.935145e+01
3.765199e+02	-2.940422e+01
3.786946e+02	-2.945927e+01
3.808820e+02	-2.950547e+01
3.830819e+02	-2.955523e+01
3.852946e+02	-2.960544e+01
3.875200e+02	-2.965386e+01
3.897583e+02	-2.970190e+01
3.920096e+02	-2.976104e+01
3.942738e+02	-2.980427e+01
3.965511e+02	-2.985446e+01
3.988416e+02	-2.990334e+01
4.011452e+02	-2.995745e+01
4.034622e+02	-3.000701e+01
4.057926e+02	-3.006007e+01
4.081365e+02	-3.010743e+01
4.104938e+02	-3.015287e+01
4.128648e+02	-3.020376e+01
4.152495e+02	-3.025075e+01
4.176480e+02	-3.030986e+01
4.200603e+02	-3.035525e+01
4.224866e+02	-3.040763e+01
4.249268e+02	-3.046001e+01
4.273812e+02	-3.050499e+01
4.298497e+02	-3.055543e+01
4.323325e+02	-3.060710e+01
4.348297e+02	-3.065895e+01
4.373412e+02	-3.070598e+01
4.398673e+02	-3.075241e+01
4.424079e+02	-3.081011e+01
4.449633e+02	-3.086459e+01
4.475334e+02	-3.091008e+01
4.501183e+02	-3.095821e+01
4.527182e+02	-3.101205e+01
4.553330e+02	-3.105611e+01
4.579630e+02	-3.110868e+01
4.606082e+02	-3.115953e+01
4.632687e+02	-3.120826e+01
4.659445e+02	-3.125724e+01
4.686358e+02	-3.130965e+01
4.713426e+02	-3.135816e+01
4.740650e+02	-3.140889e+01
4.768032e+02	-3.145540e+01
4.795572e+02	-3.150946e+01
4.823271e+02	-3.156191e+01
4.851130e+02	-3.160893e+01
4.879150e+02	-3.166200e+01
4.907332e+02	-3.171592e+01
4.935676e+02	-3.176117e+01
4.964185e+02	-3.181006e+01
4.992858e+02	-3.186217e+01
5.021696e+02	-3.191271e+01
5.050701e+02	-3.195682e+01
5.079874e+02	-3.201215e+01
5.109215e+02	-3.205767e+01
5.138726e+02	-3.211320e+01
5.168407e+02	-3.215555e+01
5.198259e+02	-3.221629e+01
5.228284e+02	-3.226420e+01
5.258482e+02	-3.231089e+01
5.288855e+02	-3.236781e+01
5.319403e+02	-3.241133e+01
5.350128e+02	-3.246741e+01
5.381030e+02	-3.251729e+01
5.412111e+02	-3.256309e+01
5.443371e+02	-3.261375e+01
5.474812e+02	-3.266004e+01
5.506434e+02	-3.271562e+01
5.538239e+02	-3.276646e+01
5.570228e+02	-3.282005e+01
5.602401e+02	-3.286648e+01
5.634760e+02	-3.290940e+01
5.667306e+02	-3.296267e+01
5.700040e+02	-3.301665e+01
5.732964e+02	-3.306959e+01
5.766077e+02	-3.311780e+01
5.799382e+02	-3.316975e+01
5.832879e+02	-3.321970e+01
5.866569e+02	-3.326779e+01
5.900454e+02	-3.332386e+01
5.934535e+02	-3.337201e+01
5.968813e+02	-3.341806e+01
6.003288e+02	-3.346062e+01
6.037963e+02	-3.351845e+01
6.072838e+02	-3.357081e+01
6.107914e+02	-3.362207e+01
6.143194e+02	-3.366552e+01
6.178676e+02	-3.372641e+01
6.214364e+02	-3.376119e+01
6.250258e+02	-3.382048e+01
6.286359e+02	-3.387524e+01
6.322669e+02	-3.392535e+01
6.359189e+02	-3.396651e+01
6.395919e+02	-3.402723e+01
6.432862e+02	-3.406919e+01
6.470017e+02	-3.412380e+01
6.507388e+02	-3.416158e+01
6.544974e+02	-3.422793e+01
6.582778e+02	-3.427382e+01
6.620800e+02	-3.432866e+01
6.659041e+02	-3.437224e+01
6.697504e+02	-3.443118e+01
6.736188e+02	-3.447613e+01
6.775096e+02	-3.453125e+01
6.814229e+02	-3.457662e+01
6.853587e+02	-3.462253e+01
6.893173e+02	-3.467874e+01
6.932988e+02	-3.473126e+01
6.973033e+02	-3.477782e+01
7.013309e+02	-3.481912e+01
