Frequency(Hz)	Magnitude(dB)
1.000000e+01	-1.608630e-05
1.005776e+01	-1.627266e-05
1.011585e+01	-1.646118e-05
1.017428e+01	-1.665189e-05
1.023305e+01	-1.684481e-05
1.029215e+01	-1.703996e-05
1.035160e+01	-1.723737e-05
1.041139e+01	-1.743707e-05
1.047153e+01	-1.763908e-05
1.053201e+01	-1.784344e-05
1.059284e+01	-1.805016e-05
1.065403e+01	-1.825927e-05
1.071556e+01	-1.847081e-05
1.077746e+01	-1.868480e-05
1.083971e+01	-1.890127e-05
1.090232e+01	-1.912025e-05
1.096529e+01	-1.934176e-05
1.102862e+01	-1.956584e-05
1.109232e+01	-1.979251e-05
1.115639e+01	-2.002181e-05
1.122083e+01	-2.025377e-05
1.128564e+01	-2.048842e-05
1.135083e+01	-2.072578e-05
1.141639e+01	-2.096589e-05
1.148233e+01	-2.120879e-05
1.154865e+01	-2.145450e-05
1.161536e+01	-2.170305e-05
1.168245e+01	-2.195449e-05
1.174992e+01	-2.220884e-05
1.181779e+01	-2.246613e-05
1.188605e+01	-2.272641e-05
1.195470e+01	-2.298970e-05
1.202375e+01	-2.325604e-05
1.209320e+01	-2.352547e-05
1.216305e+01	-2.379802e-05
1.223330e+01	-2.407372e-05
1.230396e+01	-2.435262e-05
1.237503e+01	-2.463475e-05
1.244651e+01	-2.492015e-05
1.251840e+01	-2.520886e-05
1.259070e+01	-2.550091e-05
1.266343e+01	-2.579634e-05
1.273657e+01	-2.609520e-05
1.281014e+01	-2.639752e-05
1.288413e+01	-2.670334e-05
1.295855e+01	-2.701271e-05
1.303339e+01	-2.732566e-05
1.310867e+01	-2.764223e-05
1.318439e+01	-2.796247e-05
1.326054e+01	-2.828642e-05
1.333713e+01	-2.861413e-05
1.341417e+01	-2.894563e-05
1.349165e+01	-2.928097e-05
1.356958e+01	-2.962020e-05
1.364795e+01	-2.996336e-05
1.372678e+01	-3.031049e-05
1.380607e+01	-3.066164e-05
1.388581e+01	-3.101687e-05
1.396602e+01	-3.137620e-05
1.404668e+01	-3.173971e-05
1.412782e+01	-3.210742e-05
1.420942e+01	-3.247939e-05
1.429149e+01	-3.285567e-05
1.437404e+01	-3.323631e-05
1.445706e+01	-3.362136e-05
1.454057e+01	-3.401087e-05
1.462455e+01	-3.440490e-05
1.470902e+01	-3.480349e-05
1.479398e+01	-3.520669e-05
1.487943e+01	-3.561457e-05
1.496537e+01	-3.602717e-05
1.505181e+01	-3.644456e-05
1.513875e+01	-3.686678e-05
1.522619e+01	-3.729389e-05
1.531414e+01	-3.772594e-05
1.540259e+01	-3.816301e-05
1.549156e+01	-3.860513e-05
1.558103e+01	-3.905238e-05
1.567103e+01	-3.950481e-05
1.576155e+01	-3.996249e-05
1.585258e+01	-4.042546e-05
1.594415e+01	-4.089380e-05
1.603624e+01	-4.136756e-05
1.612886e+01	-4.184682e-05
1.622202e+01	-4.233162e-05
1.631572e+01	-4.282204e-05
1.640996e+01	-4.331814e-05
1.650474e+01	-4.381999e-05
1.660008e+01	-4.432766e-05
1.669596e+01	-4.484120e-05
1.679239e+01	-4.536070e-05
1.688938e+01	-4.588621e-05
1.698694e+01	-4.641782e-05
1.708505e+01	-4.695558e-05
1.718373e+01	-4.749957e-05
1.728299e+01	-4.804986e-05
1.738281e+01	-4.860653e-05
1.748322e+01	-4.916964e-05
1.758420e+01	-4.973928e-05
1.768576e+01	-5.031552e-05
1.778792e+01	-5.089844e-05
1.789066e+01	-5.148811e-05
1.799399e+01	-5.208461e-05
1.809793e+01	-5.268802e-05
1.820246e+01	-5.329842e-05
1.830760e+01	-5.391590e-05
1.841334e+01	-5.454052e-05
1.851969e+01	-5.517239e-05
1.862666e+01	-5.581157e-05
1.873425e+01	-5.645816e-05
1.884246e+01	-5.711224e-05
1.895129e+01	-5.777389e-05
1.906075e+01	-5.844322e-05
1.917085e+01	-5.912029e-05
1.928158e+01	-5.980521e-05
1.939295e+01	-6.049807e-05
1.950496e+01	-6.119895e-05
1.961762e+01	-6.190795e-05
1.973093e+01	-6.262517e-05
1.984490e+01	-6.335069e-05
1.995952e+01	-6.408462e-05
2.007480e+01	-6.482706e-05
2.019076e+01	-6.557809e-05
2.030738e+01	-6.633783e-05
2.042467e+01	-6.710636e-05
2.054264e+01	-6.788380e-05
2.066130e+01	-6.867025e-05
2.078064e+01	-6.946581e-05
2.090066e+01	-7.027058e-05
2.102139e+01	-7.108468e-05
2.114280e+01	-7.190821e-05
2.126492e+01	-7.274128e-05
2.138775e+01	-7.358400e-05
2.151128e+01	-7.443648e-05
2.163553e+01	-7.529884e-05
2.176050e+01	-7.617119e-05
2.188619e+01	-7.705365e-05
2.201260e+01	-7.794633e-05
2.213974e+01	-7.884935e-05
2.226762e+01	-7.976283e-05
2.239624e+01	-8.068690e-05
2.252560e+01	-8.162167e-05
2.265571e+01	-8.256727e-05
2.278656e+01	-8.352383e-05
2.291818e+01	-8.449147e-05
2.305055e+01	-8.547031e-05
2.318369e+01	-8.646050e-05
2.331760e+01	-8.746216e-05
2.345228e+01	-8.847542e-05
2.358774e+01	-8.950043e-05
2.372398e+01	-9.053730e-05
2.386101e+01	-9.158619e-05
2.399883e+01	-9.264723e-05
2.413745e+01	-9.372056e-05
2.427686e+01	-9.480633e-05
2.441709e+01	-9.590468e-05
2.455812e+01	-9.701575e-05
2.469997e+01	-9.813969e-05
2.484263e+01	-9.927665e-05
2.498612e+01	-1.004268e-04
2.513044e+01	-1.015902e-04
2.527559e+01	-1.027672e-04
2.542158e+01	-1.039578e-04
2.556842e+01	-1.051621e-04
2.571610e+01	-1.063804e-04
2.586463e+01	-1.076129e-04
2.601403e+01	-1.088596e-04
2.616428e+01	-1.101207e-04
2.631541e+01	-1.113965e-04
2.646740e+01	-1.126870e-04
2.662028e+01	-1.139925e-04
2.677404e+01	-1.153131e-04
2.692868e+01	-1.166491e-04
2.708422e+01	-1.180005e-04
2.724066e+01	-1.193675e-04
2.739800e+01	-1.207504e-04
2.755625e+01	-1.221493e-04
2.771541e+01	-1.235644e-04
2.787550e+01	-1.249959e-04
2.803650e+01	-1.264440e-04
2.819844e+01	-1.279089e-04
2.836131e+01	-1.293907e-04
2.852513e+01	-1.308897e-04
2.868989e+01	-1.324061e-04
2.885560e+01	-1.339400e-04
2.902227e+01	-1.354917e-04
2.918990e+01	-1.370614e-04
2.935850e+01	-1.386493e-04
2.952807e+01	-1.402556e-04
2.969863e+01	-1.418804e-04
2.987016e+01	-1.435241e-04
3.004269e+01	-1.451869e-04
3.021622e+01	-1.468689e-04
3.039075e+01	-1.485704e-04
3.056628e+01	-1.502916e-04
3.074283e+01	-1.520327e-04
3.092040e+01	-1.537940e-04
3.109900e+01	-1.555757e-04
3.127862e+01	-1.573781e-04
3.145929e+01	-1.592013e-04
3.164099e+01	-1.610457e-04
3.182375e+01	-1.629114e-04
3.200756e+01	-1.647987e-04
3.219244e+01	-1.667079e-04
3.237838e+01	-1.686393e-04
3.256540e+01	-1.705930e-04
3.275349e+01	-1.725693e-04
3.294268e+01	-1.745685e-04
3.313295e+01	-1.765909e-04
3.332433e+01	-1.786367e-04
3.351681e+01	-1.807062e-04
3.371040e+01	-1.827997e-04
3.390511e+01	-1.849174e-04
3.410094e+01	-1.870597e-04
3.429791e+01	-1.892268e-04
3.449601e+01	-1.914190e-04
3.469526e+01	-1.936366e-04
3.489566e+01	-1.958799e-04
3.509721e+01	-1.981492e-04
3.529993e+01	-2.004447e-04
3.550382e+01	-2.027669e-04
3.570889e+01	-2.051159e-04
3.591515e+01	-2.074922e-04
3.612259e+01	-2.098960e-04
3.633123e+01	-2.123276e-04
3.654108e+01	-2.147874e-04
3.675214e+01	-2.172758e-04
3.696442e+01	-2.197929e-04
3.717792e+01	-2.223392e-04
3.739266e+01	-2.249150e-04
3.760864e+01	-2.275206e-04
3.782587e+01	-2.301564e-04
3.804435e+01	-2.328228e-04
3.826409e+01	-2.355200e-04
3.848510e+01	-2.382485e-04
3.870739e+01	-2.410086e-04
3.893096e+01	-2.438007e-04
3.915583e+01	-2.466251e-04
3.938199e+01	-2.494823e-04
3.960946e+01	-2.523725e-04
3.983824e+01	-2.552962e-04
4.006834e+01	-2.582538e-04
4.029978e+01	-2.612457e-04
4.053255e+01	-2.642722e-04
4.076666e+01	-2.673337e-04
4.100213e+01	-2.704308e-04
4.123896e+01	-2.735637e-04
4.147715e+01	-2.767329e-04
4.171672e+01	-2.799388e-04
4.195767e+01	-2.831819e-04
4.220002e+01	-2.864625e-04
4.244377e+01	-2.897812e-04
4.268892e+01	-2.931382e-04
4.293549e+01	-2.965342e-04
4.318348e+01	-2.999695e-04
4.343291e+01	-3.034446e-04
4.368377e+01	-3.069600e-04
4.393609e+01	-3.105161e-04
4.418986e+01	-3.141134e-04
4.444510e+01	-3.177523e-04
4.470182e+01	-3.214334e-04
4.496001e+01	-3.251572e-04
4.521970e+01	-3.289241e-04
4.548089e+01	-3.327346e-04
4.574358e+01	-3.365893e-04
4.600779e+01	-3.404886e-04
4.627353e+01	-3.444331e-04
4.654081e+01	-3.484233e-04
4.680963e+01	-3.524597e-04
4.708000e+01	-3.565429e-04
4.735193e+01	-3.606734e-04
4.762543e+01	-3.648517e-04
4.790051e+01	-3.690784e-04
4.817719e+01	-3.733541e-04
4.845545e+01	-3.776794e-04
4.873533e+01	-3.820547e-04
4.901682e+01	-3.864807e-04
4.929994e+01	-3.909580e-04
4.958470e+01	-3.954871e-04
4.987110e+01	-4.000688e-04
5.015915e+01	-4.047034e-04
5.044887e+01	-4.093918e-04
5.074026e+01	-4.141345e-04
5.103333e+01	-4.189321e-04
5.132810e+01	-4.237854e-04
5.162457e+01	-4.286948e-04
5.192275e+01	-4.336611e-04
5.222265e+01	-4.386849e-04
5.252429e+01	-4.437669e-04
5.282767e+01	-4.489078e-04
5.313280e+01	-4.541083e-04
5.343969e+01	-4.593690e-04
5.374836e+01	-4.646906e-04
5.405880e+01	-4.700739e-04
5.437105e+01	-4.755195e-04
5.468509e+01	-4.810282e-04
5.500095e+01	-4.866008e-04
5.531863e+01	-4.922379e-04
5.563815e+01	-4.979402e-04
5.595951e+01	-5.037087e-04
5.628273e+01	-5.095440e-04
5.660782e+01	-5.154468e-04
5.693479e+01	-5.214180e-04
5.726364e+01	-5.274584e-04
5.759439e+01	-5.335688e-04
5.792705e+01	-5.397500e-04
5.826164e+01	-5.460027e-04
5.859815e+01	-5.523279e-04
5.893662e+01	-5.587264e-04
5.927703e+01	-5.651990e-04
5.961941e+01	-5.717465e-04
5.996377e+01	-5.783699e-04
6.031012e+01	-5.850700e-04
6.065847e+01	-5.918478e-04
6.100883e+01	-5.987040e-04
6.136121e+01	-6.056397e-04
6.171563e+01	-6.126557e-04
6.207210e+01	-6.197530e-04
6.243063e+01	-6.269325e-04
6.279122e+01	-6.341951e-04
6.315390e+01	-6.415419e-04
6.351868e+01	-6.489738e-04
6.388556e+01	-6.564918e-04
6.425456e+01	-6.640968e-04
6.462569e+01	-6.717900e-04
6.499897e+01	-6.795722e-04
6.537440e+01	-6.874446e-04
6.575200e+01	-6.954082e-04
6.613178e+01	-7.034641e-04
6.651375e+01	-7.116132e-04
6.689793e+01	-7.198568e-04
6.728433e+01	-7.281958e-04
6.767297e+01	-7.366315e-04
6.806384e+01	-7.451648e-04
6.845698e+01	-7.537970e-04
6.885238e+01	-7.625292e-04
6.925007e+01	-7.713625e-04
6.965005e+01	-7.802981e-04
7.005235e+01	-7.893373e-04
7.045697e+01	-7.984811e-04
7.086393e+01	-8.077309e-04
7.127323e+01	-8.170878e-04
7.168490e+01	-8.265531e-04
7.209895e+01	-8.361280e-04
7.251539e+01	-8.458138e-04
7.293424e+01	-8.556119e-04
7.335551e+01	-8.655234e-04
7.377920e+01	-8.755497e-04
7.420535e+01	-8.856921e-04
7.463396e+01	-8.959521e-04
7.506504e+01	-9.063308e-04
7.549861e+01	-9.168298e-04
7.593469e+01	-9.274504e-04
7.637328e+01	-9.381940e-04
7.681441e+01	-9.490620e-04
7.725809e+01	-9.600560e-04
7.770433e+01	-9.711772e-04
7.815315e+01	-9.824273e-04
7.860456e+01	-9.938077e-04
7.905857e+01	-1.005320e-03
7.951521e+01	-1.016965e-03
7.997449e+01	-1.028746e-03
8.043642e+01	-1.040663e-03
8.090102e+01	-1.052718e-03
8.136830e+01	-1.064912e-03
8.183828e+01	-1.077248e-03
8.231097e+01	-1.089727e-03
8.278640e+01	-1.102350e-03
8.326457e+01	-1.115119e-03
8.374550e+01	-1.128036e-03
8.422921e+01	-1.141103e-03
8.471572e+01	-1.154322e-03
8.520503e+01	-1.167693e-03
8.569717e+01	-1.181219e-03
8.619215e+01	-1.194902e-03
8.669000e+01	-1.208743e-03
8.719071e+01	-1.222745e-03
8.769432e+01	-1.236909e-03
8.820084e+01	-1.251237e-03
8.871029e+01	-1.265730e-03
8.922267e+01	-1.280392e-03
8.973802e+01	-1.295224e-03
9.025634e+01	-1.310227e-03
9.077766e+01	-1.325404e-03
9.130199e+01	-1.340757e-03
9.182935e+01	-1.356287e-03
9.235975e+01	-1.371998e-03
9.289321e+01	-1.387890e-03
9.342976e+01	-1.403967e-03
9.396941e+01	-1.420229e-03
9.451217e+01	-1.436680e-03
9.505807e+01	-1.453322e-03
9.560712e+01	-1.470156e-03
9.615934e+01	-1.487185e-03
9.671476e+01	-1.504412e-03
9.727338e+01	-1.521838e-03
9.783522e+01	-1.539465e-03
9.840032e+01	-1.557297e-03
9.896867e+01	-1.575336e-03
9.954031e+01	-1.593583e-03
1.001153e+02	-1.612042e-03
1.006935e+02	-1.630714e-03
1.012751e+02	-1.649603e-03
1.018601e+02	-1.668710e-03
1.024484e+02	-1.688039e-03
1.030402e+02	-1.707592e-03
1.036353e+02	-1.727371e-03
1.042339e+02	-1.747379e-03
1.048360e+02	-1.767618e-03
1.054415e+02	-1.788092e-03
1.060505e+02	-1.808804e-03
1.066631e+02	-1.829755e-03
1.072791e+02	-1.850948e-03
1.078988e+02	-1.872387e-03
1.085220e+02	-1.894075e-03
1.091488e+02	-1.916013e-03
1.097793e+02	-1.938206e-03
1.104133e+02	-1.960655e-03
1.110511e+02	-1.983365e-03
1.116925e+02	-2.006337e-03
1.123376e+02	-2.029576e-03
1.129865e+02	-2.053084e-03
1.136391e+02	-2.076863e-03
1.142955e+02	-2.100919e-03
1.149556e+02	-2.125252e-03
1.156196e+02	-2.149868e-03
1.162874e+02	-2.174768e-03
1.169591e+02	-2.199957e-03
1.176347e+02	-2.225438e-03
1.183141e+02	-2.251213e-03
1.189975e+02	-2.277287e-03
1.196848e+02	-2.303663e-03
1.203761e+02	-2.330345e-03
1.210714e+02	-2.357335e-03
1.217707e+02	-2.384638e-03
1.224740e+02	-2.412257e-03
1.231814e+02	-2.440196e-03
1.238929e+02	-2.468458e-03
1.246085e+02	-2.497048e-03
1.253283e+02	-2.525968e-03
1.260522e+02	-2.555223e-03
1.267802e+02	-2.584818e-03
1.275125e+02	-2.614754e-03
1.282490e+02	-2.645038e-03
1.289898e+02	-2.675672e-03
1.297348e+02	-2.706660e-03
1.304842e+02	-2.738008e-03
1.312378e+02	-2.769718e-03
1.319959e+02	-2.801796e-03
1.327583e+02	-2.834245e-03
1.335251e+02	-2.867069e-03
1.342963e+02	-2.900274e-03
1.350720e+02	-2.933863e-03
1.358522e+02	-2.967841e-03
1.366368e+02	-3.002212e-03
1.374260e+02	-3.036982e-03
1.382198e+02	-3.072153e-03
1.390182e+02	-3.107732e-03
1.398211e+02	-3.143723e-03
1.406287e+02	-3.180131e-03
1.414410e+02	-3.216960e-03
1.422579e+02	-3.254215e-03
1.430796e+02	-3.291902e-03
1.439060e+02	-3.330024e-03
1.447372e+02	-3.368589e-03
1.455732e+02	-3.407599e-03
1.464141e+02	-3.447062e-03
1.472597e+02	-3.486981e-03
1.481103e+02	-3.527362e-03
1.489658e+02	-3.568210e-03
1.498262e+02	-3.609532e-03
1.506916e+02	-3.651331e-03
1.515620e+02	-3.693615e-03
1.524374e+02	-3.736388e-03
1.533179e+02	-3.779656e-03
1.542034e+02	-3.823425e-03
1.550941e+02	-3.867701e-03
1.559899e+02	-3.912489e-03
1.568909e+02	-3.957795e-03
1.577971e+02	-4.003626e-03
1.587085e+02	-4.049988e-03
1.596252e+02	-4.096886e-03
1.605472e+02	-4.144327e-03
1.614745e+02	-4.192316e-03
1.624072e+02	-4.240862e-03
1.633453e+02	-4.289969e-03
1.642887e+02	-4.339644e-03
1.652377e+02	-4.389895e-03
1.661921e+02	-4.440727e-03
1.671520e+02	-4.492147e-03
1.681175e+02	-4.544163e-03
1.690885e+02	-4.596780e-03
1.700651e+02	-4.650006e-03
1.710474e+02	-4.703848e-03
1.720354e+02	-4.758314e-03
1.730291e+02	-4.813409e-03
1.740285e+02	-4.869143e-03
1.750337e+02	-4.925521e-03
1.760446e+02	-4.982552e-03
1.770615e+02	-5.040242e-03
1.780842e+02	-5.098600e-03
1.791128e+02	-5.157634e-03
1.801473e+02	-5.217350e-03
1.811878e+02	-5.277758e-03
1.822344e+02	-5.338864e-03
1.832870e+02	-5.400678e-03
1.843456e+02	-5.463207e-03
1.854104e+02	-5.526459e-03
1.864813e+02	-5.590443e-03
1.875584e+02	-5.655167e-03
1.886418e+02	-5.720641e-03
1.897313e+02	-5.786871e-03
1.908272e+02	-5.853869e-03
1.919294e+02	-5.921641e-03
1.930380e+02	-5.990197e-03
1.941530e+02	-6.059546e-03
1.952744e+02	-6.129698e-03
1.964023e+02	-6.200661e-03
1.975367e+02	-6.272446e-03
1.986777e+02	-6.345060e-03
1.998252e+02	-6.418515e-03
2.009794e+02	-6.492819e-03
2.021403e+02	-6.567983e-03
2.033078e+02	-6.644017e-03
2.044821e+02	-6.720930e-03
2.056632e+02	-6.798732e-03
2.068511e+02	-6.877435e-03
2.080459e+02	-6.957047e-03
2.092475e+02	-7.037581e-03
2.104561e+02	-7.119046e-03
2.116717e+02	-7.201454e-03
2.128943e+02	-7.284814e-03
2.141240e+02	-7.369139e-03
2.153608e+02	-7.454438e-03
2.166047e+02	-7.540725e-03
2.178558e+02	-7.628009e-03
2.191141e+02	-7.716303e-03
2.203797e+02	-7.805617e-03
2.216526e+02	-7.895965e-03
2.229329e+02	-7.987357e-03
2.242205e+02	-8.079807e-03
2.255156e+02	-8.173325e-03
2.268182e+02	-8.267924e-03
2.281283e+02	-8.363618e-03
2.294459e+02	-8.460418e-03
2.307712e+02	-8.558337e-03
2.321041e+02	-8.657388e-03
2.334447e+02	-8.757585e-03
2.347931e+02	-8.858940e-03
2.361493e+02	-8.961467e-03
2.375133e+02	-9.065179e-03
2.388851e+02	-9.170090e-03
2.402649e+02	-9.276214e-03
2.416527e+02	-9.383565e-03
2.430484e+02	-9.492157e-03
2.444523e+02	-9.602004e-03
2.458642e+02	-9.713120e-03
2.472843e+02	-9.825522e-03
2.487126e+02	-9.939222e-03
2.501492e+02	-1.005424e-02
2.515940e+02	-1.017058e-02
2.530472e+02	-1.028827e-02
2.545088e+02	-1.040732e-02
2.559789e+02	-1.052774e-02
2.574574e+02	-1.064956e-02
2.589444e+02	-1.077278e-02
2.604401e+02	-1.089743e-02
2.619444e+02	-1.102352e-02
2.634574e+02	-1.115107e-02
2.649791e+02	-1.128009e-02
2.665096e+02	-1.141060e-02
2.680489e+02	-1.154261e-02
2.695972e+02	-1.167616e-02
2.711544e+02	-1.181124e-02
2.727205e+02	-1.194789e-02
2.742958e+02	-1.208612e-02
2.758801e+02	-1.222594e-02
2.774736e+02	-1.236738e-02
2.790762e+02	-1.251045e-02
2.806882e+02	-1.265518e-02
2.823094e+02	-1.280157e-02
2.839400e+02	-1.294966e-02
2.855800e+02	-1.309946e-02
2.872295e+02	-1.325099e-02
2.888886e+02	-1.340426e-02
2.905572e+02	-1.355931e-02
2.922354e+02	-1.371615e-02
2.939234e+02	-1.387480e-02
2.956211e+02	-1.403528e-02
2.973286e+02	-1.419762e-02
2.990459e+02	-1.436183e-02
3.007732e+02	-1.452794e-02
3.025104e+02	-1.469596e-02
3.042577e+02	-1.486592e-02
3.060151e+02	-1.503785e-02
3.077826e+02	-1.521176e-02
3.095604e+02	-1.538768e-02
3.113484e+02	-1.556563e-02
3.131467e+02	-1.574563e-02
3.149554e+02	-1.592771e-02
3.167746e+02	-1.611190e-02
3.186043e+02	-1.629821e-02
3.204445e+02	-1.648667e-02
3.222954e+02	-1.667730e-02
3.241570e+02	-1.687013e-02
3.260293e+02	-1.706519e-02
3.279124e+02	-1.726250e-02
3.298064e+02	-1.746209e-02
3.317114e+02	-1.766398e-02
3.336273e+02	-1.786820e-02
3.355544e+02	-1.807477e-02
3.374925e+02	-1.828373e-02
3.394418e+02	-1.849510e-02
3.414024e+02	-1.870891e-02
3.433744e+02	-1.892518e-02
3.453577e+02	-1.914395e-02
3.473525e+02	-1.936524e-02
3.493588e+02	-1.958908e-02
3.513766e+02	-1.981551e-02
3.534062e+02	-2.004454e-02
3.554474e+02	-2.027622e-02
3.575005e+02	-2.051057e-02
3.595654e+02	-2.074762e-02
3.616422e+02	-2.098740e-02
3.637311e+02	-2.122995e-02
3.658320e+02	-2.147530e-02
3.679450e+02	-2.172347e-02
3.700702e+02	-2.197450e-02
3.722077e+02	-2.222843e-02
3.743576e+02	-2.248528e-02
3.765199e+02	-2.274509e-02
3.786946e+02	-2.300790e-02
3.808820e+02	-2.327373e-02
3.830819e+02	-2.354263e-02
3.852946e+02	-2.381463e-02
3.875200e+02	-2.408976e-02
3.897583e+02	-2.436806e-02
3.920096e+02	-2.464957e-02
3.942738e+02	-2.493432e-02
3.965511e+02	-2.522234e-02
3.988416e+02	-2.551369e-02
4.011452e+02	-2.580839e-02
4.034622e+02	-2.610649e-02
4.057926e+02	-2.640801e-02
4.081365e+02	-2.671301e-02
4.104938e+02	-2.702152e-02
4.128648e+02	-2.733359e-02
4.152495e+02	-2.764924e-02
4.176480e+02	-2.796853e-02
4.200603e+02	-2.829149e-02
4.224866e+02	-2.861817e-02
4.249268e+02	-2.894861e-02
4.273812e+02	-2.928286e-02
4.298497e+02	-2.962094e-02
4.323325e+02	-2.996292e-02
4.348297e+02	-3.030883e-02
4.373412e+02	-3.065873e-02
4.398673e+02	-3.101264e-02
4.424079e+02	-3.137063e-02
4.449633e+02	-3.173274e-02
4.475334e+02	-3.209900e-02
4.501183e+02	-3.246948e-02
4.527182e+02	-3.284422e-02
4.553330e+02	-3.322327e-02
4.579630e+02	-3.360668e-02
4.606082e+02	-3.399449e-02
4.632687e+02	-3.438676e-02
4.659445e+02	-3.478354e-02
4.686358e+02	-3.518488e-02
4.713426e+02	-3.559083e-02
4.740650e+02	-3.600145e-02
4.768032e+02	-3.641678e-02
4.795572e+02	-3.683688e-02
4.823271e+02	-3.726181e-02
4.851130e+02	-3.769162e-02
4.879150e+02	-3.812636e-02
4.907332e+02	-3.856610e-02
4.935676e+02	-3.901088e-02
4.964185e+02	-3.946078e-02
4.992858e+02	-3.991583e-02
5.021696e+02	-4.037611e-02
5.050701e+02	-4.084167e-02
5.079874e+02	-4.131258e-02
5.109215e+02	-4.178889e-02
5.138726e+02	-4.227066e-02
5.168407e+02	-4.275796e-02
5.198259e+02	-4.325085e-02
5.228284e+02	-4.374939e-02
5.258482e+02	-4.425365e-02
5.288855e+02	-4.476369e-02
5.319403e+02	-4.527958e-02
5.350128e+02	-4.580138e-02
5.381030e+02	-4.632916e-02
5.412111e+02	-4.686300e-02
5.443371e+02	-4.740295e-02
5.474812e+02	-4.794908e-02
5.506434e+02	-4.850148e-02
5.538239e+02	-4.906020e-02
5.570228e+02	-4.962532e-02
5.602401e+02	-5.019691e-02
5.634760e+02	-5.077505e-02
5.667306e+02	-5.135980e-02
5.700040e+02	-5.195125e-02
5.732964e+02	-5.254947e-02
5.766077e+02	-5.315454e-02
5.799382e+02	-5.376653e-02
5.832879e+02	-5.438552e-02
5.866569e+02	-5.501159e-02
5.900454e+02	-5.564483e-02
5.934535e+02	-5.628530e-02
5.968813e+02	-5.693310e-02
6.003288e+02	-5.758830e-02
6.037963e+02	-5.825100e-02
6.072838e+02	-5.892126e-02
6.107914e+02	-5.959919e-02
6.143194e+02	-6.028486e-02
6.178676e+02	-6.097837e-02
6.214364e+02	-6.167980e-02
6.250258e+02	-6.238923e-02
6.286359e+02	-6.310677e-02
6.322669e+02	-6.383250e-02
6.359189e+02	-6.456651e-02
6.395919e+02	-6.530890e-02
6.432862e+02	-6.605976e-02
6.470017e+02	-6.681918e-02
6.507388e+02	-6.758727e-02
6.544974e+02	-6.836412e-02
6.582778e+02	-6.914982e-02
6.620800e+02	-6.994449e-02
6.659041e+02	-7.074821e-02
6.697504e+02	-7.156109e-02
6.736188e+02	-7.238323e-02
6.775096e+02	-7.321473e-02
6.814229e+02	-7.405571e-02
6.853587e+02	-7.490626e-02
6.893173e+02	-7.576650e-02
6.932988e+02	-7.663652e-02
6.973033e+02	-7.751645e-02
7.013309e+02	-7.840639e-02
