Frequency(Hz)	Magnitude(dB)
1.000000e+01	-2.288038e+00
1.005776e+01	-2.308389e+00
1.011585e+01	-2.329446e+00
1.017428e+01	-2.350046e+00
1.023305e+01	-2.371236e+00
1.029215e+01	-2.392399e+00
1.035160e+01	-2.413536e+00
1.041139e+01	-2.434787e+00
1.047153e+01	-2.456414e+00
1.053201e+01	-2.478210e+00
1.059284e+01	-2.500039e+00
1.065403e+01	-2.521944e+00
1.071556e+01	-2.543965e+00
1.077746e+01	-2.566143e+00
1.083971e+01	-2.588760e+00
1.090232e+01	-2.611443e+00
1.096529e+01	-2.633876e+00
1.102862e+01	-2.656865e+00
1.109232e+01	-2.679518e+00
1.115639e+01	-2.702724e+00
1.122083e+01	-2.725888e+00
1.128564e+01	-2.749435e+00
1.135083e+01	-2.773079e+00
1.141639e+01	-2.796817e+00
1.148233e+01	-2.820503e+00
1.154865e+01	-2.844324e+00
1.161536e+01	-2.868388e+00
1.168245e+01	-2.892817e+00
1.174992e+01	-2.917084e+00
1.181779e+01	-2.941526e+00
1.188605e+01	-2.966242e+00
1.195470e+01	-2.991040e+00
1.202375e+01	-3.015985e+00
1.209320e+01	-3.041444e+00
1.216305e+01	-3.066613e+00
1.223330e+01	-3.091809e+00
1.230396e+01	-3.117433e+00
1.237503e+01	-3.143332e+00
1.244651e+01	-3.168716e+00
1.251840e+01	-3.195008e+00
1.259070e+01	-3.221080e+00
1.266343e+01	-3.247454e+00
1.273657e+01	-3.273590e+00
1.281014e+01	-3.300324e+00
1.288413e+01	-3.327103e+00
1.295855e+01	-3.353966e+00
1.303339e+01	-3.380844e+00
1.310867e+01	-3.408052e+00
1.318439e+01	-3.435398e+00
1.326054e+01	-3.462690e+00
1.333713e+01	-3.490522e+00
1.341417e+01	-3.518005e+00
1.349165e+01	-3.545770e+00
1.356958e+01	-3.573845e+00
1.364795e+01	-3.601789e+00
1.372678e+01	-3.630091e+00
1.380607e+01	-3.658777e+00
1.388581e+01	-3.687179e+00
1.396602e+01	-3.715956e+00
1.404668e+01	-3.744872e+00
1.412782e+01	-3.773751e+00
1.420942e+01	-3.802669e+00
1.429149e+01	-3.831928e+00
1.437404e+01	-3.861609e+00
1.445706e+01	-3.890743e+00
1.454057e+01	-3.920579e+00
1.462455e+01	-3.950419e+00
1.470902e+01	-3.980372e+00
1.479398e+01	-4.010360e+00
1.487943e+01	-4.040821e+00
1.496537e+01	-4.070801e+00
1.505181e+01	-4.101536e+00
1.513875e+01	-4.131941e+00
1.522619e+01	-4.163226e+00
1.531414e+01	-4.193935e+00
1.540259e+01	-4.224881e+00
1.549156e+01	-4.256082e+00
1.558103e+01	-4.287427e+00
1.567103e+01	-4.318919e+00
1.576155e+01	-4.350328e+00
1.585258e+01	-4.382218e+00
1.594415e+01	-4.414148e+00
1.603624e+01	-4.445928e+00
1.612886e+01	-4.478287e+00
1.622202e+01	-4.510345e+00
1.631572e+01	-4.543043e+00
1.640996e+01	-4.575391e+00
1.650474e+01	-4.607853e+00
1.660008e+01	-4.640598e+00
1.669596e+01	-4.673579e+00
1.679239e+01	-4.706718e+00
1.688938e+01	-4.740131e+00
1.698694e+01	-4.773058e+00
1.708505e+01	-4.806518e+00
1.718373e+01	-4.840043e+00
1.728299e+01	-4.873488e+00
1.738281e+01	-4.907705e+00
1.748322e+01	-4.941554e+00
1.758420e+01	-4.975482e+00
1.768576e+01	-5.009775e+00
1.778792e+01	-5.043836e+00
1.789066e+01	-5.078591e+00
1.799399e+01	-5.113001e+00
1.809793e+01	-5.147454e+00
1.820246e+01	-5.182458e+00
1.830760e+01	-5.217369e+00
1.841334e+01	-5.252475e+00
1.851969e+01	-5.287522e+00
1.862666e+01	-5.322800e+00
1.873425e+01	-5.358307e+00
1.884246e+01	-5.393908e+00
1.895129e+01	-5.429452e+00
1.906075e+01	-5.465118e+00
1.917085e+01	-5.501022e+00
1.928158e+01	-5.536938e+00
1.939295e+01	-5.573251e+00
1.950496e+01	-5.609441e+00
1.961762e+01	-5.645906e+00
1.973093e+01	-5.682300e+00
1.984490e+01	-5.718599e+00
1.995952e+01	-5.755490e+00
2.007480e+01	-5.792180e+00
2.019076e+01	-5.829233e+00
2.030738e+01	-5.866241e+00
2.042467e+01	-5.903351e+00
2.054264e+01	-5.940523e+00
2.066130e+01	-5.977677e+00
2.078064e+01	-6.015349e+00
2.090066e+01	-6.052487e+00
2.102139e+01	-6.090772e+00
2.114280e+01	-6.128396e+00
2.126492e+01	-6.165985e+00
2.138775e+01	-6.204145e+00
2.151128e+01	-6.242338e+00
2.163553e+01	-6.280460e+00
2.176050e+01	-6.318448e+00
2.188619e+01	-6.356988e+00
2.201260e+01	-6.395659e+00
2.213974e+01	-6.434082e+00
2.226762e+01	-6.472890e+00
2.239624e+01	-6.511611e+00
2.252560e+01	-6.550720e+00
2.265571e+01	-6.589558e+00
2.278656e+01	-6.628819e+00
2.291818e+01	-6.667785e+00
2.305055e+01	-6.707262e+00
2.318369e+01	-6.746563e+00
2.331760e+01	-6.786471e+00
2.345228e+01	-6.825559e+00
2.358774e+01	-6.865766e+00
2.372398e+01	-6.904967e+00
2.386101e+01	-6.945006e+00
2.399883e+01	-6.984844e+00
2.413745e+01	-7.025305e+00
2.427686e+01	-7.064922e+00
2.441709e+01	-7.105696e+00
2.455812e+01	-7.145739e+00
2.469997e+01	-7.185904e+00
2.484263e+01	-7.226798e+00
2.498612e+01	-7.267317e+00
2.513044e+01	-7.307786e+00
2.527559e+01	-7.348481e+00
2.542158e+01	-7.389252e+00
2.556842e+01	-7.430539e+00
2.571610e+01	-7.471544e+00
2.586463e+01	-7.512852e+00
2.601403e+01	-7.553887e+00
2.616428e+01	-7.595123e+00
2.631541e+01	-7.636341e+00
2.646740e+01	-7.677785e+00
2.662028e+01	-7.719400e+00
2.677404e+01	-7.760637e+00
2.692868e+01	-7.802793e+00
2.708422e+01	-7.844709e+00
2.724066e+01	-7.886034e+00
2.739800e+01	-7.927756e+00
2.755625e+01	-7.969751e+00
2.771541e+01	-8.012371e+00
2.787550e+01	-8.054665e+00
2.803650e+01	-8.096955e+00
2.819844e+01	-8.139296e+00
2.836131e+01	-8.181277e+00
2.852513e+01	-8.224255e+00
2.868989e+01	-8.266462e+00
2.885560e+01	-8.309185e+00
2.902227e+01	-8.351878e+00
2.918990e+01	-8.394869e+00
2.935850e+01	-8.437451e+00
2.952807e+01	-8.479948e+00
2.969863e+01	-8.523317e+00
2.987016e+01	-8.566514e+00
3.004269e+01	-8.609433e+00
3.021622e+01	-8.652590e+00
3.039075e+01	-8.695642e+00
3.056628e+01	-8.738866e+00
3.074283e+01	-8.782509e+00
3.092040e+01	-8.825795e+00
3.109900e+01	-8.869261e+00
3.127862e+01	-8.913125e+00
3.145929e+01	-8.956240e+00
3.164099e+01	-9.000412e+00
3.182375e+01	-9.044161e+00
3.200756e+01	-9.087820e+00
3.219244e+01	-9.131476e+00
3.237838e+01	-9.175677e+00
3.256540e+01	-9.219548e+00
3.275349e+01	-9.263923e+00
3.294268e+01	-9.307730e+00
3.313295e+01	-9.352090e+00
3.332433e+01	-9.395725e+00
3.351681e+01	-9.440712e+00
3.371040e+01	-9.485270e+00
3.390511e+01	-9.529931e+00
3.410094e+01	-9.574100e+00
3.429791e+01	-9.618700e+00
3.449601e+01	-9.663082e+00
3.469526e+01	-9.707768e+00
3.489566e+01	-9.752285e+00
3.509721e+01	-9.797098e+00
3.529993e+01	-9.841702e+00
3.550382e+01	-9.887068e+00
3.570889e+01	-9.931606e+00
3.591515e+01	-9.976763e+00
3.612259e+01	-1.002140e+01
3.633123e+01	-1.006654e+01
3.654108e+01	-1.011174e+01
3.675214e+01	-1.015717e+01
3.696442e+01	-1.020210e+01
3.717792e+01	-1.024755e+01
3.739266e+01	-1.029319e+01
3.760864e+01	-1.033796e+01
3.782587e+01	-1.038358e+01
3.804435e+01	-1.042908e+01
3.826409e+01	-1.047487e+01
3.848510e+01	-1.052053e+01
3.870739e+01	-1.056641e+01
3.893096e+01	-1.061161e+01
3.915583e+01	-1.065712e+01
3.938199e+01	-1.070301e+01
3.960946e+01	-1.074883e+01
3.983824e+01	-1.079455e+01
4.006834e+01	-1.084054e+01
4.029978e+01	-1.088678e+01
4.053255e+01	-1.093316e+01
4.076666e+01	-1.097821e+01
4.100213e+01	-1.102414e+01
4.123896e+01	-1.107059e+01
4.147715e+01	-1.111696e+01
4.171672e+01	-1.116286e+01
4.195767e+01	-1.120878e+01
4.220002e+01	-1.125519e+01
4.244377e+01	-1.130187e+01
4.268892e+01	-1.134802e+01
4.293549e+01	-1.139419e+01
4.318348e+01	-1.144074e+01
4.343291e+01	-1.148717e+01
4.368377e+01	-1.153358e+01
4.393609e+01	-1.157995e+01
4.418986e+01	-1.162665e+01
4.444510e+01	-1.167384e+01
4.470182e+01	-1.172035e+01
4.496001e+01	-1.176684e+01
4.521970e+01	-1.181323e+01
4.548089e+01	-1.185887e+01
4.574358e+01	-1.190666e+01
4.600779e+01	-1.195369e+01
4.627353e+01	-1.200075e+01
4.654081e+01	-1.204827e+01
4.680963e+01	-1.209399e+01
4.708000e+01	-1.214122e+01
4.735193e+01	-1.218903e+01
4.762543e+01	-1.223600e+01
4.790051e+01	-1.228291e+01
4.817719e+01	-1.232981e+01
4.845545e+01	-1.237627e+01
4.873533e+01	-1.242349e+01
4.901682e+01	-1.247110e+01
4.929994e+01	-1.251792e+01
4.958470e+01	-1.256520e+01
4.987110e+01	-1.261320e+01
5.015915e+01	-1.266013e+01
5.044887e+01	-1.270786e+01
5.074026e+01	-1.275473e+01
5.103333e+01	-1.280194e+01
5.132810e+01	-1.284885e+01
5.162457e+01	-1.289685e+01
5.192275e+01	-1.294401e+01
5.222265e+01	-1.299137e+01
5.252429e+01	-1.303905e+01
5.282767e+01	-1.308764e+01
5.313280e+01	-1.313467e+01
5.343969e+01	-1.318248e+01
5.374836e+01	-1.322969e+01
5.405880e+01	-1.327708e+01
5.437105e+01	-1.332484e+01
5.468509e+01	-1.337221e+01
5.500095e+01	-1.342086e+01
5.531863e+01	-1.346879e+01
5.563815e+01	-1.351597e+01
5.595951e+01	-1.356367e+01
5.628273e+01	-1.361185e+01
5.660782e+01	-1.365959e+01
5.693479e+01	-1.370710e+01
5.726364e+01	-1.375602e+01
5.759439e+01	-1.380302e+01
5.792705e+01	-1.385099e+01
5.826164e+01	-1.389861e+01
5.859815e+01	-1.394707e+01
5.893662e+01	-1.399484e+01
5.927703e+01	-1.404459e+01
5.961941e+01	-1.409174e+01
5.996377e+01	-1.413951e+01
6.031012e+01	-1.418749e+01
6.065847e+01	-1.423593e+01
6.100883e+01	-1.428349e+01
6.136121e+01	-1.433209e+01
6.171563e+01	-1.438100e+01
6.207210e+01	-1.442809e+01
6.243063e+01	-1.447640e+01
6.279122e+01	-1.452481e+01
6.315390e+01	-1.457324e+01
6.351868e+01	-1.462207e+01
6.388556e+01	-1.466988e+01
6.425456e+01	-1.471879e+01
6.462569e+01	-1.476647e+01
6.499897e+01	-1.481522e+01
6.537440e+01	-1.486322e+01
6.575200e+01	-1.491147e+01
6.613178e+01	-1.495955e+01
6.651375e+01	-1.500890e+01
6.689793e+01	-1.505690e+01
6.728433e+01	-1.510505e+01
6.767297e+01	-1.515357e+01
6.806384e+01	-1.520251e+01
6.845698e+01	-1.525074e+01
6.885238e+01	-1.529983e+01
6.925007e+01	-1.534839e+01
6.965005e+01	-1.539638e+01
7.005235e+01	-1.544569e+01
7.045697e+01	-1.549310e+01
7.086393e+01	-1.554265e+01
7.127323e+01	-1.559098e+01
7.168490e+01	-1.563976e+01
7.209895e+01	-1.568906e+01
7.251539e+01	-1.573609e+01
7.293424e+01	-1.578669e+01
7.335551e+01	-1.583516e+01
7.377920e+01	-1.588368e+01
7.420535e+01	-1.593232e+01
7.463396e+01	-1.598202e+01
7.506504e+01	-1.602920e+01
7.549861e+01	-1.607762e+01
7.593469e+01	-1.612784e+01
7.637328e+01	-1.617623e+01
7.681441e+01	-1.622524e+01
7.725809e+01	-1.627285e+01
7.770433e+01	-1.632316e+01
7.815315e+01	-1.637191e+01
7.860456e+01	-1.642039e+01
7.905857e+01	-1.646899e+01
7.951521e+01	-1.651891e+01
7.997449e+01	-1.656587e+01
8.043642e+01	-1.661552e+01
8.090102e+01	-1.666522e+01
8.136830e+01	-1.671374e+01
8.183828e+01	-1.676306e+01
8.231097e+01	-1.681207e+01
8.278640e+01	-1.686076e+01
8.326457e+01	-1.690960e+01
8.374550e+01	-1.695852e+01
8.422921e+01	-1.700838e+01
8.471572e+01	-1.705687e+01
8.520503e+01	-1.710600e+01
8.569717e+01	-1.715478e+01
8.619215e+01	-1.720480e+01
8.669000e+01	-1.725364e+01
8.719071e+01	-1.730213e+01
8.769432e+01	-1.735131e+01
8.820084e+01	-1.740063e+01
8.871029e+01	-1.745084e+01
8.922267e+01	-1.749903e+01
8.973802e+01	-1.754732e+01
9.025634e+01	-1.759713e+01
9.077766e+01	-1.764636e+01
9.130199e+01	-1.769604e+01
9.182935e+01	-1.774419e+01
9.235975e+01	-1.779380e+01
9.289321e+01	-1.784295e+01
9.342976e+01	-1.789217e+01
9.396941e+01	-1.794147e+01
9.451217e+01	-1.798975e+01
9.505807e+01	-1.804045e+01
9.560712e+01	-1.808785e+01
9.615934e+01	-1.813880e+01
9.671476e+01	-1.818832e+01
9.727338e+01	-1.823822e+01
9.783522e+01	-1.828694e+01
9.840032e+01	-1.833551e+01
9.896867e+01	-1.838452e+01
9.954031e+01	-1.843331e+01
1.001153e+02	-1.848385e+01
1.006935e+02	-1.853322e+01
1.012751e+02	-1.858181e+01
1.018601e+02	-1.863132e+01
1.024484e+02	-1.868040e+01
1.030402e+02	-1.873005e+01
1.036353e+02	-1.877950e+01
1.042339e+02	-1.882862e+01
1.048360e+02	-1.887717e+01
1.054415e+02	-1.892687e+01
1.060505e+02	-1.897659e+01
1.066631e+02	-1.902595e+01
1.072791e+02	-1.907645e+01
1.078988e+02	-1.912640e+01
1.085220e+02	-1.917398e+01
1.091488e+02	-1.922363e+01
1.097793e+02	-1.927401e+01
1.104133e+02	-1.932439e+01
1.110511e+02	-1.937222e+01
1.116925e+02	-1.942250e+01
1.123376e+02	-1.947291e+01
1.129865e+02	-1.952112e+01
1.136391e+02	-1.957064e+01
1.142955e+02	-1.962087e+01
1.149556e+02	-1.966995e+01
1.156196e+02	-1.971788e+01
1.162874e+02	-1.976902e+01
1.169591e+02	-1.981736e+01
1.176347e+02	-1.986768e+01
1.183141e+02	-1.991824e+01
1.189975e+02	-1.996511e+01
1.196848e+02	-2.001580e+01
1.203761e+02	-2.006526e+01
1.210714e+02	-2.011391e+01
1.217707e+02	-2.016457e+01
1.224740e+02	-2.021339e+01
1.231814e+02	-2.026576e+01
1.238929e+02	-2.031386e+01
1.246085e+02	-2.036371e+01
1.253283e+02	-2.041294e+01
1.260522e+02	-2.046311e+01
1.267802e+02	-2.051212e+01
1.275125e+02	-2.056099e+01
1.282490e+02	-2.061135e+01
1.289898e+02	-2.066110e+01
1.297348e+02	-2.071145e+01
1.304842e+02	-2.076051e+01
1.312378e+02	-2.080812e+01
1.319959e+02	-2.086092e+01
1.327583e+02	-2.090939e+01
1.335251e+02	-2.095775e+01
1.342963e+02	-2.100723e+01
1.350720e+02	-2.105743e+01
1.358522e+02	-2.110865e+01
1.366368e+02	-2.115590e+01
1.374260e+02	-2.120619e+01
1.382198e+02	-2.125658e+01
1.390182e+02	-2.130407e+01
1.398211e+02	-2.135497e+01
1.406287e+02	-2.140571e+01
1.414410e+02	-2.145640e+01
1.422579e+02	-2.150431e+01
1.430796e+02	-2.155403e+01
1.439060e+02	-2.160551e+01
1.447372e+02	-2.165501e+01
1.455732e+02	-2.170277e+01
1.464141e+02	-2.175303e+01
1.472597e+02	-2.180336e+01
1.481103e+02	-2.185155e+01
1.489658e+02	-2.190241e+01
1.498262e+02	-2.195199e+01
1.506916e+02	-2.200244e+01
1.515620e+02	-2.205345e+01
1.524374e+02	-2.210251e+01
1.533179e+02	-2.215013e+01
1.542034e+02	-2.220189e+01
1.550941e+02	-2.225068e+01
1.559899e+02	-2.229915e+01
1.568909e+02	-2.235049e+01
1.577971e+02	-2.240047e+01
1.587085e+02	-2.244883e+01
1.596252e+02	-2.249893e+01
1.605472e+02	-2.254949e+01
1.614745e+02	-2.259820e+01
1.624072e+02	-2.264752e+01
1.633453e+02	-2.269708e+01
1.642887e+02	-2.274706e+01
1.652377e+02	-2.279956e+01
1.661921e+02	-2.284694e+01
1.671520e+02	-2.289763e+01
1.681175e+02	-2.294663e+01
1.690885e+02	-2.299516e+01
1.700651e+02	-2.304629e+01
1.710474e+02	-2.309786e+01
1.720354e+02	-2.314583e+01
1.730291e+02	-2.319607e+01
1.740285e+02	-2.324557e+01
1.750337e+02	-2.329550e+01
1.760446e+02	-2.334644e+01
1.770615e+02	-2.339505e+01
1.780842e+02	-2.344479e+01
1.791128e+02	-2.349461e+01
1.801473e+02	-2.354654e+01
1.811878e+02	-2.359515e+01
1.822344e+02	-2.364465e+01
1.832870e+02	-2.369630e+01
1.843456e+02	-2.374530e+01
1.854104e+02	-2.379590e+01
1.864813e+02	-2.384406e+01
1.875584e+02	-2.389516e+01
1.886418e+02	-2.394620e+01
1.897313e+02	-2.399449e+01
1.908272e+02	-2.404280e+01
1.919294e+02	-2.409334e+01
1.930380e+02	-2.414419e+01
1.941530e+02	-2.419247e+01
1.952744e+02	-2.424424e+01
1.964023e+02	-2.429637e+01
1.975367e+02	-2.434371e+01
1.986777e+02	-2.439287e+01
1.998252e+02	-2.444266e+01
2.009794e+02	-2.449346e+01
2.021403e+02	-2.454533e+01
2.033078e+02	-2.459352e+01
2.044821e+02	-2.464548e+01
2.056632e+02	-2.469327e+01
2.068511e+02	-2.474231e+01
2.080459e+02	-2.479328e+01
2.092475e+02	-2.484158e+01
2.104561e+02	-2.489008e+01
2.116717e+02	-2.493805e+01
2.128943e+02	-2.499044e+01
2.141240e+02	-2.503876e+01
2.153608e+02	-2.509307e+01
2.166047e+02	-2.514113e+01
2.178558e+02	-2.519154e+01
2.191141e+02	-2.524110e+01
2.203797e+02	-2.529046e+01
2.216526e+02	-2.534174e+01
2.229329e+02	-2.539272e+01
2.242205e+02	-2.544075e+01
2.255156e+02	-2.549035e+01
2.268182e+02	-2.553972e+01
2.281283e+02	-2.558899e+01
2.294459e+02	-2.564268e+01
2.307712e+02	-2.569085e+01
2.321041e+02	-2.574254e+01
2.334447e+02	-2.578863e+01
2.347931e+02	-2.583678e+01
2.361493e+02	-2.588792e+01
2.375133e+02	-2.594261e+01
2.388851e+02	-2.598620e+01
2.402649e+02	-2.604110e+01
2.416527e+02	-2.609143e+01
2.430484e+02	-2.614186e+01
2.444523e+02	-2.619174e+01
2.458642e+02	-2.623734e+01
2.472843e+02	-2.628947e+01
2.487126e+02	-2.634153e+01
2.501492e+02	-2.639107e+01
2.515940e+02	-2.644051e+01
2.530472e+02	-2.649211e+01
2.545088e+02	-2.653980e+01
2.559789e+02	-2.658924e+01
2.574574e+02	-2.664106e+01
2.589444e+02	-2.668935e+01
2.604401e+02	-2.674225e+01
2.619444e+02	-2.678882e+01
2.634574e+02	-2.684149e+01
2.649791e+02	-2.688776e+01
2.665096e+02	-2.694211e+01
2.680489e+02	-2.698610e+01
2.695972e+02	-2.703583e+01
2.711544e+02	-2.708858e+01
2.727205e+02	-2.714040e+01
2.742958e+02	-2.718887e+01
2.758801e+02	-2.723795e+01
2.774736e+02	-2.728540e+01
2.790762e+02	-2.734091e+01
2.806882e+02	-2.738799e+01
2.823094e+02	-2.744093e+01
2.839400e+02	-2.749069e+01
2.855800e+02	-2.753830e+01
2.872295e+02	-2.758835e+01
2.888886e+02	-2.763781e+01
2.905572e+02	-2.768677e+01
2.922354e+02	-2.774113e+01
2.939234e+02	-2.779247e+01
2.956211e+02	-2.783984e+01
2.973286e+02	-2.788716e+01
2.990459e+02	-2.793531e+01
3.007732e+02	-2.799093e+01
3.025104e+02	-2.803707e+01
3.042577e+02	-2.808961e+01
3.060151e+02	-2.813987e+01
3.077826e+02	-2.818918e+01
3.095604e+02	-2.823853e+01
3.113484e+02	-2.828750e+01
3.131467e+02	-2.833990e+01
3.149554e+02	-2.839195e+01
3.167746e+02	-2.843944e+01
3.186043e+02	-2.849194e+01
3.204445e+02	-2.853840e+01
3.222954e+02	-2.859132e+01
3.241570e+02	-2.863702e+01
3.260293e+02	-2.868874e+01
3.279124e+02	-2.873604e+01
3.298064e+02	-2.878987e+01
3.317114e+02	-2.883943e+01
3.336273e+02	-2.889144e+01
3.355544e+02	-2.893563e+01
3.374925e+02	-2.899054e+01
3.394418e+02	-2.903887e+01
3.414024e+02	-2.909131e+01
3.433744e+02	-2.913843e+01
3.453577e+02	-2.919064e+01
3.473525e+02	-2.924097e+01
3.493588e+02	-2.929222e+01
3.513766e+02	-2.933698e+01
3.534062e+02	-2.939268e+01
3.554474e+02	-2.943943e+01
3.575005e+02	-2.948689e+01
3.595654e+02	-2.954401e+01
3.616422e+02	-2.958932e+01
3.637311e+02	-2.964103e+01
3.658320e+02	-2.969102e+01
3.679450e+02	-2.973756e+01
3.700702e+02	-2.979082e+01
3.722077e+02	-2.984268e+01
3.743576e+02	-2.988689e+01
3.765199e+02	-2.994261e+01
3.786946e+02	-2.999539e+01
3.808820e+02	-3.004504e+01
3.830819e+02	-3.009281e+01
3.852946e+02	-3.014095e+01
3.875200e+02	-3.018686e+01
3.897583e+02	-3.023784e+01
3.920096e+02	-3.028999e+01
3.942738e+02	-3.033842e+01
3.965511e+02	-3.039582e+01
3.988416e+02	-3.044707e+01
4.011452e+02	-3.049396e+01
4.034622e+02	-3.054298e+01
4.057926e+02	-3.058529e+01
4.081365e+02	-3.064065e+01
4.104938e+02	-3.068630e+01
4.128648e+02	-3.074444e+01
4.152495e+02	-3.078926e+01
4.176480e+02	-3.084012e+01
4.200603e+02	-3.089379e+01
4.224866e+02	-3.094164e+01
4.249268e+02	-3.099289e+01
4.273812e+02	-3.104245e+01
4.298497e+02	-3.109276e+01
4.323325e+02	-3.114374e+01
4.348297e+02	-3.119414e+01
4.373412e+02	-3.124917e+01
4.398673e+02	-3.129591e+01
4.424079e+02	-3.134159e+01
4.449633e+02	-3.139628e+01
4.475334e+02	-3.144319e+01
4.501183e+02	-3.149855e+01
4.527182e+02	-3.154776e+01
4.553330e+02	-3.159114e+01
4.579630e+02	-3.164693e+01
4.606082e+02	-3.169781e+01
4.632687e+02	-3.174611e+01
4.659445e+02	-3.178972e+01
4.686358e+02	-3.184186e+01
4.713426e+02	-3.189695e+01
4.740650e+02	-3.194410e+01
4.768032e+02	-3.199813e+01
4.795572e+02	-3.205361e+01
4.823271e+02	-3.210094e+01
4.851130e+02	-3.214596e+01
4.879150e+02	-3.219681e+01
4.907332e+02	-3.224334e+01
4.935676e+02	-3.229798e+01
4.964185e+02	-3.234819e+01
4.992858e+02	-3.240309e+01
5.021696e+02	-3.244961e+01
5.050701e+02	-3.249613e+01
5.079874e+02	-3.254789e+01
5.109215e+02	-3.260302e+01
5.138726e+02	-3.264873e+01
5.168407e+02	-3.270071e+01
5.198259e+02	-3.275799e+01
5.228284e+02	-3.279891e+01
5.258482e+02	-3.284385e+01
5.288855e+02	-3.289754e+01
5.319403e+02	-3.294954e+01
5.350128e+02	-3.300556e+01
5.381030e+02	-3.304630e+01
5.412111e+02	-3.310535e+01
5.443371e+02	-3.314897e+01
5.474812e+02	-3.320389e+01
5.506434e+02	-3.325445e+01
5.538239e+02	-3.330247e+01
5.570228e+02	-3.334968e+01
5.602401e+02	-3.340665e+01
5.634760e+02	-3.344816e+01
5.667306e+02	-3.349611e+01
5.700040e+02	-3.355092e+01
5.732964e+02	-3.360455e+01
5.766077e+02	-3.365213e+01
5.799382e+02	-3.370045e+01
5.832879e+02	-3.375637e+01
5.866569e+02	-3.380436e+01
5.900454e+02	-3.385444e+01
5.934535e+02	-3.390704e+01
5.968813e+02	-3.395531e+01
6.003288e+02	-3.400494e+01
6.037963e+02	-3.405960e+01
6.072838e+02	-3.410549e+01
6.107914e+02	-3.415467e+01
6.143194e+02	-3.420495e+01
6.178676e+02	-3.425959e+01
6.214364e+02	-3.431822e+01
6.250258e+02	-3.436152e+01
6.286359e+02	-3.440875e+01
6.322669e+02	-3.445940e+01
6.359189e+02	-3.450989e+01
6.395919e+02	-3.456075e+01
6.432862e+02	-3.461097e+01
6.470017e+02	-3.465098e+01
6.507388e+02	-3.470644e+01
6.544974e+02	-3.475190e+01
6.582778e+02	-3.481502e+01
6.620800e+02	-3.486514e+01
6.659041e+02	-3.491211e+01
6.697504e+02	-3.494449e+01
6.736188e+02	-3.501145e+01
6.775096e+02	-3.506654e+01
6.814229e+02	-3.511456e+01
6.853587e+02	-3.516350e+01
6.893173e+02	-3.522658e+01
6.932988e+02	-3.525228e+01
6.973033e+02	-3.531192e+01
7.013309e+02	-3.536232e+01
