Frequency(Hz)	Magnitude(dB)
1.000000e+01	-1.970738e+00
1.005776e+01	-1.989007e+00
1.011585e+01	-2.007314e+00
1.017428e+01	-2.025986e+00
1.023305e+01	-2.044868e+00
1.029215e+01	-2.063836e+00
1.035160e+01	-2.082530e+00
1.041139e+01	-2.101802e+00
1.047153e+01	-2.120913e+00
1.053201e+01	-2.140393e+00
1.059284e+01	-2.159905e+00
1.065403e+01	-2.179736e+00
1.071556e+01	-2.199282e+00
1.077746e+01	-2.219463e+00
1.083971e+01	-2.239471e+00
1.090232e+01	-2.259775e+00
1.096529e+01	-2.280097e+00
1.102862e+01	-2.300658e+00
1.109232e+01	-2.321248e+00
1.115639e+01	-2.342091e+00
1.122083e+01	-2.362901e+00
1.128564e+01	-2.384126e+00
1.135083e+01	-2.405141e+00
1.141639e+01	-2.426589e+00
1.148233e+01	-2.448114e+00
1.154865e+01	-2.469629e+00
1.161536e+01	-2.491306e+00
1.168245e+01	-2.513243e+00
1.174992e+01	-2.535284e+00
1.181779e+01	-2.557548e+00
1.188605e+01	-2.579954e+00
1.195470e+01	-2.602419e+00
1.202375e+01	-2.624969e+00
1.209320e+01	-2.647847e+00
1.216305e+01	-2.670491e+00
1.223330e+01	-2.693742e+00
1.230396e+01	-2.716929e+00
1.237503e+01	-2.740397e+00
1.244651e+01	-2.763556e+00
1.251840e+01	-2.787330e+00
1.259070e+01	-2.810941e+00
1.266343e+01	-2.834833e+00
1.273657e+01	-2.859025e+00
1.281014e+01	-2.883143e+00
1.288413e+01	-2.907643e+00
1.295855e+01	-2.932230e+00
1.303339e+01	-2.956576e+00
1.310867e+01	-2.981263e+00
1.318439e+01	-3.006332e+00
1.326054e+01	-3.031556e+00
1.333713e+01	-3.056740e+00
1.341417e+01	-3.081899e+00
1.349165e+01	-3.107653e+00
1.356958e+01	-3.133096e+00
1.364795e+01	-3.158988e+00
1.372678e+01	-3.185001e+00
1.380607e+01	-3.210764e+00
1.388581e+01	-3.237171e+00
1.396602e+01	-3.263651e+00
1.404668e+01	-3.290136e+00
1.412782e+01	-3.316701e+00
1.420942e+01	-3.343407e+00
1.429149e+01	-3.370369e+00
1.437404e+01	-3.397182e+00
1.445706e+01	-3.424510e+00
1.454057e+01	-3.452020e+00
1.462455e+01	-3.479520e+00
1.470902e+01	-3.507059e+00
1.479398e+01	-3.534965e+00
1.487943e+01	-3.562936e+00
1.496537e+01	-3.591072e+00
1.505181e+01	-3.619293e+00
1.513875e+01	-3.647333e+00
1.522619e+01	-3.675882e+00
1.531414e+01	-3.704852e+00
1.540259e+01	-3.733328e+00
1.549156e+01	-3.762551e+00
1.558103e+01	-3.791468e+00
1.567103e+01	-3.820419e+00
1.576155e+01	-3.849989e+00
1.585258e+01	-3.879232e+00
1.594415e+01	-3.909310e+00
1.603624e+01	-3.938616e+00
1.612886e+01	-3.968714e+00
1.622202e+01	-3.998536e+00
1.631572e+01	-4.029146e+00
1.640996e+01	-4.059258e+00
1.650474e+01	-4.089609e+00
1.660008e+01	-4.120195e+00
1.669596e+01	-4.150878e+00
1.679239e+01	-4.181749e+00
1.688938e+01	-4.212684e+00
1.698694e+01	-4.244067e+00
1.708505e+01	-4.275018e+00
1.718373e+01	-4.306825e+00
1.728299e+01	-4.338143e+00
1.738281e+01	-4.369837e+00
1.748322e+01	-4.401667e+00
1.758420e+01	-4.433614e+00
1.768576e+01	-4.465761e+00
1.778792e+01	-4.497846e+00
1.789066e+01	-4.529815e+00
1.799399e+01	-4.562842e+00
1.809793e+01	-4.595246e+00
1.820246e+01	-4.628213e+00
1.830760e+01	-4.660592e+00
1.841334e+01	-4.693695e+00
1.851969e+01	-4.727260e+00
1.862666e+01	-4.760116e+00
1.873425e+01	-4.793656e+00
1.884246e+01	-4.827178e+00
1.895129e+01	-4.860693e+00
1.906075e+01	-4.894398e+00
1.917085e+01	-4.928215e+00
1.928158e+01	-4.962385e+00
1.939295e+01	-4.996276e+00
1.950496e+01	-5.030721e+00
1.961762e+01	-5.065122e+00
1.973093e+01	-5.099409e+00
1.984490e+01	-5.134173e+00
1.995952e+01	-5.168827e+00
2.007480e+01	-5.203830e+00
2.019076e+01	-5.239035e+00
2.030738e+01	-5.273807e+00
2.042467e+01	-5.309342e+00
2.054264e+01	-5.344575e+00
2.066130e+01	-5.379795e+00
2.078064e+01	-5.415513e+00
2.090066e+01	-5.451307e+00
2.102139e+01	-5.487381e+00
2.114280e+01	-5.523243e+00
2.126492e+01	-5.559233e+00
2.138775e+01	-5.595336e+00
2.151128e+01	-5.631499e+00
2.163553e+01	-5.668041e+00
2.176050e+01	-5.704178e+00
2.188619e+01	-5.740906e+00
2.201260e+01	-5.777973e+00
2.213974e+01	-5.814785e+00
2.226762e+01	-5.851823e+00
2.239624e+01	-5.888963e+00
2.252560e+01	-5.926075e+00
2.265571e+01	-5.963470e+00
2.278656e+01	-6.000479e+00
2.291818e+01	-6.038152e+00
2.305055e+01	-6.076117e+00
2.318369e+01	-6.113715e+00
2.331760e+01	-6.151480e+00
2.345228e+01	-6.189366e+00
2.358774e+01	-6.227186e+00
2.372398e+01	-6.265926e+00
2.386101e+01	-6.303764e+00
2.399883e+01	-6.342430e+00
2.413745e+01	-6.381189e+00
2.427686e+01	-6.419024e+00
2.441709e+01	-6.458032e+00
2.455812e+01	-6.496401e+00
2.469997e+01	-6.535711e+00
2.484263e+01	-6.574037e+00
2.498612e+01	-6.613086e+00
2.513044e+01	-6.652839e+00
2.527559e+01	-6.691687e+00
2.542158e+01	-6.731230e+00
2.556842e+01	-6.770728e+00
2.571610e+01	-6.809809e+00
2.586463e+01	-6.850028e+00
2.601403e+01	-6.889644e+00
2.616428e+01	-6.929719e+00
2.631541e+01	-6.969624e+00
2.646740e+01	-7.009594e+00
2.662028e+01	-7.049958e+00
2.677404e+01	-7.090108e+00
2.692868e+01	-7.130453e+00
2.708422e+01	-7.170158e+00
2.724066e+01	-7.210833e+00
2.739800e+01	-7.251881e+00
2.755625e+01	-7.292313e+00
2.771541e+01	-7.332897e+00
2.787550e+01	-7.373579e+00
2.803650e+01	-7.414428e+00
2.819844e+01	-7.455307e+00
2.836131e+01	-7.496663e+00
2.852513e+01	-7.537763e+00
2.868989e+01	-7.579309e+00
2.885560e+01	-7.620432e+00
2.902227e+01	-7.661572e+00
2.918990e+01	-7.703387e+00
2.935850e+01	-7.745133e+00
2.952807e+01	-7.786382e+00
2.969863e+01	-7.828115e+00
2.987016e+01	-7.870292e+00
3.004269e+01	-7.912530e+00
3.021622e+01	-7.954032e+00
3.039075e+01	-7.996160e+00
3.056628e+01	-8.038027e+00
3.074283e+01	-8.080340e+00
3.092040e+01	-8.122973e+00
3.109900e+01	-8.165227e+00
3.127862e+01	-8.207208e+00
3.145929e+01	-8.250004e+00
3.164099e+01	-8.292181e+00
3.182375e+01	-8.335471e+00
3.200756e+01	-8.377616e+00
3.219244e+01	-8.420979e+00
3.237838e+01	-8.463192e+00
3.256540e+01	-8.506295e+00
3.275349e+01	-8.549529e+00
3.294268e+01	-8.592172e+00
3.313295e+01	-8.636094e+00
3.332433e+01	-8.678946e+00
3.351681e+01	-8.722088e+00
3.371040e+01	-8.765469e+00
3.390511e+01	-8.808915e+00
3.410094e+01	-8.852127e+00
3.429791e+01	-8.896134e+00
3.449601e+01	-8.939792e+00
3.469526e+01	-8.983161e+00
3.489566e+01	-9.026738e+00
3.509721e+01	-9.070411e+00
3.529993e+01	-9.114881e+00
3.550382e+01	-9.158616e+00
3.570889e+01	-9.202413e+00
3.591515e+01	-9.246465e+00
3.612259e+01	-9.290576e+00
3.633123e+01	-9.334370e+00
3.654108e+01	-9.379087e+00
3.675214e+01	-9.423005e+00
3.696442e+01	-9.467812e+00
3.717792e+01	-9.512184e+00
3.739266e+01	-9.556344e+00
3.760864e+01	-9.601130e+00
3.782587e+01	-9.645785e+00
3.804435e+01	-9.690256e+00
3.826409e+01	-9.734956e+00
3.848510e+01	-9.780007e+00
3.870739e+01	-9.824617e+00
3.893096e+01	-9.869563e+00
3.915583e+01	-9.914504e+00
3.938199e+01	-9.959573e+00
3.960946e+01	-1.000442e+01
3.983824e+01	-1.004926e+01
4.006834e+01	-1.009438e+01
4.029978e+01	-1.013965e+01
4.053255e+01	-1.018396e+01
4.076666e+01	-1.023004e+01
4.100213e+01	-1.027515e+01
4.123896e+01	-1.032050e+01
4.147715e+01	-1.036588e+01
4.171672e+01	-1.041147e+01
4.195767e+01	-1.045724e+01
4.220002e+01	-1.050285e+01
4.244377e+01	-1.054798e+01
4.268892e+01	-1.059381e+01
4.293549e+01	-1.063922e+01
4.318348e+01	-1.068504e+01
4.343291e+01	-1.073113e+01
4.368377e+01	-1.077687e+01
4.393609e+01	-1.082261e+01
4.418986e+01	-1.086858e+01
4.444510e+01	-1.091466e+01
4.470182e+01	-1.096082e+01
4.496001e+01	-1.100666e+01
4.521970e+01	-1.105285e+01
4.548089e+01	-1.109875e+01
4.574358e+01	-1.114506e+01
4.600779e+01	-1.119178e+01
4.627353e+01	-1.123717e+01
4.654081e+01	-1.128444e+01
4.680963e+01	-1.133013e+01
4.708000e+01	-1.137573e+01
4.735193e+01	-1.142315e+01
4.762543e+01	-1.146898e+01
4.790051e+01	-1.151513e+01
4.817719e+01	-1.156243e+01
4.845545e+01	-1.160948e+01
4.873533e+01	-1.165526e+01
4.901682e+01	-1.170151e+01
4.929994e+01	-1.174784e+01
4.958470e+01	-1.179515e+01
4.987110e+01	-1.184176e+01
5.015915e+01	-1.188814e+01
5.044887e+01	-1.193616e+01
5.074026e+01	-1.198238e+01
5.103333e+01	-1.202965e+01
5.132810e+01	-1.207625e+01
5.162457e+01	-1.212311e+01
5.192275e+01	-1.217009e+01
5.222265e+01	-1.221711e+01
5.252429e+01	-1.226371e+01
5.282767e+01	-1.231137e+01
5.313280e+01	-1.235861e+01
5.343969e+01	-1.240583e+01
5.374836e+01	-1.245311e+01
5.405880e+01	-1.250021e+01
5.437105e+01	-1.254726e+01
5.468509e+01	-1.259466e+01
5.500095e+01	-1.264131e+01
5.531863e+01	-1.268896e+01
5.563815e+01	-1.273658e+01
5.595951e+01	-1.278346e+01
5.628273e+01	-1.283134e+01
5.660782e+01	-1.287846e+01
5.693479e+01	-1.292608e+01
5.726364e+01	-1.297306e+01
5.759439e+01	-1.302157e+01
5.792705e+01	-1.306908e+01
5.826164e+01	-1.311659e+01
5.859815e+01	-1.316344e+01
5.893662e+01	-1.321098e+01
5.927703e+01	-1.325819e+01
5.961941e+01	-1.330700e+01
5.996377e+01	-1.335424e+01
6.031012e+01	-1.340113e+01
6.065847e+01	-1.344984e+01
6.100883e+01	-1.349744e+01
6.136121e+01	-1.354510e+01
6.171563e+01	-1.359280e+01
6.207210e+01	-1.364154e+01
6.243063e+01	-1.368923e+01
6.279122e+01	-1.373680e+01
6.315390e+01	-1.378463e+01
6.351868e+01	-1.383314e+01
6.388556e+01	-1.388025e+01
6.425456e+01	-1.392846e+01
6.462569e+01	-1.397707e+01
6.499897e+01	-1.402459e+01
6.537440e+01	-1.407285e+01
6.575200e+01	-1.412081e+01
6.613178e+01	-1.416911e+01
6.651375e+01	-1.421668e+01
6.689793e+01	-1.426566e+01
6.728433e+01	-1.431313e+01
6.767297e+01	-1.436167e+01
6.806384e+01	-1.440928e+01
6.845698e+01	-1.445822e+01
6.885238e+01	-1.450619e+01
6.925007e+01	-1.455493e+01
6.965005e+01	-1.460276e+01
7.005235e+01	-1.465048e+01
7.045697e+01	-1.469927e+01
7.086393e+01	-1.474787e+01
7.127323e+01	-1.479645e+01
7.168490e+01	-1.484483e+01
7.209895e+01	-1.489357e+01
7.251539e+01	-1.494177e+01
7.293424e+01	-1.498963e+01
7.335551e+01	-1.503799e+01
7.377920e+01	-1.508628e+01
7.420535e+01	-1.513483e+01
7.463396e+01	-1.518266e+01
7.506504e+01	-1.523162e+01
7.549861e+01	-1.528013e+01
7.593469e+01	-1.532856e+01
7.637328e+01	-1.537688e+01
7.681441e+01	-1.542629e+01
7.725809e+01	-1.547548e+01
7.770433e+01	-1.552354e+01
7.815315e+01	-1.557218e+01
7.860456e+01	-1.562096e+01
7.905857e+01	-1.566896e+01
7.951521e+01	-1.571888e+01
7.997449e+01	-1.576690e+01
8.043642e+01	-1.581549e+01
8.090102e+01	-1.586472e+01
8.136830e+01	-1.591321e+01
8.183828e+01	-1.596172e+01
8.231097e+01	-1.601101e+01
8.278640e+01	-1.605978e+01
8.326457e+01	-1.610850e+01
8.374550e+01	-1.615795e+01
8.422921e+01	-1.620664e+01
8.471572e+01	-1.625613e+01
8.520503e+01	-1.630431e+01
8.569717e+01	-1.635240e+01
8.619215e+01	-1.640100e+01
8.669000e+01	-1.645037e+01
8.719071e+01	-1.649877e+01
8.769432e+01	-1.654851e+01
8.820084e+01	-1.659716e+01
8.871029e+01	-1.664604e+01
8.922267e+01	-1.669583e+01
8.973802e+01	-1.674356e+01
9.025634e+01	-1.679231e+01
9.077766e+01	-1.684054e+01
9.130199e+01	-1.689083e+01
9.182935e+01	-1.694002e+01
9.235975e+01	-1.698783e+01
9.289321e+01	-1.703883e+01
9.342976e+01	-1.708556e+01
9.396941e+01	-1.713553e+01
9.451217e+01	-1.718507e+01
9.505807e+01	-1.723338e+01
9.560712e+01	-1.728363e+01
9.615934e+01	-1.733260e+01
9.671476e+01	-1.738120e+01
9.727338e+01	-1.743037e+01
9.783522e+01	-1.747982e+01
9.840032e+01	-1.752840e+01
9.896867e+01	-1.757793e+01
9.954031e+01	-1.762684e+01
1.001153e+02	-1.767668e+01
1.006935e+02	-1.772634e+01
1.012751e+02	-1.777426e+01
1.018601e+02	-1.782354e+01
1.024484e+02	-1.787287e+01
1.030402e+02	-1.792277e+01
1.036353e+02	-1.797286e+01
1.042339e+02	-1.802035e+01
1.048360e+02	-1.807029e+01
1.054415e+02	-1.811915e+01
1.060505e+02	-1.816876e+01
1.066631e+02	-1.821870e+01
1.072791e+02	-1.826825e+01
1.078988e+02	-1.831622e+01
1.085220e+02	-1.836626e+01
1.091488e+02	-1.841593e+01
1.097793e+02	-1.846387e+01
1.104133e+02	-1.851349e+01
1.110511e+02	-1.856273e+01
1.116925e+02	-1.861219e+01
1.123376e+02	-1.866215e+01
1.129865e+02	-1.871159e+01
1.136391e+02	-1.876028e+01
1.142955e+02	-1.880972e+01
1.149556e+02	-1.885741e+01
1.156196e+02	-1.890913e+01
1.162874e+02	-1.895802e+01
1.169591e+02	-1.900742e+01
1.176347e+02	-1.905669e+01
1.183141e+02	-1.910592e+01
1.189975e+02	-1.915566e+01
1.196848e+02	-1.920510e+01
1.203761e+02	-1.925559e+01
1.210714e+02	-1.930431e+01
1.217707e+02	-1.935478e+01
1.224740e+02	-1.940356e+01
1.231814e+02	-1.945619e+01
1.238929e+02	-1.950212e+01
1.246085e+02	-1.955048e+01
1.253283e+02	-1.960119e+01
1.260522e+02	-1.964958e+01
1.267802e+02	-1.970081e+01
1.275125e+02	-1.974947e+01
1.282490e+02	-1.979915e+01
1.289898e+02	-1.984662e+01
1.297348e+02	-1.989729e+01
1.304842e+02	-1.994771e+01
1.312378e+02	-1.999675e+01
1.319959e+02	-2.004644e+01
1.327583e+02	-2.009858e+01
1.335251e+02	-2.014685e+01
1.342963e+02	-2.019550e+01
1.350720e+02	-2.024573e+01
1.358522e+02	-2.029451e+01
1.366368e+02	-2.034376e+01
1.374260e+02	-2.039335e+01
1.382198e+02	-2.044313e+01
1.390182e+02	-2.049307e+01
1.398211e+02	-2.054199e+01
1.406287e+02	-2.059235e+01
1.414410e+02	-2.064077e+01
1.422579e+02	-2.069133e+01
1.430796e+02	-2.073955e+01
1.439060e+02	-2.078928e+01
1.447372e+02	-2.084001e+01
1.455732e+02	-2.089032e+01
1.464141e+02	-2.093869e+01
1.472597e+02	-2.098950e+01
1.481103e+02	-2.103884e+01
1.489658e+02	-2.108698e+01
1.498262e+02	-2.113640e+01
1.506916e+02	-2.118936e+01
1.515620e+02	-2.123738e+01
1.524374e+02	-2.128716e+01
1.533179e+02	-2.133554e+01
1.542034e+02	-2.138610e+01
1.550941e+02	-2.143461e+01
1.559899e+02	-2.148761e+01
1.568909e+02	-2.153462e+01
1.577971e+02	-2.158663e+01
1.587085e+02	-2.163579e+01
1.596252e+02	-2.168410e+01
1.605472e+02	-2.173413e+01
1.614745e+02	-2.178439e+01
1.624072e+02	-2.183258e+01
1.633453e+02	-2.188193e+01
1.642887e+02	-2.193341e+01
1.652377e+02	-2.198438e+01
1.661921e+02	-2.203237e+01
1.671520e+02	-2.208143e+01
1.681175e+02	-2.213203e+01
1.690885e+02	-2.218080e+01
1.700651e+02	-2.223200e+01
1.710474e+02	-2.228249e+01
1.720354e+02	-2.233102e+01
1.730291e+02	-2.237883e+01
1.740285e+02	-2.243069e+01
1.750337e+02	-2.247973e+01
1.760446e+02	-2.253181e+01
1.770615e+02	-2.257952e+01
1.780842e+02	-2.263113e+01
1.791128e+02	-2.267942e+01
1.801473e+02	-2.272788e+01
1.811878e+02	-2.277960e+01
1.822344e+02	-2.283043e+01
1.832870e+02	-2.287884e+01
1.843456e+02	-2.292918e+01
1.854104e+02	-2.297720e+01
1.864813e+02	-2.302690e+01
1.875584e+02	-2.307649e+01
1.886418e+02	-2.312720e+01
1.897313e+02	-2.317787e+01
1.908272e+02	-2.322629e+01
1.919294e+02	-2.327693e+01
1.930380e+02	-2.332671e+01
1.941530e+02	-2.337525e+01
1.952744e+02	-2.342686e+01
1.964023e+02	-2.347778e+01
1.975367e+02	-2.352339e+01
1.986777e+02	-2.357496e+01
1.998252e+02	-2.362363e+01
2.009794e+02	-2.367505e+01
2.021403e+02	-2.372439e+01
2.033078e+02	-2.377353e+01
2.044821e+02	-2.382515e+01
2.056632e+02	-2.387348e+01
2.068511e+02	-2.392422e+01
2.080459e+02	-2.397520e+01
2.092475e+02	-2.402396e+01
2.104561e+02	-2.407319e+01
2.116717e+02	-2.412559e+01
2.128943e+02	-2.417447e+01
2.141240e+02	-2.422485e+01
2.153608e+02	-2.427371e+01
2.166047e+02	-2.432483e+01
2.178558e+02	-2.437620e+01
2.191141e+02	-2.442344e+01
2.203797e+02	-2.447286e+01
2.216526e+02	-2.452230e+01
2.229329e+02	-2.457334e+01
2.242205e+02	-2.462486e+01
2.255156e+02	-2.467400e+01
2.268182e+02	-2.472306e+01
2.281283e+02	-2.477501e+01
2.294459e+02	-2.482101e+01
2.307712e+02	-2.487152e+01
2.321041e+02	-2.492170e+01
2.334447e+02	-2.497095e+01
2.347931e+02	-2.502205e+01
2.361493e+02	-2.507291e+01
2.375133e+02	-2.512108e+01
2.388851e+02	-2.517269e+01
2.402649e+02	-2.522244e+01
2.416527e+02	-2.527197e+01
2.430484e+02	-2.532203e+01
2.444523e+02	-2.537096e+01
2.458642e+02	-2.542190e+01
2.472843e+02	-2.547398e+01
2.487126e+02	-2.552217e+01
2.501492e+02	-2.557109e+01
2.515940e+02	-2.562083e+01
2.530472e+02	-2.566997e+01
2.545088e+02	-2.572180e+01
2.559789e+02	-2.577202e+01
2.574574e+02	-2.582061e+01
2.589444e+02	-2.587090e+01
2.604401e+02	-2.591929e+01
2.619444e+02	-2.596994e+01
2.634574e+02	-2.601873e+01
2.649791e+02	-2.606868e+01
2.665096e+02	-2.612102e+01
2.680489e+02	-2.617071e+01
2.695972e+02	-2.622250e+01
2.711544e+02	-2.626800e+01
2.727205e+02	-2.631936e+01
2.742958e+02	-2.637131e+01
2.758801e+02	-2.642033e+01
2.774736e+02	-2.647371e+01
2.790762e+02	-2.652348e+01
2.806882e+02	-2.656964e+01
2.823094e+02	-2.662105e+01
2.839400e+02	-2.667208e+01
2.855800e+02	-2.671465e+01
2.872295e+02	-2.677083e+01
2.888886e+02	-2.682107e+01
2.905572e+02	-2.686993e+01
2.922354e+02	-2.691654e+01
2.939234e+02	-2.697171e+01
2.956211e+02	-2.702302e+01
2.973286e+02	-2.706907e+01
2.990459e+02	-2.711778e+01
3.007732e+02	-2.717294e+01
3.025104e+02	-2.722046e+01
3.042577e+02	-2.727165e+01
3.060151e+02	-2.732030e+01
3.077826e+02	-2.737111e+01
3.095604e+02	-2.741942e+01
3.113484e+02	-2.746903e+01
3.131467e+02	-2.752157e+01
3.149554e+02	-2.756895e+01
3.167746e+02	-2.761853e+01
3.186043e+02	-2.767127e+01
3.204445e+02	-2.772385e+01
3.222954e+02	-2.776928e+01
3.241570e+02	-2.781717e+01
3.260293e+02	-2.787247e+01
3.279124e+02	-2.792064e+01
3.298064e+02	-2.797213e+01
3.317114e+02	-2.801965e+01
3.336273e+02	-2.807004e+01
3.355544e+02	-2.812346e+01
3.374925e+02	-2.817295e+01
3.394418e+02	-2.821954e+01
3.414024e+02	-2.827022e+01
3.433744e+02	-2.832221e+01
3.453577e+02	-2.837281e+01
3.473525e+02	-2.841922e+01
3.493588e+02	-2.847053e+01
3.513766e+02	-2.852119e+01
3.534062e+02	-2.856816e+01
3.554474e+02	-2.861960e+01
3.575005e+02	-2.867013e+01
3.595654e+02	-2.872472e+01
3.616422e+02	-2.877110e+01
3.637311e+02	-2.881773e+01
3.658320e+02	-2.886978e+01
3.679450e+02	-2.892211e+01
3.700702e+02	-2.897405e+01
3.722077e+02	-2.902278e+01
3.743576e+02	-2.907544e+01
3.765199e+02	-2.911903e+01
3.786946e+02	-2.916912e+01
3.808820e+02	-2.921857e+01
3.830819e+02	-2.927172e+01
3.852946e+02	-2.932009e+01
3.875200e+02	-2.937359e+01
3.897583e+02	-2.941921e+01
3.920096e+02	-2.947130e+01
3.942738e+02	-2.951991e+01
3.965511e+02	-2.957073e+01
3.988416e+02	-2.962179e+01
4.011452e+02	-2.967223e+01
4.034622e+02	-2.972084e+01
4.057926e+02	-2.976802e+01
4.081365e+02	-2.982202e+01
4.104938e+02	-2.987129e+01
4.128648e+02	-2.991963e+01
4.152495e+02	-2.997253e+01
4.176480e+02	-3.002163e+01
4.200603e+02	-3.007356e+01
4.224866e+02	-3.012296e+01
4.249268e+02	-3.017191e+01
4.273812e+02	-3.022448e+01
4.298497e+02	-3.027069e+01
4.323325e+02	-3.032245e+01
4.348297e+02	-3.037465e+01
4.373412e+02	-3.042377e+01
4.398673e+02	-3.047532e+01
4.424079e+02	-3.052084e+01
4.449633e+02	-3.057372e+01
4.475334e+02	-3.062136e+01
4.501183e+02	-3.067048e+01
4.527182e+02	-3.072273e+01
4.553330e+02	-3.077542e+01
4.579630e+02	-3.082339e+01
4.606082e+02	-3.087767e+01
4.632687e+02	-3.092188e+01
4.659445e+02	-3.097153e+01
4.686358e+02	-3.102066e+01
4.713426e+02	-3.107564e+01
4.740650e+02	-3.112461e+01
4.768032e+02	-3.117467e+01
4.795572e+02	-3.122876e+01
4.823271e+02	-3.128153e+01
4.851130e+02	-3.132933e+01
4.879150e+02	-3.137922e+01
4.907332e+02	-3.142323e+01
4.935676e+02	-3.147521e+01
4.964185e+02	-3.152394e+01
4.992858e+02	-3.157592e+01
5.021696e+02	-3.162883e+01
5.050701e+02	-3.167995e+01
5.079874e+02	-3.172543e+01
5.109215e+02	-3.177554e+01
5.138726e+02	-3.182632e+01
5.168407e+02	-3.188221e+01
5.198259e+02	-3.192830e+01
5.228284e+02	-3.197897e+01
5.258482e+02	-3.202665e+01
5.288855e+02	-3.207731e+01
5.319403e+02	-3.213075e+01
5.350128e+02	-3.217512e+01
5.381030e+02	-3.222667e+01
5.412111e+02	-3.227469e+01
5.443371e+02	-3.232901e+01
5.474812e+02	-3.238146e+01
5.506434e+02	-3.243528e+01
5.538239e+02	-3.247873e+01
5.570228e+02	-3.252877e+01
5.602401e+02	-3.258562e+01
5.634760e+02	-3.263448e+01
5.667306e+02	-3.268018e+01
5.700040e+02	-3.273651e+01
5.732964e+02	-3.278361e+01
5.766077e+02	-3.282876e+01
5.799382e+02	-3.288248e+01
5.832879e+02	-3.293035e+01
5.866569e+02	-3.298543e+01
5.900454e+02	-3.303009e+01
5.934535e+02	-3.308731e+01
5.968813e+02	-3.313437e+01
6.003288e+02	-3.319009e+01
6.037963e+02	-3.323813e+01
6.072838e+02	-3.328345e+01
6.107914e+02	-3.333200e+01
6.143194e+02	-3.338043e+01
6.178676e+02	-3.343950e+01
6.214364e+02	-3.348745e+01
6.250258e+02	-3.353195e+01
6.286359e+02	-3.358507e+01
6.322669e+02	-3.362844e+01
6.359189e+02	-3.368664e+01
6.395919e+02	-3.373521e+01
6.432862e+02	-3.378155e+01
6.470017e+02	-3.383947e+01
6.507388e+02	-3.388489e+01
6.544974e+02	-3.393919e+01
6.582778e+02	-3.398129e+01
6.620800e+02	-3.403984e+01
6.659041e+02	-3.408751e+01
6.697504e+02	-3.413641e+01
6.736188e+02	-3.419085e+01
6.775096e+02	-3.424203e+01
6.814229e+02	-3.429471e+01
6.853587e+02	-3.434319e+01
6.893173e+02	-3.439211e+01
6.932988e+02	-3.443366e+01
6.973033e+02	-3.449313e+01
7.013309e+02	-3.454233e+01
