Frequency(Hz)	Magnitude(dB)
1.000000e+01	-1.972496e+00
1.005776e+01	-1.990901e+00
1.011585e+01	-2.009440e+00
1.017428e+01	-2.027910e+00
1.023305e+01	-2.046534e+00
1.029215e+01	-2.065433e+00
1.035160e+01	-2.084394e+00
1.041139e+01	-2.103562e+00
1.047153e+01	-2.122866e+00
1.053201e+01	-2.142063e+00
1.059284e+01	-2.161863e+00
1.065403e+01	-2.181390e+00
1.071556e+01	-2.201443e+00
1.077746e+01	-2.221383e+00
1.083971e+01	-2.241409e+00
1.090232e+01	-2.261530e+00
1.096529e+01	-2.282046e+00
1.102862e+01	-2.302742e+00
1.109232e+01	-2.323275e+00
1.115639e+01	-2.343962e+00
1.122083e+01	-2.364661e+00
1.128564e+01	-2.385980e+00
1.135083e+01	-2.407137e+00
1.141639e+01	-2.428619e+00
1.148233e+01	-2.450026e+00
1.154865e+01	-2.471719e+00
1.161536e+01	-2.493349e+00
1.168245e+01	-2.515298e+00
1.174992e+01	-2.537593e+00
1.181779e+01	-2.559577e+00
1.188605e+01	-2.582084e+00
1.195470e+01	-2.604598e+00
1.202375e+01	-2.627271e+00
1.209320e+01	-2.649810e+00
1.216305e+01	-2.672944e+00
1.223330e+01	-2.695680e+00
1.230396e+01	-2.719061e+00
1.237503e+01	-2.742343e+00
1.244651e+01	-2.765946e+00
1.251840e+01	-2.789686e+00
1.259070e+01	-2.813488e+00
1.266343e+01	-2.837287e+00
1.273657e+01	-2.861394e+00
1.281014e+01	-2.885628e+00
1.288413e+01	-2.910013e+00
1.295855e+01	-2.934314e+00
1.303339e+01	-2.959002e+00
1.310867e+01	-2.983647e+00
1.318439e+01	-3.008752e+00
1.326054e+01	-3.033847e+00
1.333713e+01	-3.059058e+00
1.341417e+01	-3.084397e+00
1.349165e+01	-3.110053e+00
1.356958e+01	-3.135408e+00
1.364795e+01	-3.161378e+00
1.372678e+01	-3.187328e+00
1.380607e+01	-3.213175e+00
1.388581e+01	-3.239711e+00
1.396602e+01	-3.265925e+00
1.404668e+01	-3.292261e+00
1.412782e+01	-3.319234e+00
1.420942e+01	-3.346041e+00
1.429149e+01	-3.372985e+00
1.437404e+01	-3.400166e+00
1.445706e+01	-3.427372e+00
1.454057e+01	-3.454879e+00
1.462455e+01	-3.482063e+00
1.470902e+01	-3.509781e+00
1.479398e+01	-3.537364e+00
1.487943e+01	-3.565670e+00
1.496537e+01	-3.593743e+00
1.505181e+01	-3.621737e+00
1.513875e+01	-3.650039e+00
1.522619e+01	-3.678751e+00
1.531414e+01	-3.707471e+00
1.540259e+01	-3.736045e+00
1.549156e+01	-3.765069e+00
1.558103e+01	-3.794320e+00
1.567103e+01	-3.823548e+00
1.576155e+01	-3.852875e+00
1.585258e+01	-3.882047e+00
1.594415e+01	-3.911786e+00
1.603624e+01	-3.941460e+00
1.612886e+01	-3.971365e+00
1.622202e+01	-4.001416e+00
1.631572e+01	-4.031648e+00
1.640996e+01	-4.061895e+00
1.650474e+01	-4.092550e+00
1.660008e+01	-4.123110e+00
1.669596e+01	-4.153689e+00
1.679239e+01	-4.184665e+00
1.688938e+01	-4.215534e+00
1.698694e+01	-4.247025e+00
1.708505e+01	-4.278186e+00
1.718373e+01	-4.309388e+00
1.728299e+01	-4.340950e+00
1.738281e+01	-4.372896e+00
1.748322e+01	-4.404527e+00
1.758420e+01	-4.436585e+00
1.768576e+01	-4.468754e+00
1.778792e+01	-4.500898e+00
1.789066e+01	-4.533117e+00
1.799399e+01	-4.565459e+00
1.809793e+01	-4.598434e+00
1.820246e+01	-4.631229e+00
1.830760e+01	-4.663891e+00
1.841334e+01	-4.696842e+00
1.851969e+01	-4.729784e+00
1.862666e+01	-4.763143e+00
1.873425e+01	-4.796704e+00
1.884246e+01	-4.830142e+00
1.895129e+01	-4.863736e+00
1.906075e+01	-4.897383e+00
1.917085e+01	-4.931395e+00
1.928158e+01	-4.965182e+00
1.939295e+01	-4.999645e+00
1.950496e+01	-5.034266e+00
1.961762e+01	-5.068095e+00
1.973093e+01	-5.103008e+00
1.984490e+01	-5.137054e+00
1.995952e+01	-5.172213e+00
2.007480e+01	-5.207154e+00
2.019076e+01	-5.242237e+00
2.030738e+01	-5.277266e+00
2.042467e+01	-5.312269e+00
2.054264e+01	-5.347810e+00
2.066130e+01	-5.382979e+00
2.078064e+01	-5.418980e+00
2.090066e+01	-5.454638e+00
2.102139e+01	-5.490635e+00
2.114280e+01	-5.526644e+00
2.126492e+01	-5.562222e+00
2.138775e+01	-5.598754e+00
2.151128e+01	-5.634982e+00
2.163553e+01	-5.671184e+00
2.176050e+01	-5.707854e+00
2.188619e+01	-5.744223e+00
2.201260e+01	-5.781465e+00
2.213974e+01	-5.818159e+00
2.226762e+01	-5.855367e+00
2.239624e+01	-5.892200e+00
2.252560e+01	-5.929720e+00
2.265571e+01	-5.966509e+00
2.278656e+01	-6.004385e+00
2.291818e+01	-6.041734e+00
2.305055e+01	-6.079409e+00
2.318369e+01	-6.116975e+00
2.331760e+01	-6.155138e+00
2.345228e+01	-6.192811e+00
2.358774e+01	-6.230831e+00
2.372398e+01	-6.269293e+00
2.386101e+01	-6.307342e+00
2.399883e+01	-6.345838e+00
2.413745e+01	-6.384267e+00
2.427686e+01	-6.422743e+00
2.441709e+01	-6.461801e+00
2.455812e+01	-6.500244e+00
2.469997e+01	-6.539039e+00
2.484263e+01	-6.578014e+00
2.498612e+01	-6.617121e+00
2.513044e+01	-6.656540e+00
2.527559e+01	-6.695664e+00
2.542158e+01	-6.735022e+00
2.556842e+01	-6.774159e+00
2.571610e+01	-6.813745e+00
2.586463e+01	-6.853396e+00
2.601403e+01	-6.893302e+00
2.616428e+01	-6.933400e+00
2.631541e+01	-6.973243e+00
2.646740e+01	-7.013116e+00
2.662028e+01	-7.053337e+00
2.677404e+01	-7.093440e+00
2.692868e+01	-7.133455e+00
2.708422e+01	-7.174234e+00
2.724066e+01	-7.214924e+00
2.739800e+01	-7.254995e+00
2.755625e+01	-7.295696e+00
2.771541e+01	-7.336488e+00
2.787550e+01	-7.377585e+00
2.803650e+01	-7.418014e+00
2.819844e+01	-7.459402e+00
2.836131e+01	-7.500194e+00
2.852513e+01	-7.541938e+00
2.868989e+01	-7.582638e+00
2.885560e+01	-7.624518e+00
2.902227e+01	-7.665759e+00
2.918990e+01	-7.707128e+00
2.935850e+01	-7.749137e+00
2.952807e+01	-7.790180e+00
2.969863e+01	-7.832320e+00
2.987016e+01	-7.874174e+00
3.004269e+01	-7.915606e+00
3.021622e+01	-7.957736e+00
3.039075e+01	-7.999783e+00
3.056628e+01	-8.042130e+00
3.074283e+01	-8.083914e+00
3.092040e+01	-8.126446e+00
3.109900e+01	-8.169203e+00
3.127862e+01	-8.211441e+00
3.145929e+01	-8.254300e+00
3.164099e+01	-8.296571e+00
3.182375e+01	-8.339411e+00
3.200756e+01	-8.381620e+00
3.219244e+01	-8.424272e+00
3.237838e+01	-8.467714e+00
3.256540e+01	-8.510380e+00
3.275349e+01	-8.553669e+00
3.294268e+01	-8.596448e+00
3.313295e+01	-8.639846e+00
3.332433e+01	-8.682512e+00
3.351681e+01	-8.726125e+00
3.371040e+01	-8.769266e+00
3.390511e+01	-8.812779e+00
3.410094e+01	-8.856526e+00
3.429791e+01	-8.899791e+00
3.449601e+01	-8.943689e+00
3.469526e+01	-8.987094e+00
3.489566e+01	-9.031148e+00
3.509721e+01	-9.074783e+00
3.529993e+01	-9.118678e+00
3.550382e+01	-9.163009e+00
3.570889e+01	-9.206528e+00
3.591515e+01	-9.250648e+00
3.612259e+01	-9.294871e+00
3.633123e+01	-9.339260e+00
3.654108e+01	-9.383632e+00
3.675214e+01	-9.427649e+00
3.696442e+01	-9.472137e+00
3.717792e+01	-9.516476e+00
3.739266e+01	-9.560315e+00
3.760864e+01	-9.605188e+00
3.782587e+01	-9.649801e+00
3.804435e+01	-9.695159e+00
3.826409e+01	-9.739211e+00
3.848510e+01	-9.784145e+00
3.870739e+01	-9.828861e+00
3.893096e+01	-9.873660e+00
3.915583e+01	-9.918602e+00
3.938199e+01	-9.963526e+00
3.960946e+01	-1.000811e+01
3.983824e+01	-1.005354e+01
4.006834e+01	-1.009865e+01
4.029978e+01	-1.014354e+01
4.053255e+01	-1.018914e+01
4.076666e+01	-1.023370e+01
4.100213e+01	-1.027959e+01
4.123896e+01	-1.032481e+01
4.147715e+01	-1.037070e+01
4.171672e+01	-1.041591e+01
4.195767e+01	-1.046117e+01
4.220002e+01	-1.050685e+01
4.244377e+01	-1.055242e+01
4.268892e+01	-1.059827e+01
4.293549e+01	-1.064418e+01
4.318348e+01	-1.068991e+01
4.343291e+01	-1.073552e+01
4.368377e+01	-1.078098e+01
4.393609e+01	-1.082714e+01
4.418986e+01	-1.087289e+01
4.444510e+01	-1.091925e+01
4.470182e+01	-1.096476e+01
4.496001e+01	-1.101065e+01
4.521970e+01	-1.105755e+01
4.548089e+01	-1.110332e+01
4.574358e+01	-1.114926e+01
4.600779e+01	-1.119579e+01
4.627353e+01	-1.124200e+01
4.654081e+01	-1.128779e+01
4.680963e+01	-1.133471e+01
4.708000e+01	-1.138108e+01
4.735193e+01	-1.142703e+01
4.762543e+01	-1.147344e+01
4.790051e+01	-1.151970e+01
4.817719e+01	-1.156619e+01
4.845545e+01	-1.161312e+01
4.873533e+01	-1.165947e+01
4.901682e+01	-1.170569e+01
4.929994e+01	-1.175293e+01
4.958470e+01	-1.179948e+01
4.987110e+01	-1.184588e+01
5.015915e+01	-1.189300e+01
5.044887e+01	-1.193990e+01
5.074026e+01	-1.198668e+01
5.103333e+01	-1.203352e+01
5.132810e+01	-1.208103e+01
5.162457e+01	-1.212784e+01
5.192275e+01	-1.217458e+01
5.222265e+01	-1.222164e+01
5.252429e+01	-1.226901e+01
5.282767e+01	-1.231566e+01
5.313280e+01	-1.236328e+01
5.343969e+01	-1.241021e+01
5.374836e+01	-1.245625e+01
5.405880e+01	-1.250450e+01
5.437105e+01	-1.255198e+01
5.468509e+01	-1.259903e+01
5.500095e+01	-1.264649e+01
5.531863e+01	-1.269325e+01
5.563815e+01	-1.274147e+01
5.595951e+01	-1.278906e+01
5.628273e+01	-1.283570e+01
5.660782e+01	-1.288335e+01
5.693479e+01	-1.293095e+01
5.726364e+01	-1.297772e+01
5.759439e+01	-1.302499e+01
5.792705e+01	-1.307296e+01
5.826164e+01	-1.312023e+01
5.859815e+01	-1.316810e+01
5.893662e+01	-1.321496e+01
5.927703e+01	-1.326313e+01
5.961941e+01	-1.331105e+01
5.996377e+01	-1.335888e+01
6.031012e+01	-1.340691e+01
6.065847e+01	-1.345511e+01
6.100883e+01	-1.350157e+01
6.136121e+01	-1.355015e+01
6.171563e+01	-1.359781e+01
6.207210e+01	-1.364471e+01
6.243063e+01	-1.369250e+01
6.279122e+01	-1.374155e+01
6.315390e+01	-1.378853e+01
6.351868e+01	-1.383746e+01
6.388556e+01	-1.388539e+01
6.425456e+01	-1.393314e+01
6.462569e+01	-1.398162e+01
6.499897e+01	-1.402903e+01
6.537440e+01	-1.407784e+01
6.575200e+01	-1.412561e+01
6.613178e+01	-1.417255e+01
6.651375e+01	-1.422218e+01
6.689793e+01	-1.427024e+01
6.728433e+01	-1.431845e+01
6.767297e+01	-1.436615e+01
6.806384e+01	-1.441317e+01
6.845698e+01	-1.446244e+01
6.885238e+01	-1.451061e+01
6.925007e+01	-1.455830e+01
6.965005e+01	-1.460731e+01
7.005235e+01	-1.465538e+01
7.045697e+01	-1.470389e+01
7.086393e+01	-1.475220e+01
7.127323e+01	-1.480023e+01
7.168490e+01	-1.484877e+01
7.209895e+01	-1.489855e+01
7.251539e+01	-1.494658e+01
7.293424e+01	-1.499477e+01
7.335551e+01	-1.504329e+01
7.377920e+01	-1.509247e+01
7.420535e+01	-1.513972e+01
7.463396e+01	-1.518842e+01
7.506504e+01	-1.523695e+01
7.549861e+01	-1.528502e+01
7.593469e+01	-1.533440e+01
7.637328e+01	-1.538335e+01
7.681441e+01	-1.543098e+01
7.725809e+01	-1.547918e+01
7.770433e+01	-1.552841e+01
7.815315e+01	-1.557642e+01
7.860456e+01	-1.562582e+01
7.905857e+01	-1.567397e+01
7.951521e+01	-1.572282e+01
7.997449e+01	-1.577254e+01
8.043642e+01	-1.582054e+01
8.090102e+01	-1.586865e+01
8.136830e+01	-1.591860e+01
8.183828e+01	-1.596669e+01
8.231097e+01	-1.601456e+01
8.278640e+01	-1.606429e+01
8.326457e+01	-1.611376e+01
8.374550e+01	-1.616181e+01
8.422921e+01	-1.621016e+01
8.471572e+01	-1.626008e+01
8.520503e+01	-1.630783e+01
8.569717e+01	-1.635623e+01
8.619215e+01	-1.640600e+01
8.669000e+01	-1.645485e+01
8.719071e+01	-1.650390e+01
8.769432e+01	-1.655299e+01
8.820084e+01	-1.660252e+01
8.871029e+01	-1.665091e+01
8.922267e+01	-1.669907e+01
8.973802e+01	-1.674829e+01
9.025634e+01	-1.679742e+01
9.077766e+01	-1.684623e+01
9.130199e+01	-1.689558e+01
9.182935e+01	-1.694382e+01
9.235975e+01	-1.699403e+01
9.289321e+01	-1.704358e+01
9.342976e+01	-1.709137e+01
9.396941e+01	-1.714141e+01
9.451217e+01	-1.718844e+01
9.505807e+01	-1.723827e+01
9.560712e+01	-1.728774e+01
9.615934e+01	-1.733735e+01
9.671476e+01	-1.738511e+01
9.727338e+01	-1.743567e+01
9.783522e+01	-1.748253e+01
9.840032e+01	-1.753271e+01
9.896867e+01	-1.758340e+01
9.954031e+01	-1.763201e+01
1.001153e+02	-1.768096e+01
1.006935e+02	-1.773115e+01
1.012751e+02	-1.777900e+01
1.018601e+02	-1.782834e+01
1.024484e+02	-1.787787e+01
1.030402e+02	-1.792723e+01
1.036353e+02	-1.797689e+01
1.042339e+02	-1.802509e+01
1.048360e+02	-1.807513e+01
1.054415e+02	-1.812473e+01
1.060505e+02	-1.817448e+01
1.066631e+02	-1.822200e+01
1.072791e+02	-1.827260e+01
1.078988e+02	-1.832212e+01
1.085220e+02	-1.837143e+01
1.091488e+02	-1.842000e+01
1.097793e+02	-1.846961e+01
1.104133e+02	-1.851796e+01
1.110511e+02	-1.856781e+01
1.116925e+02	-1.861781e+01
1.123376e+02	-1.866533e+01
1.129865e+02	-1.871503e+01
1.136391e+02	-1.876651e+01
1.142955e+02	-1.881494e+01
1.149556e+02	-1.886402e+01
1.156196e+02	-1.891384e+01
1.162874e+02	-1.896222e+01
1.169591e+02	-1.901259e+01
1.176347e+02	-1.906044e+01
1.183141e+02	-1.911038e+01
1.189975e+02	-1.916023e+01
1.196848e+02	-1.920948e+01
1.203761e+02	-1.925938e+01
1.210714e+02	-1.930869e+01
1.217707e+02	-1.935771e+01
1.224740e+02	-1.940757e+01
1.231814e+02	-1.945618e+01
1.238929e+02	-1.950653e+01
1.246085e+02	-1.955554e+01
1.253283e+02	-1.960641e+01
1.260522e+02	-1.965401e+01
1.267802e+02	-1.970481e+01
1.275125e+02	-1.975438e+01
1.282490e+02	-1.980383e+01
1.289898e+02	-1.985411e+01
1.297348e+02	-1.990384e+01
1.304842e+02	-1.995428e+01
1.312378e+02	-2.000021e+01
1.319959e+02	-2.005247e+01
1.327583e+02	-2.010198e+01
1.335251e+02	-2.015071e+01
1.342963e+02	-2.019890e+01
1.350720e+02	-2.025069e+01
1.358522e+02	-2.029898e+01
1.366368e+02	-2.035010e+01
1.374260e+02	-2.039934e+01
1.382198e+02	-2.044798e+01
1.390182e+02	-2.049624e+01
1.398211e+02	-2.054650e+01
1.406287e+02	-2.059493e+01
1.414410e+02	-2.064794e+01
1.422579e+02	-2.069685e+01
1.430796e+02	-2.074643e+01
1.439060e+02	-2.079271e+01
1.447372e+02	-2.084417e+01
1.455732e+02	-2.089497e+01
1.464141e+02	-2.094408e+01
1.472597e+02	-2.099444e+01
1.481103e+02	-2.104307e+01
1.489658e+02	-2.109273e+01
1.498262e+02	-2.114214e+01
1.506916e+02	-2.119231e+01
1.515620e+02	-2.124023e+01
1.524374e+02	-2.129226e+01
1.533179e+02	-2.134082e+01
1.542034e+02	-2.138861e+01
1.550941e+02	-2.144035e+01
1.559899e+02	-2.148892e+01
1.568909e+02	-2.153968e+01
1.577971e+02	-2.159034e+01
1.587085e+02	-2.163754e+01
1.596252e+02	-2.168790e+01
1.605472e+02	-2.173844e+01
1.614745e+02	-2.178799e+01
1.624072e+02	-2.183684e+01
1.633453e+02	-2.188730e+01
1.642887e+02	-2.193790e+01
1.652377e+02	-2.198666e+01
1.661921e+02	-2.203852e+01
1.671520e+02	-2.208679e+01
1.681175e+02	-2.213612e+01
1.690885e+02	-2.218635e+01
1.700651e+02	-2.223618e+01
1.710474e+02	-2.228431e+01
1.720354e+02	-2.233408e+01
1.730291e+02	-2.238602e+01
1.740285e+02	-2.243442e+01
1.750337e+02	-2.248413e+01
1.760446e+02	-2.253236e+01
1.770615e+02	-2.258538e+01
1.780842e+02	-2.263408e+01
1.791128e+02	-2.268234e+01
1.801473e+02	-2.273215e+01
1.811878e+02	-2.278381e+01
1.822344e+02	-2.283375e+01
1.832870e+02	-2.288231e+01
1.843456e+02	-2.293237e+01
1.854104e+02	-2.298009e+01
1.864813e+02	-2.303226e+01
1.875584e+02	-2.308171e+01
1.886418e+02	-2.313372e+01
1.897313e+02	-2.318175e+01
1.908272e+02	-2.323147e+01
1.919294e+02	-2.328307e+01
1.930380e+02	-2.333118e+01
1.941530e+02	-2.337937e+01
1.952744e+02	-2.343291e+01
1.964023e+02	-2.347926e+01
1.975367e+02	-2.353015e+01
1.986777e+02	-2.357948e+01
1.998252e+02	-2.363034e+01
2.009794e+02	-2.367987e+01
2.021403e+02	-2.372881e+01
2.033078e+02	-2.377844e+01
2.044821e+02	-2.383175e+01
2.056632e+02	-2.387995e+01
2.068511e+02	-2.392798e+01
2.080459e+02	-2.397930e+01
2.092475e+02	-2.403056e+01
2.104561e+02	-2.407716e+01
2.116717e+02	-2.412748e+01
2.128943e+02	-2.417703e+01
2.141240e+02	-2.422733e+01
2.153608e+02	-2.427843e+01
2.166047e+02	-2.432692e+01
2.178558e+02	-2.437683e+01
2.191141e+02	-2.442895e+01
2.203797e+02	-2.447609e+01
2.216526e+02	-2.452496e+01
2.229329e+02	-2.457763e+01
2.242205e+02	-2.462887e+01
2.255156e+02	-2.467666e+01
2.268182e+02	-2.472759e+01
2.281283e+02	-2.477654e+01
2.294459e+02	-2.482916e+01
2.307712e+02	-2.487773e+01
2.321041e+02	-2.492816e+01
2.334447e+02	-2.497601e+01
2.347931e+02	-2.502822e+01
2.361493e+02	-2.507576e+01
2.375133e+02	-2.512547e+01
2.388851e+02	-2.517400e+01
2.402649e+02	-2.522767e+01
2.416527e+02	-2.527608e+01
2.430484e+02	-2.532501e+01
2.444523e+02	-2.537563e+01
2.458642e+02	-2.542436e+01
2.472843e+02	-2.547486e+01
2.487126e+02	-2.552508e+01
2.501492e+02	-2.557476e+01
2.515940e+02	-2.562670e+01
2.530472e+02	-2.567397e+01
2.545088e+02	-2.572857e+01
2.559789e+02	-2.577795e+01
2.574574e+02	-2.582781e+01
2.589444e+02	-2.587535e+01
2.604401e+02	-2.592387e+01
2.619444e+02	-2.597118e+01
2.634574e+02	-2.602565e+01
2.649791e+02	-2.607584e+01
2.665096e+02	-2.612564e+01
2.680489e+02	-2.617350e+01
2.695972e+02	-2.622593e+01
2.711544e+02	-2.627632e+01
2.727205e+02	-2.632435e+01
2.742958e+02	-2.637322e+01
2.758801e+02	-2.642413e+01
2.774736e+02	-2.647323e+01
2.790762e+02	-2.652715e+01
2.806882e+02	-2.657350e+01
2.823094e+02	-2.662289e+01
2.839400e+02	-2.667569e+01
2.855800e+02	-2.672354e+01
2.872295e+02	-2.677606e+01
2.888886e+02	-2.682187e+01
2.905572e+02	-2.687226e+01
2.922354e+02	-2.692764e+01
2.939234e+02	-2.697387e+01
2.956211e+02	-2.702580e+01
2.973286e+02	-2.707312e+01
2.990459e+02	-2.712483e+01
3.007732e+02	-2.717369e+01
3.025104e+02	-2.722172e+01
3.042577e+02	-2.727593e+01
3.060151e+02	-2.732409e+01
3.077826e+02	-2.737470e+01
3.095604e+02	-2.742267e+01
3.113484e+02	-2.747410e+01
3.131467e+02	-2.752467e+01
3.149554e+02	-2.757287e+01
3.167746e+02	-2.762146e+01
3.186043e+02	-2.767216e+01
3.204445e+02	-2.772373e+01
3.222954e+02	-2.777846e+01
3.241570e+02	-2.782444e+01
3.260293e+02	-2.787271e+01
3.279124e+02	-2.792392e+01
3.298064e+02	-2.797575e+01
3.317114e+02	-2.802237e+01
3.336273e+02	-2.807375e+01
3.355544e+02	-2.812196e+01
3.374925e+02	-2.816850e+01
3.394418e+02	-2.822923e+01
3.414024e+02	-2.827254e+01
3.433744e+02	-2.832543e+01
3.453577e+02	-2.837431e+01
3.473525e+02	-2.842737e+01
3.493588e+02	-2.847224e+01
3.513766e+02	-2.852816e+01
3.534062e+02	-2.857382e+01
3.554474e+02	-2.862410e+01
3.575005e+02	-2.867397e+01
3.595654e+02	-2.872842e+01
3.616422e+02	-2.877583e+01
3.637311e+02	-2.882456e+01
3.658320e+02	-2.887374e+01
3.679450e+02	-2.892570e+01
3.700702e+02	-2.897742e+01
3.722077e+02	-2.902421e+01
3.743576e+02	-2.907669e+01
3.765199e+02	-2.912145e+01
3.786946e+02	-2.917694e+01
3.808820e+02	-2.922593e+01
3.830819e+02	-2.927556e+01
3.852946e+02	-2.933165e+01
3.875200e+02	-2.937689e+01
3.897583e+02	-2.942682e+01
3.920096e+02	-2.947679e+01
3.942738e+02	-2.952972e+01
3.965511e+02	-2.957258e+01
3.988416e+02	-2.962496e+01
4.011452e+02	-2.967318e+01
4.034622e+02	-2.972645e+01
4.057926e+02	-2.977434e+01
4.081365e+02	-2.982269e+01
4.104938e+02	-2.987492e+01
4.128648e+02	-2.992491e+01
4.152495e+02	-2.997357e+01
4.176480e+02	-3.002875e+01
4.200603e+02	-3.007588e+01
4.224866e+02	-3.012993e+01
4.249268e+02	-3.017617e+01
4.273812e+02	-3.022686e+01
4.298497e+02	-3.027704e+01
4.323325e+02	-3.032959e+01
4.348297e+02	-3.037748e+01
4.373412e+02	-3.042549e+01
4.398673e+02	-3.047499e+01
4.424079e+02	-3.052837e+01
4.449633e+02	-3.057750e+01
4.475334e+02	-3.063169e+01
4.501183e+02	-3.067778e+01
4.527182e+02	-3.073254e+01
4.553330e+02	-3.077810e+01
4.579630e+02	-3.083204e+01
4.606082e+02	-3.088050e+01
4.632687e+02	-3.093096e+01
4.659445e+02	-3.097960e+01
4.686358e+02	-3.102956e+01
4.713426e+02	-3.107841e+01
4.740650e+02	-3.112392e+01
4.768032e+02	-3.117715e+01
4.795572e+02	-3.122954e+01
4.823271e+02	-3.127767e+01
4.851130e+02	-3.132677e+01
4.879150e+02	-3.138457e+01
4.907332e+02	-3.142846e+01
4.935676e+02	-3.148450e+01
4.964185e+02	-3.153717e+01
4.992858e+02	-3.158074e+01
5.021696e+02	-3.163317e+01
5.050701e+02	-3.167649e+01
5.079874e+02	-3.172865e+01
5.109215e+02	-3.178353e+01
5.138726e+02	-3.183187e+01
5.168407e+02	-3.187773e+01
5.198259e+02	-3.193457e+01
5.228284e+02	-3.197952e+01
5.258482e+02	-3.203452e+01
5.288855e+02	-3.208343e+01
5.319403e+02	-3.213216e+01
5.350128e+02	-3.218269e+01
5.381030e+02	-3.222949e+01
5.412111e+02	-3.228138e+01
5.443371e+02	-3.232766e+01
5.474812e+02	-3.238203e+01
5.506434e+02	-3.242816e+01
5.538239e+02	-3.248511e+01
5.570228e+02	-3.253105e+01
5.602401e+02	-3.258464e+01
5.634760e+02	-3.264060e+01
5.667306e+02	-3.268384e+01
5.700040e+02	-3.273633e+01
5.732964e+02	-3.278493e+01
5.766077e+02	-3.284080e+01
5.799382e+02	-3.289845e+01
5.832879e+02	-3.294215e+01
5.866569e+02	-3.298771e+01
5.900454e+02	-3.304256e+01
5.934535e+02	-3.308690e+01
5.968813e+02	-3.314321e+01
6.003288e+02	-3.319110e+01
6.037963e+02	-3.323975e+01
6.072838e+02	-3.329487e+01
6.107914e+02	-3.333654e+01
6.143194e+02	-3.338774e+01
6.178676e+02	-3.344402e+01
6.214364e+02	-3.348568e+01
6.250258e+02	-3.353625e+01
6.286359e+02	-3.359268e+01
6.322669e+02	-3.364079e+01
6.359189e+02	-3.369686e+01
6.395919e+02	-3.374299e+01
6.432862e+02	-3.379533e+01
6.470017e+02	-3.384254e+01
6.507388e+02	-3.388955e+01
6.544974e+02	-3.394157e+01
6.582778e+02	-3.398925e+01
6.620800e+02	-3.404029e+01
6.659041e+02	-3.408980e+01
6.697504e+02	-3.414162e+01
6.736188e+02	-3.419871e+01
6.775096e+02	-3.423542e+01
6.814229e+02	-3.428880e+01
6.853587e+02	-3.434775e+01
6.893173e+02	-3.439580e+01
6.932988e+02	-3.444538e+01
6.973033e+02	-3.450277e+01
7.013309e+02	-3.454417e+01
