Frequency(Hz)	Magnitude(dB)
1.000000e+01	-2.154956e+00
1.005776e+01	-2.174508e+00
1.011585e+01	-2.194530e+00
1.017428e+01	-2.214383e+00
1.023305e+01	-2.234460e+00
1.029215e+01	-2.254399e+00
1.035160e+01	-2.274880e+00
1.041139e+01	-2.295412e+00
1.047153e+01	-2.315890e+00
1.053201e+01	-2.336652e+00
1.059284e+01	-2.357726e+00
1.065403e+01	-2.378640e+00
1.071556e+01	-2.399688e+00
1.077746e+01	-2.421215e+00
1.083971e+01	-2.442643e+00
1.090232e+01	-2.464127e+00
1.096529e+01	-2.485967e+00
1.102862e+01	-2.507757e+00
1.109232e+01	-2.529839e+00
1.115639e+01	-2.551911e+00
1.122083e+01	-2.574415e+00
1.128564e+01	-2.596512e+00
1.135083e+01	-2.619296e+00
1.141639e+01	-2.641998e+00
1.148233e+01	-2.664762e+00
1.154865e+01	-2.687939e+00
1.161536e+01	-2.710974e+00
1.168245e+01	-2.734563e+00
1.174992e+01	-2.757823e+00
1.181779e+01	-2.781459e+00
1.188605e+01	-2.805025e+00
1.195470e+01	-2.828871e+00
1.202375e+01	-2.852945e+00
1.209320e+01	-2.877281e+00
1.216305e+01	-2.901285e+00
1.223330e+01	-2.925734e+00
1.230396e+01	-2.950545e+00
1.237503e+01	-2.975265e+00
1.244651e+01	-2.999663e+00
1.251840e+01	-3.025374e+00
1.259070e+01	-3.050243e+00
1.266343e+01	-3.075727e+00
1.273657e+01	-3.101287e+00
1.281014e+01	-3.126738e+00
1.288413e+01	-3.152466e+00
1.295855e+01	-3.178424e+00
1.303339e+01	-3.204452e+00
1.310867e+01	-3.230491e+00
1.318439e+01	-3.256853e+00
1.326054e+01	-3.283325e+00
1.333713e+01	-3.309947e+00
1.341417e+01	-3.336702e+00
1.349165e+01	-3.363300e+00
1.356958e+01	-3.390469e+00
1.364795e+01	-3.417563e+00
1.372678e+01	-3.444776e+00
1.380607e+01	-3.472487e+00
1.388581e+01	-3.500100e+00
1.396602e+01	-3.527840e+00
1.404668e+01	-3.556056e+00
1.412782e+01	-3.583845e+00
1.420942e+01	-3.612142e+00
1.429149e+01	-3.640391e+00
1.437404e+01	-3.668791e+00
1.445706e+01	-3.697310e+00
1.454057e+01	-3.726265e+00
1.462455e+01	-3.754942e+00
1.470902e+01	-3.784124e+00
1.479398e+01	-3.813076e+00
1.487943e+01	-3.842421e+00
1.496537e+01	-3.871677e+00
1.505181e+01	-3.901450e+00
1.513875e+01	-3.931543e+00
1.522619e+01	-3.960974e+00
1.531414e+01	-3.991264e+00
1.540259e+01	-4.021236e+00
1.549156e+01	-4.051524e+00
1.558103e+01	-4.082177e+00
1.567103e+01	-4.112553e+00
1.576155e+01	-4.143352e+00
1.585258e+01	-4.174250e+00
1.594415e+01	-4.204927e+00
1.603624e+01	-4.236014e+00
1.612886e+01	-4.267279e+00
1.622202e+01	-4.298703e+00
1.631572e+01	-4.330051e+00
1.640996e+01	-4.361790e+00
1.650474e+01	-4.393459e+00
1.660008e+01	-4.425739e+00
1.669596e+01	-4.457741e+00
1.679239e+01	-4.489688e+00
1.688938e+01	-4.522053e+00
1.698694e+01	-4.554457e+00
1.708505e+01	-4.586813e+00
1.718373e+01	-4.619378e+00
1.728299e+01	-4.652065e+00
1.738281e+01	-4.685800e+00
1.748322e+01	-4.718601e+00
1.758420e+01	-4.751846e+00
1.768576e+01	-4.784866e+00
1.778792e+01	-4.818558e+00
1.789066e+01	-4.852215e+00
1.799399e+01	-4.885709e+00
1.809793e+01	-4.920044e+00
1.820246e+01	-4.953971e+00
1.830760e+01	-4.987632e+00
1.841334e+01	-5.021979e+00
1.851969e+01	-5.056449e+00
1.862666e+01	-5.090789e+00
1.873425e+01	-5.125281e+00
1.884246e+01	-5.159814e+00
1.895129e+01	-5.194997e+00
1.906075e+01	-5.229899e+00
1.917085e+01	-5.264979e+00
1.928158e+01	-5.300590e+00
1.939295e+01	-5.335926e+00
1.950496e+01	-5.371094e+00
1.961762e+01	-5.406742e+00
1.973093e+01	-5.442220e+00
1.984490e+01	-5.478317e+00
1.995952e+01	-5.513929e+00
2.007480e+01	-5.549734e+00
2.019076e+01	-5.586006e+00
2.030738e+01	-5.622646e+00
2.042467e+01	-5.658808e+00
2.054264e+01	-5.695367e+00
2.066130e+01	-5.731718e+00
2.078064e+01	-5.768780e+00
2.090066e+01	-5.805317e+00
2.102139e+01	-5.842025e+00
2.114280e+01	-5.879438e+00
2.126492e+01	-5.916598e+00
2.138775e+01	-5.954073e+00
2.151128e+01	-5.991131e+00
2.163553e+01	-6.028610e+00
2.176050e+01	-6.066270e+00
2.188619e+01	-6.103997e+00
2.201260e+01	-6.141450e+00
2.213974e+01	-6.179851e+00
2.226762e+01	-6.217839e+00
2.239624e+01	-6.256334e+00
2.252560e+01	-6.293976e+00
2.265571e+01	-6.332424e+00
2.278656e+01	-6.370726e+00
2.291818e+01	-6.409069e+00
2.305055e+01	-6.447926e+00
2.318369e+01	-6.486778e+00
2.331760e+01	-6.525608e+00
2.345228e+01	-6.564173e+00
2.358774e+01	-6.603631e+00
2.372398e+01	-6.642832e+00
2.386101e+01	-6.682091e+00
2.399883e+01	-6.721823e+00
2.413745e+01	-6.760998e+00
2.427686e+01	-6.800452e+00
2.441709e+01	-6.840114e+00
2.455812e+01	-6.879538e+00
2.469997e+01	-6.919305e+00
2.484263e+01	-6.959331e+00
2.498612e+01	-6.999597e+00
2.513044e+01	-7.039198e+00
2.527559e+01	-7.079612e+00
2.542158e+01	-7.119789e+00
2.556842e+01	-7.160472e+00
2.571610e+01	-7.200337e+00
2.586463e+01	-7.241677e+00
2.601403e+01	-7.281673e+00
2.616428e+01	-7.322679e+00
2.631541e+01	-7.363101e+00
2.646740e+01	-7.404223e+00
2.662028e+01	-7.445218e+00
2.677404e+01	-7.486321e+00
2.692868e+01	-7.527457e+00
2.708422e+01	-7.568774e+00
2.724066e+01	-7.610027e+00
2.739800e+01	-7.651246e+00
2.755625e+01	-7.692883e+00
2.771541e+01	-7.734392e+00
2.787550e+01	-7.776282e+00
2.803650e+01	-7.817359e+00
2.819844e+01	-7.859404e+00
2.836131e+01	-7.901665e+00
2.852513e+01	-7.943144e+00
2.868989e+01	-7.985619e+00
2.885560e+01	-8.027898e+00
2.902227e+01	-8.069462e+00
2.918990e+01	-8.111937e+00
2.935850e+01	-8.154293e+00
2.952807e+01	-8.196953e+00
2.969863e+01	-8.239030e+00
2.987016e+01	-8.281810e+00
3.004269e+01	-8.324012e+00
3.021622e+01	-8.367036e+00
3.039075e+01	-8.409721e+00
3.056628e+01	-8.453038e+00
3.074283e+01	-8.495462e+00
3.092040e+01	-8.538648e+00
3.109900e+01	-8.581291e+00
3.127862e+01	-8.624932e+00
3.145929e+01	-8.668033e+00
3.164099e+01	-8.711341e+00
3.182375e+01	-8.754578e+00
3.200756e+01	-8.797798e+00
3.219244e+01	-8.842126e+00
3.237838e+01	-8.884940e+00
3.256540e+01	-8.928621e+00
3.275349e+01	-8.971865e+00
3.294268e+01	-9.015715e+00
3.313295e+01	-9.060006e+00
3.332433e+01	-9.104185e+00
3.351681e+01	-9.147212e+00
3.371040e+01	-9.191487e+00
3.390511e+01	-9.235261e+00
3.410094e+01	-9.279136e+00
3.429791e+01	-9.323320e+00
3.449601e+01	-9.367494e+00
3.469526e+01	-9.412473e+00
3.489566e+01	-9.456297e+00
3.509721e+01	-9.500348e+00
3.529993e+01	-9.545384e+00
3.550382e+01	-9.589864e+00
3.570889e+01	-9.634560e+00
3.591515e+01	-9.679160e+00
3.612259e+01	-9.723594e+00
3.633123e+01	-9.768355e+00
3.654108e+01	-9.813445e+00
3.675214e+01	-9.857806e+00
3.696442e+01	-9.902790e+00
3.717792e+01	-9.948042e+00
3.739266e+01	-9.992912e+00
3.760864e+01	-1.003836e+01
3.782587e+01	-1.008305e+01
3.804435e+01	-1.012811e+01
3.826409e+01	-1.017348e+01
3.848510e+01	-1.021881e+01
3.870739e+01	-1.026356e+01
3.893096e+01	-1.030857e+01
3.915583e+01	-1.035439e+01
3.938199e+01	-1.040046e+01
3.960946e+01	-1.044504e+01
3.983824e+01	-1.049076e+01
4.006834e+01	-1.053643e+01
4.029978e+01	-1.058228e+01
4.053255e+01	-1.062773e+01
4.076666e+01	-1.067355e+01
4.100213e+01	-1.071925e+01
4.123896e+01	-1.076498e+01
4.147715e+01	-1.081165e+01
4.171672e+01	-1.085696e+01
4.195767e+01	-1.090326e+01
4.220002e+01	-1.094880e+01
4.244377e+01	-1.099493e+01
4.268892e+01	-1.104142e+01
4.293549e+01	-1.108726e+01
4.318348e+01	-1.113328e+01
4.343291e+01	-1.117938e+01
4.368377e+01	-1.122599e+01
4.393609e+01	-1.127134e+01
4.418986e+01	-1.131814e+01
4.444510e+01	-1.136441e+01
4.470182e+01	-1.141133e+01
4.496001e+01	-1.145751e+01
4.521970e+01	-1.150452e+01
4.548089e+01	-1.155070e+01
4.574358e+01	-1.159644e+01
4.600779e+01	-1.164340e+01
4.627353e+01	-1.169024e+01
4.654081e+01	-1.173695e+01
4.680963e+01	-1.178390e+01
4.708000e+01	-1.183005e+01
4.735193e+01	-1.187645e+01
4.762543e+01	-1.192394e+01
4.790051e+01	-1.197071e+01
4.817719e+01	-1.201735e+01
4.845545e+01	-1.206404e+01
4.873533e+01	-1.211168e+01
4.901682e+01	-1.215792e+01
4.929994e+01	-1.220557e+01
4.958470e+01	-1.225229e+01
4.987110e+01	-1.229939e+01
5.015915e+01	-1.234674e+01
5.044887e+01	-1.239324e+01
5.074026e+01	-1.244009e+01
5.103333e+01	-1.248729e+01
5.132810e+01	-1.253508e+01
5.162457e+01	-1.258248e+01
5.192275e+01	-1.262986e+01
5.222265e+01	-1.267772e+01
5.252429e+01	-1.272454e+01
5.282767e+01	-1.277158e+01
5.313280e+01	-1.281895e+01
5.343969e+01	-1.286655e+01
5.374836e+01	-1.291404e+01
5.405880e+01	-1.296213e+01
5.437105e+01	-1.300889e+01
5.468509e+01	-1.305650e+01
5.500095e+01	-1.310377e+01
5.531863e+01	-1.315133e+01
5.563815e+01	-1.319965e+01
5.595951e+01	-1.324755e+01
5.628273e+01	-1.329499e+01
5.660782e+01	-1.334261e+01
5.693479e+01	-1.338953e+01
5.726364e+01	-1.343792e+01
5.759439e+01	-1.348482e+01
5.792705e+01	-1.353343e+01
5.826164e+01	-1.358141e+01
5.859815e+01	-1.362929e+01
5.893662e+01	-1.367656e+01
5.927703e+01	-1.372456e+01
5.961941e+01	-1.377271e+01
5.996377e+01	-1.382017e+01
6.031012e+01	-1.386777e+01
6.065847e+01	-1.391624e+01
6.100883e+01	-1.396491e+01
6.136121e+01	-1.401307e+01
6.171563e+01	-1.405999e+01
6.207210e+01	-1.410882e+01
6.243063e+01	-1.415622e+01
6.279122e+01	-1.420483e+01
6.315390e+01	-1.425299e+01
6.351868e+01	-1.430137e+01
6.388556e+01	-1.435010e+01
6.425456e+01	-1.439750e+01
6.462569e+01	-1.444528e+01
6.499897e+01	-1.449505e+01
6.537440e+01	-1.454215e+01
6.575200e+01	-1.459137e+01
6.613178e+01	-1.464046e+01
6.651375e+01	-1.468657e+01
6.689793e+01	-1.473607e+01
6.728433e+01	-1.478399e+01
6.767297e+01	-1.483221e+01
6.806384e+01	-1.488065e+01
6.845698e+01	-1.492985e+01
6.885238e+01	-1.497740e+01
6.925007e+01	-1.502548e+01
6.965005e+01	-1.507425e+01
7.005235e+01	-1.512342e+01
7.045697e+01	-1.517178e+01
7.086393e+01	-1.522059e+01
7.127323e+01	-1.526882e+01
7.168490e+01	-1.531666e+01
7.209895e+01	-1.536549e+01
7.251539e+01	-1.541421e+01
7.293424e+01	-1.546304e+01
7.335551e+01	-1.551128e+01
7.377920e+01	-1.555966e+01
7.420535e+01	-1.560893e+01
7.463396e+01	-1.565771e+01
7.506504e+01	-1.570627e+01
7.549861e+01	-1.575474e+01
7.593469e+01	-1.580440e+01
7.637328e+01	-1.585295e+01
7.681441e+01	-1.590071e+01
7.725809e+01	-1.595025e+01
7.770433e+01	-1.599957e+01
7.815315e+01	-1.604688e+01
7.860456e+01	-1.609535e+01
7.905857e+01	-1.614474e+01
7.951521e+01	-1.619387e+01
7.997449e+01	-1.624267e+01
8.043642e+01	-1.629101e+01
8.090102e+01	-1.633926e+01
8.136830e+01	-1.639030e+01
8.183828e+01	-1.643774e+01
8.231097e+01	-1.648603e+01
8.278640e+01	-1.653507e+01
8.326457e+01	-1.658476e+01
8.374550e+01	-1.663425e+01
8.422921e+01	-1.668245e+01
8.471572e+01	-1.673042e+01
8.520503e+01	-1.678078e+01
8.569717e+01	-1.682919e+01
8.619215e+01	-1.687881e+01
8.669000e+01	-1.692829e+01
8.719071e+01	-1.697701e+01
8.769432e+01	-1.702589e+01
8.820084e+01	-1.707455e+01
8.871029e+01	-1.712321e+01
8.922267e+01	-1.717313e+01
8.973802e+01	-1.722189e+01
9.025634e+01	-1.727175e+01
9.077766e+01	-1.732021e+01
9.130199e+01	-1.736911e+01
9.182935e+01	-1.741804e+01
9.235975e+01	-1.746781e+01
9.289321e+01	-1.751773e+01
9.342976e+01	-1.756646e+01
9.396941e+01	-1.761532e+01
9.451217e+01	-1.766528e+01
9.505807e+01	-1.771350e+01
9.560712e+01	-1.776242e+01
9.615934e+01	-1.781188e+01
9.671476e+01	-1.785929e+01
9.727338e+01	-1.790931e+01
9.783522e+01	-1.795913e+01
9.840032e+01	-1.800835e+01
9.896867e+01	-1.805610e+01
9.954031e+01	-1.810656e+01
1.001153e+02	-1.815536e+01
1.006935e+02	-1.820741e+01
1.012751e+02	-1.825532e+01
1.018601e+02	-1.830341e+01
1.024484e+02	-1.835338e+01
1.030402e+02	-1.840357e+01
1.036353e+02	-1.845185e+01
1.042339e+02	-1.850122e+01
1.048360e+02	-1.855103e+01
1.054415e+02	-1.860005e+01
1.060505e+02	-1.864891e+01
1.066631e+02	-1.869930e+01
1.072791e+02	-1.874813e+01
1.078988e+02	-1.879692e+01
1.085220e+02	-1.884694e+01
1.091488e+02	-1.889584e+01
1.097793e+02	-1.894677e+01
1.104133e+02	-1.899561e+01
1.110511e+02	-1.904416e+01
1.116925e+02	-1.909241e+01
1.123376e+02	-1.914220e+01
1.129865e+02	-1.919191e+01
1.136391e+02	-1.924221e+01
1.142955e+02	-1.929012e+01
1.149556e+02	-1.934058e+01
1.156196e+02	-1.939193e+01
1.162874e+02	-1.943766e+01
1.169591e+02	-1.949072e+01
1.176347e+02	-1.953847e+01
1.183141e+02	-1.959020e+01
1.189975e+02	-1.963801e+01
1.196848e+02	-1.968570e+01
1.203761e+02	-1.973714e+01
1.210714e+02	-1.978698e+01
1.217707e+02	-1.983675e+01
1.224740e+02	-1.988511e+01
1.231814e+02	-1.993401e+01
1.238929e+02	-1.998402e+01
1.246085e+02	-2.003409e+01
1.253283e+02	-2.008424e+01
1.260522e+02	-2.013254e+01
1.267802e+02	-2.018337e+01
1.275125e+02	-2.023393e+01
1.282490e+02	-2.028081e+01
1.289898e+02	-2.033100e+01
1.297348e+02	-2.038054e+01
1.304842e+02	-2.042941e+01
1.312378e+02	-2.048111e+01
1.319959e+02	-2.052884e+01
1.327583e+02	-2.057916e+01
1.335251e+02	-2.062992e+01
1.342963e+02	-2.067825e+01
1.350720e+02	-2.072686e+01
1.358522e+02	-2.077845e+01
1.366368e+02	-2.082716e+01
1.374260e+02	-2.087630e+01
1.382198e+02	-2.092639e+01
1.390182e+02	-2.097407e+01
1.398211e+02	-2.102588e+01
1.406287e+02	-2.107491e+01
1.414410e+02	-2.112335e+01
1.422579e+02	-2.117524e+01
1.430796e+02	-2.122567e+01
1.439060e+02	-2.127447e+01
1.447372e+02	-2.132495e+01
1.455732e+02	-2.137388e+01
1.464141e+02	-2.142417e+01
1.472597e+02	-2.147273e+01
1.481103e+02	-2.152219e+01
1.489658e+02	-2.157255e+01
1.498262e+02	-2.162299e+01
1.506916e+02	-2.167107e+01
1.515620e+02	-2.172233e+01
1.524374e+02	-2.177094e+01
1.533179e+02	-2.182049e+01
1.542034e+02	-2.187083e+01
1.550941e+02	-2.192013e+01
1.559899e+02	-2.196926e+01
1.568909e+02	-2.202001e+01
1.577971e+02	-2.206928e+01
1.587085e+02	-2.211870e+01
1.596252e+02	-2.216886e+01
1.605472e+02	-2.221809e+01
1.614745e+02	-2.226871e+01
1.624072e+02	-2.231625e+01
1.633453e+02	-2.236757e+01
1.642887e+02	-2.241821e+01
1.652377e+02	-2.246637e+01
1.661921e+02	-2.251675e+01
1.671520e+02	-2.256507e+01
1.681175e+02	-2.261899e+01
1.690885e+02	-2.266669e+01
1.700651e+02	-2.271935e+01
1.710474e+02	-2.276514e+01
1.720354e+02	-2.281376e+01
1.730291e+02	-2.286647e+01
1.740285e+02	-2.291549e+01
1.750337e+02	-2.296689e+01
1.760446e+02	-2.301542e+01
1.770615e+02	-2.306394e+01
1.780842e+02	-2.311621e+01
1.791128e+02	-2.316478e+01
1.801473e+02	-2.321184e+01
1.811878e+02	-2.326581e+01
1.822344e+02	-2.331251e+01
1.832870e+02	-2.336448e+01
1.843456e+02	-2.341457e+01
1.854104e+02	-2.346280e+01
1.864813e+02	-2.351445e+01
1.875584e+02	-2.356431e+01
1.886418e+02	-2.361157e+01
1.897313e+02	-2.366062e+01
1.908272e+02	-2.371329e+01
1.919294e+02	-2.376042e+01
1.930380e+02	-2.381437e+01
1.941530e+02	-2.386360e+01
1.952744e+02	-2.391305e+01
1.964023e+02	-2.395774e+01
1.975367e+02	-2.401316e+01
1.986777e+02	-2.406106e+01
1.998252e+02	-2.410925e+01
2.009794e+02	-2.415886e+01
2.021403e+02	-2.421254e+01
2.033078e+02	-2.426162e+01
2.044821e+02	-2.431038e+01
2.056632e+02	-2.435881e+01
2.068511e+02	-2.441192e+01
2.080459e+02	-2.446292e+01
2.092475e+02	-2.451046e+01
2.104561e+02	-2.455830e+01
2.116717e+02	-2.460875e+01
2.128943e+02	-2.466128e+01
2.141240e+02	-2.471016e+01
2.153608e+02	-2.475906e+01
2.166047e+02	-2.480968e+01
2.178558e+02	-2.485947e+01
2.191141e+02	-2.490775e+01
2.203797e+02	-2.495783e+01
2.216526e+02	-2.500647e+01
2.229329e+02	-2.505674e+01
2.242205e+02	-2.510950e+01
2.255156e+02	-2.515887e+01
2.268182e+02	-2.520889e+01
2.281283e+02	-2.525819e+01
2.294459e+02	-2.530725e+01
2.307712e+02	-2.535978e+01
2.321041e+02	-2.540940e+01
2.334447e+02	-2.545772e+01
2.347931e+02	-2.550978e+01
2.361493e+02	-2.555740e+01
2.375133e+02	-2.560670e+01
2.388851e+02	-2.565489e+01
2.402649e+02	-2.571137e+01
2.416527e+02	-2.575618e+01
2.430484e+02	-2.580948e+01
2.444523e+02	-2.585702e+01
2.458642e+02	-2.590783e+01
2.472843e+02	-2.596257e+01
2.487126e+02	-2.600722e+01
2.501492e+02	-2.605813e+01
2.515940e+02	-2.611018e+01
2.530472e+02	-2.616180e+01
2.545088e+02	-2.620890e+01
2.559789e+02	-2.625578e+01
2.574574e+02	-2.630532e+01
2.589444e+02	-2.635775e+01
2.604401e+02	-2.640798e+01
2.619444e+02	-2.645938e+01
2.634574e+02	-2.650801e+01
2.649791e+02	-2.655855e+01
2.665096e+02	-2.660433e+01
2.680489e+02	-2.665684e+01
2.695972e+02	-2.670830e+01
2.711544e+02	-2.675912e+01
2.727205e+02	-2.680675e+01
2.742958e+02	-2.685974e+01
2.758801e+02	-2.690978e+01
2.774736e+02	-2.695813e+01
2.790762e+02	-2.700907e+01
2.806882e+02	-2.705625e+01
2.823094e+02	-2.710895e+01
2.839400e+02	-2.715885e+01
2.855800e+02	-2.720733e+01
2.872295e+02	-2.725601e+01
2.888886e+02	-2.730874e+01
2.905572e+02	-2.735743e+01
2.922354e+02	-2.741003e+01
2.939234e+02	-2.745740e+01
2.956211e+02	-2.750906e+01
2.973286e+02	-2.755854e+01
2.990459e+02	-2.760780e+01
3.007732e+02	-2.765631e+01
3.025104e+02	-2.770667e+01
3.042577e+02	-2.775675e+01
3.060151e+02	-2.780540e+01
3.077826e+02	-2.785819e+01
3.095604e+02	-2.790676e+01
3.113484e+02	-2.795825e+01
3.131467e+02	-2.800887e+01
3.149554e+02	-2.805879e+01
3.167746e+02	-2.810990e+01
3.186043e+02	-2.816046e+01
3.204445e+02	-2.820982e+01
3.222954e+02	-2.825657e+01
3.241570e+02	-2.830505e+01
3.260293e+02	-2.835823e+01
3.279124e+02	-2.840896e+01
3.298064e+02	-2.845782e+01
3.317114e+02	-2.850513e+01
3.336273e+02	-2.856057e+01
3.355544e+02	-2.860717e+01
3.374925e+02	-2.865408e+01
3.394418e+02	-2.870892e+01
3.414024e+02	-2.876307e+01
3.433744e+02	-2.880651e+01
3.453577e+02	-2.885870e+01
3.473525e+02	-2.890529e+01
3.493588e+02	-2.895595e+01
3.513766e+02	-2.900787e+01
3.534062e+02	-2.905966e+01
3.554474e+02	-2.910952e+01
3.575005e+02	-2.915653e+01
3.595654e+02	-2.920890e+01
3.616422e+02	-2.925955e+01
3.637311e+02	-2.930861e+01
3.658320e+02	-2.935885e+01
3.679450e+02	-2.940927e+01
3.700702e+02	-2.946107e+01
3.722077e+02	-2.950889e+01
3.743576e+02	-2.956009e+01
3.765199e+02	-2.960953e+01
3.786946e+02	-2.966081e+01
3.808820e+02	-2.971707e+01
3.830819e+02	-2.975636e+01
3.852946e+02	-2.981299e+01
3.875200e+02	-2.986239e+01
3.897583e+02	-2.990468e+01
3.920096e+02	-2.996017e+01
3.942738e+02	-3.001441e+01
3.965511e+02	-3.006064e+01
3.988416e+02	-3.011059e+01
4.011452e+02	-3.016231e+01
4.034622e+02	-3.021190e+01
4.057926e+02	-3.026356e+01
4.081365e+02	-3.031048e+01
4.104938e+02	-3.036066e+01
4.128648e+02	-3.040827e+01
4.152495e+02	-3.046191e+01
4.176480e+02	-3.051047e+01
4.200603e+02	-3.055664e+01
4.224866e+02	-3.060903e+01
4.249268e+02	-3.066660e+01
4.273812e+02	-3.070858e+01
4.298497e+02	-3.076442e+01
4.323325e+02	-3.081035e+01
4.348297e+02	-3.086268e+01
4.373412e+02	-3.091352e+01
4.398673e+02	-3.096011e+01
4.424079e+02	-3.101303e+01
4.449633e+02	-3.106626e+01
4.475334e+02	-3.111344e+01
4.501183e+02	-3.116065e+01
4.527182e+02	-3.121086e+01
4.553330e+02	-3.126937e+01
4.579630e+02	-3.131577e+01
4.606082e+02	-3.136256e+01
4.632687e+02	-3.141682e+01
4.659445e+02	-3.146003e+01
4.686358e+02	-3.151806e+01
4.713426e+02	-3.156606e+01
4.740650e+02	-3.161382e+01
4.768032e+02	-3.166579e+01
4.795572e+02	-3.170849e+01
4.823271e+02	-3.176533e+01
4.851130e+02	-3.181622e+01
4.879150e+02	-3.186204e+01
4.907332e+02	-3.191276e+01
4.935676e+02	-3.196463e+01
4.964185e+02	-3.202437e+01
4.992858e+02	-3.206251e+01
5.021696e+02	-3.212139e+01
5.050701e+02	-3.216630e+01
5.079874e+02	-3.222007e+01
5.109215e+02	-3.226778e+01
5.138726e+02	-3.232293e+01
5.168407e+02	-3.237006e+01
5.198259e+02	-3.241607e+01
5.228284e+02	-3.246060e+01
5.258482e+02	-3.251499e+01
5.288855e+02	-3.256719e+01
5.319403e+02	-3.262457e+01
5.350128e+02	-3.267342e+01
5.381030e+02	-3.272638e+01
5.412111e+02	-3.277055e+01
5.443371e+02	-3.281909e+01
5.474812e+02	-3.286803e+01
5.506434e+02	-3.291746e+01
5.538239e+02	-3.296704e+01
5.570228e+02	-3.302180e+01
5.602401e+02	-3.307395e+01
5.634760e+02	-3.311750e+01
5.667306e+02	-3.316658e+01
5.700040e+02	-3.322508e+01
5.732964e+02	-3.326416e+01
5.766077e+02	-3.332086e+01
5.799382e+02	-3.336881e+01
5.832879e+02	-3.342380e+01
5.866569e+02	-3.347325e+01
5.900454e+02	-3.352678e+01
5.934535e+02	-3.357486e+01
5.968813e+02	-3.363016e+01
6.003288e+02	-3.367244e+01
6.037963e+02	-3.372691e+01
6.072838e+02	-3.377570e+01
6.107914e+02	-3.382219e+01
6.143194e+02	-3.387511e+01
6.178676e+02	-3.392884e+01
6.214364e+02	-3.397865e+01
6.250258e+02	-3.402754e+01
6.286359e+02	-3.407638e+01
6.322669e+02	-3.411890e+01
6.359189e+02	-3.417628e+01
6.395919e+02	-3.422436e+01
6.432862e+02	-3.428459e+01
6.470017e+02	-3.433493e+01
6.507388e+02	-3.438209e+01
6.544974e+02	-3.442287e+01
6.582778e+02	-3.449154e+01
6.620800e+02	-3.453212e+01
6.659041e+02	-3.458182e+01
6.697504e+02	-3.462224e+01
6.736188e+02	-3.468361e+01
6.775096e+02	-3.472824e+01
6.814229e+02	-3.477856e+01
6.853587e+02	-3.484023e+01
6.893173e+02	-3.487624e+01
6.932988e+02	-3.493127e+01
6.973033e+02	-3.497704e+01
7.013309e+02	-3.503156e+01
