Frequency(Hz)	Magnitude(dB)
1.000000e+01	-2.181964e+00
1.005776e+01	-2.201640e+00
1.011585e+01	-2.221766e+00
1.017428e+01	-2.241735e+00
1.023305e+01	-2.261860e+00
1.029215e+01	-2.282464e+00
1.035160e+01	-2.303066e+00
1.041139e+01	-2.323447e+00
1.047153e+01	-2.344488e+00
1.053201e+01	-2.365409e+00
1.059284e+01	-2.386344e+00
1.065403e+01	-2.407582e+00
1.071556e+01	-2.429057e+00
1.077746e+01	-2.450384e+00
1.083971e+01	-2.472234e+00
1.090232e+01	-2.493948e+00
1.096529e+01	-2.515818e+00
1.102862e+01	-2.537929e+00
1.109232e+01	-2.560213e+00
1.115639e+01	-2.582527e+00
1.122083e+01	-2.604938e+00
1.128564e+01	-2.627485e+00
1.135083e+01	-2.650396e+00
1.141639e+01	-2.673402e+00
1.148233e+01	-2.696251e+00
1.154865e+01	-2.719610e+00
1.161536e+01	-2.742795e+00
1.168245e+01	-2.766335e+00
1.174992e+01	-2.790009e+00
1.181779e+01	-2.813882e+00
1.188605e+01	-2.837823e+00
1.195470e+01	-2.861960e+00
1.202375e+01	-2.886165e+00
1.209320e+01	-2.910298e+00
1.216305e+01	-2.934976e+00
1.223330e+01	-2.959512e+00
1.230396e+01	-2.984351e+00
1.237503e+01	-3.009547e+00
1.244651e+01	-3.034296e+00
1.251840e+01	-3.059549e+00
1.259070e+01	-3.085027e+00
1.266343e+01	-3.110540e+00
1.273657e+01	-3.136182e+00
1.281014e+01	-3.161967e+00
1.288413e+01	-3.188085e+00
1.295855e+01	-3.213769e+00
1.303339e+01	-3.240111e+00
1.310867e+01	-3.266483e+00
1.318439e+01	-3.292945e+00
1.326054e+01	-3.319657e+00
1.333713e+01	-3.346665e+00
1.341417e+01	-3.373495e+00
1.349165e+01	-3.400722e+00
1.356958e+01	-3.427967e+00
1.364795e+01	-3.455352e+00
1.372678e+01	-3.482616e+00
1.380607e+01	-3.510463e+00
1.388581e+01	-3.538097e+00
1.396602e+01	-3.565995e+00
1.404668e+01	-3.594037e+00
1.412782e+01	-3.622582e+00
1.420942e+01	-3.650727e+00
1.429149e+01	-3.679368e+00
1.437404e+01	-3.708013e+00
1.445706e+01	-3.736934e+00
1.454057e+01	-3.765578e+00
1.462455e+01	-3.794594e+00
1.470902e+01	-3.824151e+00
1.479398e+01	-3.853273e+00
1.487943e+01	-3.882925e+00
1.496537e+01	-3.912382e+00
1.505181e+01	-3.942233e+00
1.513875e+01	-3.972195e+00
1.522619e+01	-4.002097e+00
1.531414e+01	-4.032472e+00
1.540259e+01	-4.062864e+00
1.549156e+01	-4.093288e+00
1.558103e+01	-4.123721e+00
1.567103e+01	-4.154720e+00
1.576155e+01	-4.185335e+00
1.585258e+01	-4.216173e+00
1.594415e+01	-4.247579e+00
1.603624e+01	-4.278964e+00
1.612886e+01	-4.310157e+00
1.622202e+01	-4.341874e+00
1.631572e+01	-4.373328e+00
1.640996e+01	-4.405209e+00
1.650474e+01	-4.437383e+00
1.660008e+01	-4.469360e+00
1.669596e+01	-4.501704e+00
1.679239e+01	-4.533795e+00
1.688938e+01	-4.566678e+00
1.698694e+01	-4.599137e+00
1.708505e+01	-4.631866e+00
1.718373e+01	-4.664552e+00
1.728299e+01	-4.697788e+00
1.738281e+01	-4.730831e+00
1.748322e+01	-4.764012e+00
1.758420e+01	-4.797322e+00
1.768576e+01	-4.830909e+00
1.778792e+01	-4.864313e+00
1.789066e+01	-4.898258e+00
1.799399e+01	-4.932355e+00
1.809793e+01	-4.966192e+00
1.820246e+01	-5.000401e+00
1.830760e+01	-5.034787e+00
1.841334e+01	-5.068887e+00
1.851969e+01	-5.103440e+00
1.862666e+01	-5.137999e+00
1.873425e+01	-5.173036e+00
1.884246e+01	-5.208116e+00
1.895129e+01	-5.242579e+00
1.906075e+01	-5.278087e+00
1.917085e+01	-5.313406e+00
1.928158e+01	-5.348795e+00
1.939295e+01	-5.384241e+00
1.950496e+01	-5.419891e+00
1.961762e+01	-5.455442e+00
1.973093e+01	-5.491070e+00
1.984490e+01	-5.527306e+00
1.995952e+01	-5.563015e+00
2.007480e+01	-5.599397e+00
2.019076e+01	-5.635995e+00
2.030738e+01	-5.672336e+00
2.042467e+01	-5.708724e+00
2.054264e+01	-5.745387e+00
2.066130e+01	-5.782096e+00
2.078064e+01	-5.819166e+00
2.090066e+01	-5.856234e+00
2.102139e+01	-5.892878e+00
2.114280e+01	-5.930341e+00
2.126492e+01	-5.967220e+00
2.138775e+01	-6.004900e+00
2.151128e+01	-6.042563e+00
2.163553e+01	-6.080447e+00
2.176050e+01	-6.117894e+00
2.188619e+01	-6.155788e+00
2.201260e+01	-6.193798e+00
2.213974e+01	-6.231780e+00
2.226762e+01	-6.269975e+00
2.239624e+01	-6.308219e+00
2.252560e+01	-6.346427e+00
2.265571e+01	-6.384964e+00
2.278656e+01	-6.423545e+00
2.291818e+01	-6.462097e+00
2.305055e+01	-6.501037e+00
2.318369e+01	-6.539791e+00
2.331760e+01	-6.579012e+00
2.345228e+01	-6.618024e+00
2.358774e+01	-6.657201e+00
2.372398e+01	-6.696609e+00
2.386101e+01	-6.735797e+00
2.399883e+01	-6.775460e+00
2.413745e+01	-6.814704e+00
2.427686e+01	-6.854706e+00
2.441709e+01	-6.894121e+00
2.455812e+01	-6.934241e+00
2.469997e+01	-6.974125e+00
2.484263e+01	-7.014208e+00
2.498612e+01	-7.054515e+00
2.513044e+01	-7.094201e+00
2.527559e+01	-7.134699e+00
2.542158e+01	-7.174942e+00
2.556842e+01	-7.215756e+00
2.571610e+01	-7.256293e+00
2.586463e+01	-7.296554e+00
2.601403e+01	-7.337596e+00
2.616428e+01	-7.378487e+00
2.631541e+01	-7.419449e+00
2.646740e+01	-7.460036e+00
2.662028e+01	-7.501702e+00
2.677404e+01	-7.542154e+00
2.692868e+01	-7.583974e+00
2.708422e+01	-7.624911e+00
2.724066e+01	-7.666546e+00
2.739800e+01	-7.708054e+00
2.755625e+01	-7.749793e+00
2.771541e+01	-7.791387e+00
2.787550e+01	-7.833073e+00
2.803650e+01	-7.874913e+00
2.819844e+01	-7.916707e+00
2.836131e+01	-7.958465e+00
2.852513e+01	-8.001399e+00
2.868989e+01	-8.043402e+00
2.885560e+01	-8.084878e+00
2.902227e+01	-8.127680e+00
2.918990e+01	-8.169530e+00
2.935850e+01	-8.212541e+00
2.952807e+01	-8.255295e+00
2.969863e+01	-8.297992e+00
2.987016e+01	-8.339826e+00
3.004269e+01	-8.382955e+00
3.021622e+01	-8.425565e+00
3.039075e+01	-8.468754e+00
3.056628e+01	-8.511173e+00
3.074283e+01	-8.554700e+00
3.092040e+01	-8.597642e+00
3.109900e+01	-8.640966e+00
3.127862e+01	-8.683914e+00
3.145929e+01	-8.727156e+00
3.164099e+01	-8.770414e+00
3.182375e+01	-8.814041e+00
3.200756e+01	-8.857192e+00
3.219244e+01	-8.901327e+00
3.237838e+01	-8.944466e+00
3.256540e+01	-8.988250e+00
3.275349e+01	-9.032284e+00
3.294268e+01	-9.075657e+00
3.313295e+01	-9.119790e+00
3.332433e+01	-9.163519e+00
3.351681e+01	-9.207629e+00
3.371040e+01	-9.251229e+00
3.390511e+01	-9.295583e+00
3.410094e+01	-9.339566e+00
3.429791e+01	-9.384193e+00
3.449601e+01	-9.428543e+00
3.469526e+01	-9.472593e+00
3.489566e+01	-9.516843e+00
3.509721e+01	-9.561381e+00
3.529993e+01	-9.606255e+00
3.550382e+01	-9.650892e+00
3.570889e+01	-9.695586e+00
3.591515e+01	-9.740147e+00
3.612259e+01	-9.785086e+00
3.633123e+01	-9.829721e+00
3.654108e+01	-9.873900e+00
3.675214e+01	-9.919460e+00
3.696442e+01	-9.964816e+00
3.717792e+01	-1.000940e+01
3.739266e+01	-1.005408e+01
3.760864e+01	-1.009946e+01
3.782587e+01	-1.014495e+01
3.804435e+01	-1.018949e+01
3.826409e+01	-1.023489e+01
3.848510e+01	-1.028022e+01
3.870739e+01	-1.032620e+01
3.893096e+01	-1.037113e+01
3.915583e+01	-1.041643e+01
3.938199e+01	-1.046199e+01
3.960946e+01	-1.050779e+01
3.983824e+01	-1.055381e+01
4.006834e+01	-1.059906e+01
4.029978e+01	-1.064489e+01
4.053255e+01	-1.069038e+01
4.076666e+01	-1.073634e+01
4.100213e+01	-1.078187e+01
4.123896e+01	-1.082798e+01
4.147715e+01	-1.087421e+01
4.171672e+01	-1.091979e+01
4.195767e+01	-1.096578e+01
4.220002e+01	-1.101180e+01
4.244377e+01	-1.105820e+01
4.268892e+01	-1.110387e+01
4.293549e+01	-1.114968e+01
4.318348e+01	-1.119622e+01
4.343291e+01	-1.124233e+01
4.368377e+01	-1.128930e+01
4.393609e+01	-1.133520e+01
4.418986e+01	-1.138148e+01
4.444510e+01	-1.142823e+01
4.470182e+01	-1.147475e+01
4.496001e+01	-1.152064e+01
4.521970e+01	-1.156763e+01
4.548089e+01	-1.161424e+01
4.574358e+01	-1.166070e+01
4.600779e+01	-1.170686e+01
4.627353e+01	-1.175376e+01
4.654081e+01	-1.180066e+01
4.680963e+01	-1.184725e+01
4.708000e+01	-1.189459e+01
4.735193e+01	-1.194125e+01
4.762543e+01	-1.198864e+01
4.790051e+01	-1.203501e+01
4.817719e+01	-1.208115e+01
4.845545e+01	-1.212911e+01
4.873533e+01	-1.217511e+01
4.901682e+01	-1.222304e+01
4.929994e+01	-1.226963e+01
4.958470e+01	-1.231704e+01
4.987110e+01	-1.236364e+01
5.015915e+01	-1.241115e+01
5.044887e+01	-1.245802e+01
5.074026e+01	-1.250607e+01
5.103333e+01	-1.255216e+01
5.132810e+01	-1.259984e+01
5.162457e+01	-1.264713e+01
5.192275e+01	-1.269356e+01
5.222265e+01	-1.274127e+01
5.252429e+01	-1.278902e+01
5.282767e+01	-1.283690e+01
5.313280e+01	-1.288366e+01
5.343969e+01	-1.293168e+01
5.374836e+01	-1.297949e+01
5.405880e+01	-1.302576e+01
5.437105e+01	-1.307393e+01
5.468509e+01	-1.312136e+01
5.500095e+01	-1.316907e+01
5.531863e+01	-1.321752e+01
5.563815e+01	-1.326467e+01
5.595951e+01	-1.331292e+01
5.628273e+01	-1.336002e+01
5.660782e+01	-1.340792e+01
5.693479e+01	-1.345479e+01
5.726364e+01	-1.350276e+01
5.759439e+01	-1.355128e+01
5.792705e+01	-1.359921e+01
5.826164e+01	-1.364578e+01
5.859815e+01	-1.369478e+01
5.893662e+01	-1.374164e+01
5.927703e+01	-1.379096e+01
5.961941e+01	-1.383819e+01
5.996377e+01	-1.388654e+01
6.031012e+01	-1.393405e+01
6.065847e+01	-1.398256e+01
6.100883e+01	-1.403017e+01
6.136121e+01	-1.407872e+01
6.171563e+01	-1.412679e+01
6.207210e+01	-1.417430e+01
6.243063e+01	-1.422331e+01
6.279122e+01	-1.427113e+01
6.315390e+01	-1.431898e+01
6.351868e+01	-1.436670e+01
6.388556e+01	-1.441493e+01
6.425456e+01	-1.446423e+01
6.462569e+01	-1.451189e+01
6.499897e+01	-1.456014e+01
6.537440e+01	-1.460857e+01
6.575200e+01	-1.465763e+01
6.613178e+01	-1.470448e+01
6.651375e+01	-1.475389e+01
6.689793e+01	-1.480215e+01
6.728433e+01	-1.484991e+01
6.767297e+01	-1.489827e+01
6.806384e+01	-1.494703e+01
6.845698e+01	-1.499490e+01
6.885238e+01	-1.504353e+01
6.925007e+01	-1.509254e+01
6.965005e+01	-1.514132e+01
7.005235e+01	-1.518890e+01
7.045697e+01	-1.523816e+01
7.086393e+01	-1.528659e+01
7.127323e+01	-1.533440e+01
7.168490e+01	-1.538353e+01
7.209895e+01	-1.543274e+01
7.251539e+01	-1.548016e+01
7.293424e+01	-1.552951e+01
7.335551e+01	-1.557819e+01
7.377920e+01	-1.562689e+01
7.420535e+01	-1.567482e+01
7.463396e+01	-1.572415e+01
7.506504e+01	-1.577178e+01
7.549861e+01	-1.582170e+01
7.593469e+01	-1.587023e+01
7.637328e+01	-1.591877e+01
7.681441e+01	-1.596725e+01
7.725809e+01	-1.601636e+01
7.770433e+01	-1.606419e+01
7.815315e+01	-1.611377e+01
7.860456e+01	-1.616264e+01
7.905857e+01	-1.621148e+01
7.951521e+01	-1.626062e+01
7.997449e+01	-1.630979e+01
8.043642e+01	-1.635917e+01
8.090102e+01	-1.640693e+01
8.136830e+01	-1.645584e+01
8.183828e+01	-1.650445e+01
8.231097e+01	-1.655300e+01
8.278640e+01	-1.660229e+01
8.326457e+01	-1.665113e+01
8.374550e+01	-1.670193e+01
8.422921e+01	-1.674977e+01
8.471572e+01	-1.679914e+01
8.520503e+01	-1.684828e+01
8.569717e+01	-1.689598e+01
8.619215e+01	-1.694617e+01
8.669000e+01	-1.699418e+01
8.719071e+01	-1.704452e+01
8.769432e+01	-1.709331e+01
8.820084e+01	-1.714165e+01
8.871029e+01	-1.719036e+01
8.922267e+01	-1.724092e+01
8.973802e+01	-1.728869e+01
9.025634e+01	-1.733748e+01
9.077766e+01	-1.738750e+01
9.130199e+01	-1.743656e+01
9.182935e+01	-1.748610e+01
9.235975e+01	-1.753461e+01
9.289321e+01	-1.758451e+01
9.342976e+01	-1.763337e+01
9.396941e+01	-1.768141e+01
9.451217e+01	-1.773179e+01
9.505807e+01	-1.778034e+01
9.560712e+01	-1.782861e+01
9.615934e+01	-1.788023e+01
9.671476e+01	-1.792734e+01
9.727338e+01	-1.797699e+01
9.783522e+01	-1.802602e+01
9.840032e+01	-1.807584e+01
9.896867e+01	-1.812612e+01
9.954031e+01	-1.817512e+01
1.001153e+02	-1.822382e+01
1.006935e+02	-1.827352e+01
1.012751e+02	-1.832268e+01
1.018601e+02	-1.837106e+01
1.024484e+02	-1.842203e+01
1.030402e+02	-1.847068e+01
1.036353e+02	-1.851809e+01
1.042339e+02	-1.856828e+01
1.048360e+02	-1.861698e+01
1.054415e+02	-1.866795e+01
1.060505e+02	-1.871831e+01
1.066631e+02	-1.876708e+01
1.072791e+02	-1.881573e+01
1.078988e+02	-1.886533e+01
1.085220e+02	-1.891385e+01
1.091488e+02	-1.896315e+01
1.097793e+02	-1.901346e+01
1.104133e+02	-1.906255e+01
1.110511e+02	-1.911118e+01
1.116925e+02	-1.916164e+01
1.123376e+02	-1.921154e+01
1.129865e+02	-1.925842e+01
1.136391e+02	-1.931079e+01
1.142955e+02	-1.935975e+01
1.149556e+02	-1.940980e+01
1.156196e+02	-1.945848e+01
1.162874e+02	-1.950657e+01
1.169591e+02	-1.955775e+01
1.176347e+02	-1.960468e+01
1.183141e+02	-1.965573e+01
1.189975e+02	-1.970554e+01
1.196848e+02	-1.975494e+01
1.203761e+02	-1.980422e+01
1.210714e+02	-1.985297e+01
1.217707e+02	-1.990338e+01
1.224740e+02	-1.995368e+01
1.231814e+02	-2.000137e+01
1.238929e+02	-2.005263e+01
1.246085e+02	-2.009980e+01
1.253283e+02	-2.015218e+01
1.260522e+02	-2.020158e+01
1.267802e+02	-2.025102e+01
1.275125e+02	-2.030045e+01
1.282490e+02	-2.035030e+01
1.289898e+02	-2.039941e+01
1.297348e+02	-2.044942e+01
1.304842e+02	-2.049895e+01
1.312378e+02	-2.054916e+01
1.319959e+02	-2.059823e+01
1.327583e+02	-2.064665e+01
1.335251e+02	-2.069821e+01
1.342963e+02	-2.074536e+01
1.350720e+02	-2.079756e+01
1.358522e+02	-2.084477e+01
1.366368e+02	-2.089631e+01
1.374260e+02	-2.094393e+01
1.382198e+02	-2.099387e+01
1.390182e+02	-2.104428e+01
1.398211e+02	-2.109326e+01
1.406287e+02	-2.114408e+01
1.414410e+02	-2.119230e+01
1.422579e+02	-2.124309e+01
1.430796e+02	-2.129134e+01
1.439060e+02	-2.134290e+01
1.447372e+02	-2.139208e+01
1.455732e+02	-2.144060e+01
1.464141e+02	-2.149182e+01
1.472597e+02	-2.154010e+01
1.481103e+02	-2.159012e+01
1.489658e+02	-2.164064e+01
1.498262e+02	-2.169065e+01
1.506916e+02	-2.173896e+01
1.515620e+02	-2.178866e+01
1.524374e+02	-2.183972e+01
1.533179e+02	-2.188771e+01
1.542034e+02	-2.193830e+01
1.550941e+02	-2.198635e+01
1.559899e+02	-2.203876e+01
1.568909e+02	-2.208728e+01
1.577971e+02	-2.213817e+01
1.587085e+02	-2.218795e+01
1.596252e+02	-2.223810e+01
1.605472e+02	-2.228582e+01
1.614745e+02	-2.233866e+01
1.624072e+02	-2.238500e+01
1.633453e+02	-2.243647e+01
1.642887e+02	-2.248612e+01
1.652377e+02	-2.253410e+01
1.661921e+02	-2.258516e+01
1.671520e+02	-2.263568e+01
1.681175e+02	-2.268591e+01
1.690885e+02	-2.273266e+01
1.700651e+02	-2.278086e+01
1.710474e+02	-2.283345e+01
1.720354e+02	-2.288476e+01
1.730291e+02	-2.293480e+01
1.740285e+02	-2.298320e+01
1.750337e+02	-2.303507e+01
1.760446e+02	-2.308148e+01
1.770615e+02	-2.313167e+01
1.780842e+02	-2.317997e+01
1.791128e+02	-2.323330e+01
1.801473e+02	-2.328126e+01
1.811878e+02	-2.333321e+01
1.822344e+02	-2.338302e+01
1.832870e+02	-2.343141e+01
1.843456e+02	-2.348129e+01
1.854104e+02	-2.353076e+01
1.864813e+02	-2.358091e+01
1.875584e+02	-2.363222e+01
1.886418e+02	-2.368237e+01
1.897313e+02	-2.372900e+01
1.908272e+02	-2.378152e+01
1.919294e+02	-2.383062e+01
1.930380e+02	-2.387962e+01
1.941530e+02	-2.393219e+01
1.952744e+02	-2.398089e+01
1.964023e+02	-2.402780e+01
1.975367e+02	-2.407939e+01
1.986777e+02	-2.412891e+01
1.998252e+02	-2.417906e+01
2.009794e+02	-2.423051e+01
2.021403e+02	-2.427828e+01
2.033078e+02	-2.432879e+01
2.044821e+02	-2.438091e+01
2.056632e+02	-2.442890e+01
2.068511e+02	-2.447866e+01
2.080459e+02	-2.452974e+01
2.092475e+02	-2.457905e+01
2.104561e+02	-2.462876e+01
2.116717e+02	-2.467889e+01
2.128943e+02	-2.472744e+01
2.141240e+02	-2.477793e+01
2.153608e+02	-2.482814e+01
2.166047e+02	-2.487974e+01
2.178558e+02	-2.492526e+01
2.191141e+02	-2.497545e+01
2.203797e+02	-2.502463e+01
2.216526e+02	-2.507587e+01
2.229329e+02	-2.512630e+01
2.242205e+02	-2.517815e+01
2.255156e+02	-2.522409e+01
2.268182e+02	-2.527630e+01
2.281283e+02	-2.533027e+01
2.294459e+02	-2.537847e+01
2.307712e+02	-2.542526e+01
2.321041e+02	-2.548020e+01
2.334447e+02	-2.552590e+01
2.347931e+02	-2.557692e+01
2.361493e+02	-2.562740e+01
2.375133e+02	-2.567771e+01
2.388851e+02	-2.572923e+01
2.402649e+02	-2.577576e+01
2.416527e+02	-2.582646e+01
2.430484e+02	-2.588099e+01
2.444523e+02	-2.592313e+01
2.458642e+02	-2.597566e+01
2.472843e+02	-2.602626e+01
2.487126e+02	-2.607230e+01
2.501492e+02	-2.612745e+01
2.515940e+02	-2.617605e+01
2.530472e+02	-2.622566e+01
2.545088e+02	-2.627331e+01
2.559789e+02	-2.632548e+01
2.574574e+02	-2.637156e+01
2.589444e+02	-2.642476e+01
2.604401e+02	-2.647809e+01
2.619444e+02	-2.652532e+01
2.634574e+02	-2.657780e+01
2.649791e+02	-2.662867e+01
2.665096e+02	-2.667526e+01
2.680489e+02	-2.672239e+01
2.695972e+02	-2.677730e+01
2.711544e+02	-2.682588e+01
2.727205e+02	-2.687610e+01
2.742958e+02	-2.692348e+01
2.758801e+02	-2.697347e+01
2.774736e+02	-2.702641e+01
2.790762e+02	-2.707903e+01
2.806882e+02	-2.712925e+01
2.823094e+02	-2.717320e+01
2.839400e+02	-2.722852e+01
2.855800e+02	-2.727517e+01
2.872295e+02	-2.732274e+01
2.888886e+02	-2.737472e+01
2.905572e+02	-2.742514e+01
2.922354e+02	-2.747308e+01
2.939234e+02	-2.752529e+01
2.956211e+02	-2.757870e+01
2.973286e+02	-2.762557e+01
2.990459e+02	-2.767546e+01
3.007732e+02	-2.772445e+01
3.025104e+02	-2.777463e+01
3.042577e+02	-2.782203e+01
3.060151e+02	-2.787588e+01
3.077826e+02	-2.792640e+01
3.095604e+02	-2.797671e+01
3.113484e+02	-2.802840e+01
3.131467e+02	-2.807087e+01
3.149554e+02	-2.812574e+01
3.167746e+02	-2.817392e+01
3.186043e+02	-2.822341e+01
3.204445e+02	-2.827582e+01
3.222954e+02	-2.832484e+01
3.241570e+02	-2.837743e+01
3.260293e+02	-2.842178e+01
3.279124e+02	-2.847490e+01
3.298064e+02	-2.852278e+01
3.317114e+02	-2.857994e+01
3.336273e+02	-2.862857e+01
3.355544e+02	-2.867681e+01
3.374925e+02	-2.872414e+01
3.394418e+02	-2.877559e+01
3.414024e+02	-2.882363e+01
3.433744e+02	-2.887685e+01
3.453577e+02	-2.892858e+01
3.473525e+02	-2.897941e+01
3.493588e+02	-2.902662e+01
3.513766e+02	-2.907519e+01
3.534062e+02	-2.912917e+01
3.554474e+02	-2.917988e+01
3.575005e+02	-2.922632e+01
3.595654e+02	-2.927675e+01
3.616422e+02	-2.932749e+01
3.637311e+02	-2.937659e+01
3.658320e+02	-2.942901e+01
3.679450e+02	-2.947674e+01
3.700702e+02	-2.952324e+01
3.722077e+02	-2.957540e+01
3.743576e+02	-2.962770e+01
3.765199e+02	-2.967758e+01
3.786946e+02	-2.972624e+01
3.808820e+02	-2.977853e+01
3.830819e+02	-2.982662e+01
3.852946e+02	-2.987613e+01
3.875200e+02	-2.992739e+01
3.897583e+02	-2.997868e+01
3.920096e+02	-3.002542e+01
3.942738e+02	-3.008323e+01
3.965511e+02	-3.012706e+01
3.988416e+02	-3.017464e+01
4.011452e+02	-3.022724e+01
4.034622e+02	-3.027745e+01
4.057926e+02	-3.032980e+01
4.081365e+02	-3.037794e+01
4.104938e+02	-3.042884e+01
4.128648e+02	-3.048098e+01
4.152495e+02	-3.052152e+01
4.176480e+02	-3.057464e+01
4.200603e+02	-3.062773e+01
4.224866e+02	-3.068123e+01
4.249268e+02	-3.072971e+01
4.273812e+02	-3.078361e+01
4.298497e+02	-3.083358e+01
4.323325e+02	-3.088081e+01
4.348297e+02	-3.093201e+01
4.373412e+02	-3.098049e+01
4.398673e+02	-3.103417e+01
4.424079e+02	-3.108316e+01
4.449633e+02	-3.112603e+01
4.475334e+02	-3.117757e+01
4.501183e+02	-3.123127e+01
4.527182e+02	-3.128239e+01
4.553330e+02	-3.133212e+01
4.579630e+02	-3.138032e+01
4.606082e+02	-3.143573e+01
4.632687e+02	-3.148714e+01
4.659445e+02	-3.153323e+01
4.686358e+02	-3.158296e+01
4.713426e+02	-3.163338e+01
4.740650e+02	-3.168448e+01
4.768032e+02	-3.172918e+01
4.795572e+02	-3.178498e+01
4.823271e+02	-3.183475e+01
4.851130e+02	-3.188423e+01
4.879150e+02	-3.193019e+01
4.907332e+02	-3.197954e+01
4.935676e+02	-3.203787e+01
4.964185e+02	-3.208295e+01
4.992858e+02	-3.213704e+01
5.021696e+02	-3.218520e+01
5.050701e+02	-3.223643e+01
5.079874e+02	-3.228682e+01
5.109215e+02	-3.232802e+01
5.138726e+02	-3.238174e+01
5.168407e+02	-3.243569e+01
5.198259e+02	-3.248556e+01
5.228284e+02	-3.253613e+01
5.258482e+02	-3.258633e+01
5.288855e+02	-3.264219e+01
5.319403e+02	-3.268128e+01
5.350128e+02	-3.273489e+01
5.381030e+02	-3.278472e+01
5.412111e+02	-3.284048e+01
5.443371e+02	-3.289092e+01
5.474812e+02	-3.293369e+01
5.506434e+02	-3.298614e+01
5.538239e+02	-3.303743e+01
5.570228e+02	-3.308774e+01
5.602401e+02	-3.314486e+01
5.634760e+02	-3.319735e+01
5.667306e+02	-3.324175e+01
5.700040e+02	-3.329413e+01
5.732964e+02	-3.333758e+01
5.766077e+02	-3.340021e+01
5.799382e+02	-3.344265e+01
5.832879e+02	-3.349257e+01
5.866569e+02	-3.354311e+01
5.900454e+02	-3.359105e+01
5.934535e+02	-3.363196e+01
5.968813e+02	-3.369561e+01
6.003288e+02	-3.374061e+01
6.037963e+02	-3.379427e+01
6.072838e+02	-3.383905e+01
6.107914e+02	-3.389574e+01
6.143194e+02	-3.394754e+01
6.178676e+02	-3.399770e+01
6.214364e+02	-3.405148e+01
6.250258e+02	-3.409745e+01
6.286359e+02	-3.414656e+01
6.322669e+02	-3.419893e+01
6.359189e+02	-3.423730e+01
6.395919e+02	-3.429465e+01
6.432862e+02	-3.433949e+01
6.470017e+02	-3.438813e+01
6.507388e+02	-3.444951e+01
6.544974e+02	-3.449680e+01
6.582778e+02	-3.454360e+01
6.620800e+02	-3.459461e+01
6.659041e+02	-3.464736e+01
6.697504e+02	-3.470022e+01
6.736188e+02	-3.475448e+01
6.775096e+02	-3.479947e+01
6.814229e+02	-3.485442e+01
6.853587e+02	-3.491035e+01
6.893173e+02	-3.495197e+01
6.932988e+02	-3.499576e+01
6.973033e+02	-3.504099e+01
7.013309e+02	-3.509273e+01
