Frequency(Hz)	Magnitude(dB)
1.000000e+01	-2.130276e+00
1.005776e+01	-2.150055e+00
1.011585e+01	-2.169401e+00
1.017428e+01	-2.189174e+00
1.023305e+01	-2.208950e+00
1.029215e+01	-2.229033e+00
1.035160e+01	-2.249141e+00
1.041139e+01	-2.269281e+00
1.047153e+01	-2.290250e+00
1.053201e+01	-2.310271e+00
1.059284e+01	-2.331122e+00
1.065403e+01	-2.351783e+00
1.071556e+01	-2.373010e+00
1.077746e+01	-2.394204e+00
1.083971e+01	-2.415365e+00
1.090232e+01	-2.436852e+00
1.096529e+01	-2.458514e+00
1.102862e+01	-2.480171e+00
1.109232e+01	-2.501843e+00
1.115639e+01	-2.523887e+00
1.122083e+01	-2.545774e+00
1.128564e+01	-2.568460e+00
1.135083e+01	-2.590674e+00
1.141639e+01	-2.613097e+00
1.148233e+01	-2.635969e+00
1.154865e+01	-2.658812e+00
1.161536e+01	-2.681755e+00
1.168245e+01	-2.704837e+00
1.174992e+01	-2.728039e+00
1.181779e+01	-2.751648e+00
1.188605e+01	-2.775048e+00
1.195470e+01	-2.798520e+00
1.202375e+01	-2.822763e+00
1.209320e+01	-2.846395e+00
1.216305e+01	-2.870400e+00
1.223330e+01	-2.894921e+00
1.230396e+01	-2.919139e+00
1.237503e+01	-2.943796e+00
1.244651e+01	-2.968460e+00
1.251840e+01	-2.993343e+00
1.259070e+01	-3.018660e+00
1.266343e+01	-3.043440e+00
1.273657e+01	-3.068902e+00
1.281014e+01	-3.094080e+00
1.288413e+01	-3.119843e+00
1.295855e+01	-3.145626e+00
1.303339e+01	-3.171490e+00
1.310867e+01	-3.197457e+00
1.318439e+01	-3.223585e+00
1.326054e+01	-3.249765e+00
1.333713e+01	-3.276040e+00
1.341417e+01	-3.302747e+00
1.349165e+01	-3.329787e+00
1.356958e+01	-3.356427e+00
1.364795e+01	-3.383282e+00
1.372678e+01	-3.410661e+00
1.380607e+01	-3.437609e+00
1.388581e+01	-3.465030e+00
1.396602e+01	-3.492613e+00
1.404668e+01	-3.520448e+00
1.412782e+01	-3.548187e+00
1.420942e+01	-3.576436e+00
1.429149e+01	-3.604466e+00
1.437404e+01	-3.632551e+00
1.445706e+01	-3.661108e+00
1.454057e+01	-3.689672e+00
1.462455e+01	-3.718442e+00
1.470902e+01	-3.747524e+00
1.479398e+01	-3.776143e+00
1.487943e+01	-3.805476e+00
1.496537e+01	-3.834708e+00
1.505181e+01	-3.863996e+00
1.513875e+01	-3.893603e+00
1.522619e+01	-3.923341e+00
1.531414e+01	-3.953317e+00
1.540259e+01	-3.983280e+00
1.549156e+01	-4.013240e+00
1.558103e+01	-4.043203e+00
1.567103e+01	-4.073727e+00
1.576155e+01	-4.104485e+00
1.585258e+01	-4.134848e+00
1.594415e+01	-4.165890e+00
1.603624e+01	-4.196842e+00
1.612886e+01	-4.227817e+00
1.622202e+01	-4.259028e+00
1.631572e+01	-4.290135e+00
1.640996e+01	-4.321733e+00
1.650474e+01	-4.353513e+00
1.660008e+01	-4.385119e+00
1.669596e+01	-4.416831e+00
1.679239e+01	-4.449058e+00
1.688938e+01	-4.480954e+00
1.698694e+01	-4.513333e+00
1.708505e+01	-4.545781e+00
1.718373e+01	-4.578326e+00
1.728299e+01	-4.611143e+00
1.738281e+01	-4.643730e+00
1.748322e+01	-4.676982e+00
1.758420e+01	-4.709824e+00
1.768576e+01	-4.742993e+00
1.778792e+01	-4.776299e+00
1.789066e+01	-4.809719e+00
1.799399e+01	-4.843203e+00
1.809793e+01	-4.876850e+00
1.820246e+01	-4.910626e+00
1.830760e+01	-4.944686e+00
1.841334e+01	-4.978926e+00
1.851969e+01	-5.012693e+00
1.862666e+01	-5.047138e+00
1.873425e+01	-5.081672e+00
1.884246e+01	-5.116277e+00
1.895129e+01	-5.150914e+00
1.906075e+01	-5.185629e+00
1.917085e+01	-5.220477e+00
1.928158e+01	-5.255651e+00
1.939295e+01	-5.290900e+00
1.950496e+01	-5.326173e+00
1.961762e+01	-5.361510e+00
1.973093e+01	-5.396917e+00
1.984490e+01	-5.432580e+00
1.995952e+01	-5.468233e+00
2.007480e+01	-5.504412e+00
2.019076e+01	-5.540584e+00
2.030738e+01	-5.576140e+00
2.042467e+01	-5.612743e+00
2.054264e+01	-5.649011e+00
2.066130e+01	-5.685525e+00
2.078064e+01	-5.721711e+00
2.090066e+01	-5.758796e+00
2.102139e+01	-5.795628e+00
2.114280e+01	-5.832680e+00
2.126492e+01	-5.869415e+00
2.138775e+01	-5.906679e+00
2.151128e+01	-5.943849e+00
2.163553e+01	-5.981079e+00
2.176050e+01	-6.018770e+00
2.188619e+01	-6.056251e+00
2.201260e+01	-6.094040e+00
2.213974e+01	-6.131715e+00
2.226762e+01	-6.169515e+00
2.239624e+01	-6.208114e+00
2.252560e+01	-6.245839e+00
2.265571e+01	-6.283849e+00
2.278656e+01	-6.322161e+00
2.291818e+01	-6.360476e+00
2.305055e+01	-6.399322e+00
2.318369e+01	-6.437837e+00
2.331760e+01	-6.476348e+00
2.345228e+01	-6.515529e+00
2.358774e+01	-6.554227e+00
2.372398e+01	-6.593033e+00
2.386101e+01	-6.631909e+00
2.399883e+01	-6.671215e+00
2.413745e+01	-6.710739e+00
2.427686e+01	-6.750099e+00
2.441709e+01	-6.789971e+00
2.455812e+01	-6.829411e+00
2.469997e+01	-6.869032e+00
2.484263e+01	-6.908803e+00
2.498612e+01	-6.948759e+00
2.513044e+01	-6.988391e+00
2.527559e+01	-7.028624e+00
2.542158e+01	-7.069007e+00
2.556842e+01	-7.108638e+00
2.571610e+01	-7.149376e+00
2.586463e+01	-7.190007e+00
2.601403e+01	-7.230257e+00
2.616428e+01	-7.270991e+00
2.631541e+01	-7.311755e+00
2.646740e+01	-7.352437e+00
2.662028e+01	-7.393609e+00
2.677404e+01	-7.434131e+00
2.692868e+01	-7.475182e+00
2.708422e+01	-7.516502e+00
2.724066e+01	-7.557365e+00
2.739800e+01	-7.598968e+00
2.755625e+01	-7.639935e+00
2.771541e+01	-7.681824e+00
2.787550e+01	-7.723224e+00
2.803650e+01	-7.764737e+00
2.819844e+01	-7.806822e+00
2.836131e+01	-7.848324e+00
2.852513e+01	-7.889981e+00
2.868989e+01	-7.932062e+00
2.885560e+01	-7.974433e+00
2.902227e+01	-8.015798e+00
2.918990e+01	-8.058640e+00
2.935850e+01	-8.100872e+00
2.952807e+01	-8.142978e+00
2.969863e+01	-8.185557e+00
2.987016e+01	-8.228173e+00
3.004269e+01	-8.270504e+00
3.021622e+01	-8.313071e+00
3.039075e+01	-8.355558e+00
3.056628e+01	-8.398519e+00
3.074283e+01	-8.441347e+00
3.092040e+01	-8.484173e+00
3.109900e+01	-8.527194e+00
3.127862e+01	-8.570245e+00
3.145929e+01	-8.613118e+00
3.164099e+01	-8.656257e+00
3.182375e+01	-8.700032e+00
3.200756e+01	-8.742931e+00
3.219244e+01	-8.786496e+00
3.237838e+01	-8.829567e+00
3.256540e+01	-8.873357e+00
3.275349e+01	-8.916864e+00
3.294268e+01	-8.960652e+00
3.313295e+01	-9.003897e+00
3.332433e+01	-9.047576e+00
3.351681e+01	-9.091540e+00
3.371040e+01	-9.135448e+00
3.390511e+01	-9.179629e+00
3.410094e+01	-9.223607e+00
3.429791e+01	-9.267718e+00
3.449601e+01	-9.311928e+00
3.469526e+01	-9.356029e+00
3.489566e+01	-9.400608e+00
3.509721e+01	-9.444253e+00
3.529993e+01	-9.488874e+00
3.550382e+01	-9.533448e+00
3.570889e+01	-9.577466e+00
3.591515e+01	-9.622219e+00
3.612259e+01	-9.667011e+00
3.633123e+01	-9.711703e+00
3.654108e+01	-9.756385e+00
3.675214e+01	-9.800958e+00
3.696442e+01	-9.845348e+00
3.717792e+01	-9.891064e+00
3.739266e+01	-9.936152e+00
3.760864e+01	-9.980614e+00
3.782587e+01	-1.002598e+01
3.804435e+01	-1.007048e+01
3.826409e+01	-1.011604e+01
3.848510e+01	-1.016060e+01
3.870739e+01	-1.020688e+01
3.893096e+01	-1.025121e+01
3.915583e+01	-1.029720e+01
3.938199e+01	-1.034257e+01
3.960946e+01	-1.038785e+01
3.983824e+01	-1.043366e+01
4.006834e+01	-1.047925e+01
4.029978e+01	-1.052399e+01
4.053255e+01	-1.057043e+01
4.076666e+01	-1.061574e+01
4.100213e+01	-1.066119e+01
4.123896e+01	-1.070673e+01
4.147715e+01	-1.075307e+01
4.171672e+01	-1.079873e+01
4.195767e+01	-1.084484e+01
4.220002e+01	-1.089057e+01
4.244377e+01	-1.093626e+01
4.268892e+01	-1.098197e+01
4.293549e+01	-1.102871e+01
4.318348e+01	-1.107419e+01
4.343291e+01	-1.112090e+01
4.368377e+01	-1.116719e+01
4.393609e+01	-1.121384e+01
4.418986e+01	-1.125962e+01
4.444510e+01	-1.130594e+01
4.470182e+01	-1.135204e+01
4.496001e+01	-1.139888e+01
4.521970e+01	-1.144512e+01
4.548089e+01	-1.149165e+01
4.574358e+01	-1.153797e+01
4.600779e+01	-1.158420e+01
4.627353e+01	-1.163063e+01
4.654081e+01	-1.167727e+01
4.680963e+01	-1.172345e+01
4.708000e+01	-1.177109e+01
4.735193e+01	-1.181788e+01
4.762543e+01	-1.186426e+01
4.790051e+01	-1.191127e+01
4.817719e+01	-1.195825e+01
4.845545e+01	-1.200492e+01
4.873533e+01	-1.205225e+01
4.901682e+01	-1.209894e+01
4.929994e+01	-1.214586e+01
4.958470e+01	-1.219297e+01
4.987110e+01	-1.224015e+01
5.015915e+01	-1.228667e+01
5.044887e+01	-1.233438e+01
5.074026e+01	-1.238123e+01
5.103333e+01	-1.242857e+01
5.132810e+01	-1.247546e+01
5.162457e+01	-1.252279e+01
5.192275e+01	-1.256972e+01
5.222265e+01	-1.261769e+01
5.252429e+01	-1.266451e+01
5.282767e+01	-1.271134e+01
5.313280e+01	-1.275882e+01
5.343969e+01	-1.280628e+01
5.374836e+01	-1.285439e+01
5.405880e+01	-1.290138e+01
5.437105e+01	-1.294934e+01
5.468509e+01	-1.299721e+01
5.500095e+01	-1.304378e+01
5.531863e+01	-1.309205e+01
5.563815e+01	-1.313894e+01
5.595951e+01	-1.318747e+01
5.628273e+01	-1.323373e+01
5.660782e+01	-1.328240e+01
5.693479e+01	-1.332959e+01
5.726364e+01	-1.337700e+01
5.759439e+01	-1.342508e+01
5.792705e+01	-1.347269e+01
5.826164e+01	-1.352061e+01
5.859815e+01	-1.356907e+01
5.893662e+01	-1.361620e+01
5.927703e+01	-1.366417e+01
5.961941e+01	-1.371218e+01
5.996377e+01	-1.376030e+01
6.031012e+01	-1.380701e+01
6.065847e+01	-1.385600e+01
6.100883e+01	-1.390236e+01
6.136121e+01	-1.395162e+01
6.171563e+01	-1.400018e+01
6.207210e+01	-1.404787e+01
6.243063e+01	-1.409626e+01
6.279122e+01	-1.414414e+01
6.315390e+01	-1.419173e+01
6.351868e+01	-1.424045e+01
6.388556e+01	-1.428829e+01
6.425456e+01	-1.433644e+01
6.462569e+01	-1.438472e+01
6.499897e+01	-1.443310e+01
6.537440e+01	-1.448064e+01
6.575200e+01	-1.452966e+01
6.613178e+01	-1.457759e+01
6.651375e+01	-1.462683e+01
6.689793e+01	-1.467437e+01
6.728433e+01	-1.472343e+01
6.767297e+01	-1.477079e+01
6.806384e+01	-1.481989e+01
6.845698e+01	-1.486844e+01
6.885238e+01	-1.491600e+01
6.925007e+01	-1.496577e+01
6.965005e+01	-1.501313e+01
7.005235e+01	-1.506165e+01
7.045697e+01	-1.510979e+01
7.086393e+01	-1.515793e+01
7.127323e+01	-1.520759e+01
7.168490e+01	-1.525595e+01
7.209895e+01	-1.530444e+01
7.251539e+01	-1.535266e+01
7.293424e+01	-1.540015e+01
7.335551e+01	-1.545007e+01
7.377920e+01	-1.549892e+01
7.420535e+01	-1.554672e+01
7.463396e+01	-1.559588e+01
7.506504e+01	-1.564376e+01
7.549861e+01	-1.569356e+01
7.593469e+01	-1.574212e+01
7.637328e+01	-1.579106e+01
7.681441e+01	-1.583898e+01
7.725809e+01	-1.588867e+01
7.770433e+01	-1.593651e+01
7.815315e+01	-1.598562e+01
7.860456e+01	-1.603370e+01
7.905857e+01	-1.608223e+01
7.951521e+01	-1.613222e+01
7.997449e+01	-1.618057e+01
8.043642e+01	-1.623002e+01
8.090102e+01	-1.627821e+01
8.136830e+01	-1.632647e+01
8.183828e+01	-1.637589e+01
8.231097e+01	-1.642526e+01
8.278640e+01	-1.647417e+01
8.326457e+01	-1.652283e+01
8.374550e+01	-1.657273e+01
8.422921e+01	-1.662092e+01
8.471572e+01	-1.666908e+01
8.520503e+01	-1.671941e+01
8.569717e+01	-1.676760e+01
8.619215e+01	-1.681598e+01
8.669000e+01	-1.686567e+01
8.719071e+01	-1.691390e+01
8.769432e+01	-1.696377e+01
8.820084e+01	-1.701200e+01
8.871029e+01	-1.706117e+01
8.922267e+01	-1.710936e+01
8.973802e+01	-1.715979e+01
9.025634e+01	-1.720845e+01
9.077766e+01	-1.725722e+01
9.130199e+01	-1.730595e+01
9.182935e+01	-1.735726e+01
9.235975e+01	-1.740344e+01
9.289321e+01	-1.745487e+01
9.342976e+01	-1.750369e+01
9.396941e+01	-1.755326e+01
9.451217e+01	-1.760140e+01
9.505807e+01	-1.765206e+01
9.560712e+01	-1.770078e+01
9.615934e+01	-1.774991e+01
9.671476e+01	-1.779909e+01
9.727338e+01	-1.784757e+01
9.783522e+01	-1.789712e+01
9.840032e+01	-1.794639e+01
9.896867e+01	-1.799610e+01
9.954031e+01	-1.804442e+01
1.001153e+02	-1.809311e+01
1.006935e+02	-1.814290e+01
1.012751e+02	-1.819186e+01
1.018601e+02	-1.824194e+01
1.024484e+02	-1.829134e+01
1.030402e+02	-1.834016e+01
1.036353e+02	-1.838934e+01
1.042339e+02	-1.843912e+01
1.048360e+02	-1.848897e+01
1.054415e+02	-1.853672e+01
1.060505e+02	-1.858810e+01
1.066631e+02	-1.863602e+01
1.072791e+02	-1.868470e+01
1.078988e+02	-1.873427e+01
1.085220e+02	-1.878398e+01
1.091488e+02	-1.883263e+01
1.097793e+02	-1.888384e+01
1.104133e+02	-1.893206e+01
1.110511e+02	-1.898205e+01
1.116925e+02	-1.903033e+01
1.123376e+02	-1.907991e+01
1.129865e+02	-1.913020e+01
1.136391e+02	-1.917937e+01
1.142955e+02	-1.922948e+01
1.149556e+02	-1.927838e+01
1.156196e+02	-1.932826e+01
1.162874e+02	-1.937803e+01
1.169591e+02	-1.942778e+01
1.176347e+02	-1.947670e+01
1.183141e+02	-1.952622e+01
1.189975e+02	-1.957470e+01
1.196848e+02	-1.962493e+01
1.203761e+02	-1.967468e+01
1.210714e+02	-1.972330e+01
1.217707e+02	-1.977143e+01
1.224740e+02	-1.982379e+01
1.231814e+02	-1.987118e+01
1.238929e+02	-1.992284e+01
1.246085e+02	-1.997190e+01
1.253283e+02	-2.002180e+01
1.260522e+02	-2.006945e+01
1.267802e+02	-2.012087e+01
1.275125e+02	-2.016936e+01
1.282490e+02	-2.021887e+01
1.289898e+02	-2.026915e+01
1.297348e+02	-2.031741e+01
1.304842e+02	-2.036868e+01
1.312378e+02	-2.041700e+01
1.319959e+02	-2.046750e+01
1.327583e+02	-2.051692e+01
1.335251e+02	-2.056603e+01
1.342963e+02	-2.061681e+01
1.350720e+02	-2.066546e+01
1.358522e+02	-2.071350e+01
1.366368e+02	-2.076381e+01
1.374260e+02	-2.081337e+01
1.382198e+02	-2.086423e+01
1.390182e+02	-2.091401e+01
1.398211e+02	-2.096279e+01
1.406287e+02	-2.101110e+01
1.414410e+02	-2.106295e+01
1.422579e+02	-2.111204e+01
1.430796e+02	-2.116114e+01
1.439060e+02	-2.121056e+01
1.447372e+02	-2.126097e+01
1.455732e+02	-2.131087e+01
1.464141e+02	-2.136138e+01
1.472597e+02	-2.141089e+01
1.481103e+02	-2.145972e+01
1.489658e+02	-2.150966e+01
1.498262e+02	-2.155966e+01
1.506916e+02	-2.160869e+01
1.515620e+02	-2.166068e+01
1.524374e+02	-2.170992e+01
1.533179e+02	-2.175622e+01
1.542034e+02	-2.180789e+01
1.550941e+02	-2.185801e+01
1.559899e+02	-2.190780e+01
1.568909e+02	-2.195742e+01
1.577971e+02	-2.200648e+01
1.587085e+02	-2.205679e+01
1.596252e+02	-2.210649e+01
1.605472e+02	-2.215631e+01
1.614745e+02	-2.220536e+01
1.624072e+02	-2.225508e+01
1.633453e+02	-2.230678e+01
1.642887e+02	-2.235382e+01
1.652377e+02	-2.240449e+01
1.661921e+02	-2.245501e+01
1.671520e+02	-2.250271e+01
1.681175e+02	-2.255188e+01
1.690885e+02	-2.260262e+01
1.700651e+02	-2.265543e+01
1.710474e+02	-2.270374e+01
1.720354e+02	-2.275314e+01
1.730291e+02	-2.280342e+01
1.740285e+02	-2.285219e+01
1.750337e+02	-2.290471e+01
1.760446e+02	-2.295078e+01
1.770615e+02	-2.300306e+01
1.780842e+02	-2.305205e+01
1.791128e+02	-2.310176e+01
1.801473e+02	-2.315010e+01
1.811878e+02	-2.319971e+01
1.822344e+02	-2.325293e+01
1.832870e+02	-2.329985e+01
1.843456e+02	-2.335053e+01
1.854104e+02	-2.340133e+01
1.864813e+02	-2.344986e+01
1.875584e+02	-2.350090e+01
1.886418e+02	-2.354763e+01
1.897313e+02	-2.359887e+01
1.908272e+02	-2.364789e+01
1.919294e+02	-2.369834e+01
1.930380e+02	-2.374526e+01
1.941530e+02	-2.379864e+01
1.952744e+02	-2.384855e+01
1.964023e+02	-2.390082e+01
1.975367e+02	-2.394957e+01
1.986777e+02	-2.399900e+01
1.998252e+02	-2.404639e+01
2.009794e+02	-2.410007e+01
2.021403e+02	-2.414802e+01
2.033078e+02	-2.419714e+01
2.044821e+02	-2.424669e+01
2.056632e+02	-2.429731e+01
2.068511e+02	-2.434594e+01
2.080459e+02	-2.439668e+01
2.092475e+02	-2.444580e+01
2.104561e+02	-2.449742e+01
2.116717e+02	-2.454939e+01
2.128943e+02	-2.459768e+01
2.141240e+02	-2.464644e+01
2.153608e+02	-2.469655e+01
2.166047e+02	-2.474543e+01
2.178558e+02	-2.479468e+01
2.191141e+02	-2.484543e+01
2.203797e+02	-2.489575e+01
2.216526e+02	-2.494676e+01
2.229329e+02	-2.499283e+01
2.242205e+02	-2.504651e+01
2.255156e+02	-2.509846e+01
2.268182e+02	-2.514834e+01
2.281283e+02	-2.519325e+01
2.294459e+02	-2.524463e+01
2.307712e+02	-2.529646e+01
2.321041e+02	-2.534719e+01
2.334447e+02	-2.539714e+01
2.347931e+02	-2.544559e+01
2.361493e+02	-2.549531e+01
2.375133e+02	-2.554338e+01
2.388851e+02	-2.559639e+01
2.402649e+02	-2.564324e+01
2.416527e+02	-2.569302e+01
2.430484e+02	-2.574522e+01
2.444523e+02	-2.579552e+01
2.458642e+02	-2.584466e+01
2.472843e+02	-2.589176e+01
2.487126e+02	-2.594492e+01
2.501492e+02	-2.600067e+01
2.515940e+02	-2.604316e+01
2.530472e+02	-2.609847e+01
2.545088e+02	-2.614605e+01
2.559789e+02	-2.619469e+01
2.574574e+02	-2.624495e+01
2.589444e+02	-2.629218e+01
2.604401e+02	-2.634186e+01
2.619444e+02	-2.639747e+01
2.634574e+02	-2.644298e+01
2.649791e+02	-2.649442e+01
2.665096e+02	-2.654079e+01
2.680489e+02	-2.659575e+01
2.695972e+02	-2.664861e+01
2.711544e+02	-2.669390e+01
2.727205e+02	-2.674322e+01
2.742958e+02	-2.678921e+01
2.758801e+02	-2.684428e+01
2.774736e+02	-2.689479e+01
2.790762e+02	-2.694422e+01
2.806882e+02	-2.699375e+01
2.823094e+02	-2.704170e+01
2.839400e+02	-2.709769e+01
2.855800e+02	-2.714832e+01
2.872295e+02	-2.719225e+01
2.888886e+02	-2.724017e+01
2.905572e+02	-2.729365e+01
2.922354e+02	-2.734558e+01
2.939234e+02	-2.739648e+01
2.956211e+02	-2.744244e+01
2.973286e+02	-2.749327e+01
2.990459e+02	-2.754345e+01
3.007732e+02	-2.759283e+01
3.025104e+02	-2.764350e+01
3.042577e+02	-2.769416e+01
3.060151e+02	-2.774356e+01
3.077826e+02	-2.779638e+01
3.095604e+02	-2.784372e+01
3.113484e+02	-2.789375e+01
3.131467e+02	-2.794435e+01
3.149554e+02	-2.799291e+01
3.167746e+02	-2.804677e+01
3.186043e+02	-2.809108e+01
3.204445e+02	-2.814393e+01
3.222954e+02	-2.819400e+01
3.241570e+02	-2.824253e+01
3.260293e+02	-2.829289e+01
3.279124e+02	-2.834204e+01
3.298064e+02	-2.839619e+01
3.317114e+02	-2.844452e+01
3.336273e+02	-2.849313e+01
3.355544e+02	-2.854298e+01
3.374925e+02	-2.859564e+01
3.394418e+02	-2.864369e+01
3.414024e+02	-2.870029e+01
3.433744e+02	-2.874575e+01
3.453577e+02	-2.879218e+01
3.473525e+02	-2.884621e+01
3.493588e+02	-2.889419e+01
3.513766e+02	-2.894549e+01
3.534062e+02	-2.899679e+01
3.554474e+02	-2.904103e+01
3.575005e+02	-2.909643e+01
3.595654e+02	-2.914495e+01
3.616422e+02	-2.919914e+01
3.637311e+02	-2.924498e+01
3.658320e+02	-2.929891e+01
3.679450e+02	-2.934808e+01
3.700702e+02	-2.939665e+01
3.722077e+02	-2.944474e+01
3.743576e+02	-2.949830e+01
3.765199e+02	-2.954726e+01
3.786946e+02	-2.959171e+01
3.808820e+02	-2.964523e+01
3.830819e+02	-2.970137e+01
3.852946e+02	-2.975018e+01
3.875200e+02	-2.979848e+01
3.897583e+02	-2.985166e+01
3.920096e+02	-2.989588e+01
3.942738e+02	-2.994734e+01
3.965511e+02	-2.999953e+01
3.988416e+02	-3.004741e+01
4.011452e+02	-3.009926e+01
4.034622e+02	-3.014322e+01
4.057926e+02	-3.019727e+01
4.081365e+02	-3.024895e+01
4.104938e+02	-3.030245e+01
4.128648e+02	-3.035176e+01
4.152495e+02	-3.039990e+01
4.176480e+02	-3.045551e+01
4.200603e+02	-3.049989e+01
4.224866e+02	-3.054667e+01
4.249268e+02	-3.059237e+01
4.273812e+02	-3.064957e+01
4.298497e+02	-3.069701e+01
4.323325e+02	-3.074325e+01
4.348297e+02	-3.079606e+01
4.373412e+02	-3.084595e+01
4.398673e+02	-3.090250e+01
4.424079e+02	-3.095220e+01
4.449633e+02	-3.099909e+01
4.475334e+02	-3.104760e+01
4.501183e+02	-3.110379e+01
4.527182e+02	-3.115132e+01
4.553330e+02	-3.120611e+01
4.579630e+02	-3.125350e+01
4.606082e+02	-3.130221e+01
4.632687e+02	-3.135537e+01
4.659445e+02	-3.140517e+01
4.686358e+02	-3.145200e+01
4.713426e+02	-3.150000e+01
4.740650e+02	-3.155159e+01
4.768032e+02	-3.159923e+01
4.795572e+02	-3.165683e+01
4.823271e+02	-3.170613e+01
4.851130e+02	-3.175771e+01
4.879150e+02	-3.179774e+01
4.907332e+02	-3.185209e+01
4.935676e+02	-3.190410e+01
4.964185e+02	-3.195139e+01
4.992858e+02	-3.200038e+01
5.021696e+02	-3.205022e+01
5.050701e+02	-3.210367e+01
5.079874e+02	-3.215271e+01
5.109215e+02	-3.220677e+01
5.138726e+02	-3.225545e+01
5.168407e+02	-3.230047e+01
5.198259e+02	-3.235248e+01
5.228284e+02	-3.239631e+01
5.258482e+02	-3.246031e+01
5.288855e+02	-3.250883e+01
5.319403e+02	-3.255198e+01
5.350128e+02	-3.260703e+01
5.381030e+02	-3.266055e+01
5.412111e+02	-3.271032e+01
5.443371e+02	-3.275779e+01
5.474812e+02	-3.280688e+01
5.506434e+02	-3.286164e+01
5.538239e+02	-3.290819e+01
5.570228e+02	-3.295795e+01
5.602401e+02	-3.301255e+01
5.634760e+02	-3.306194e+01
5.667306e+02	-3.310754e+01
5.700040e+02	-3.315498e+01
5.732964e+02	-3.321382e+01
5.766077e+02	-3.325694e+01
5.799382e+02	-3.331685e+01
5.832879e+02	-3.335720e+01
5.866569e+02	-3.340192e+01
5.900454e+02	-3.345614e+01
5.934535e+02	-3.351267e+01
5.968813e+02	-3.355932e+01
6.003288e+02	-3.361183e+01
6.037963e+02	-3.366310e+01
6.072838e+02	-3.371175e+01
6.107914e+02	-3.376787e+01
6.143194e+02	-3.381442e+01
6.178676e+02	-3.387171e+01
6.214364e+02	-3.391412e+01
6.250258e+02	-3.396579e+01
6.286359e+02	-3.402141e+01
6.322669e+02	-3.406653e+01
6.359189e+02	-3.411508e+01
6.395919e+02	-3.416403e+01
6.432862e+02	-3.421687e+01
6.470017e+02	-3.426882e+01
6.507388e+02	-3.431509e+01
6.544974e+02	-3.436569e+01
6.582778e+02	-3.442002e+01
6.620800e+02	-3.445888e+01
6.659041e+02	-3.451805e+01
6.697504e+02	-3.456727e+01
6.736188e+02	-3.462438e+01
6.775096e+02	-3.467398e+01
6.814229e+02	-3.472285e+01
6.853587e+02	-3.477267e+01
6.893173e+02	-3.482080e+01
6.932988e+02	-3.487428e+01
6.973033e+02	-3.492164e+01
7.013309e+02	-3.496800e+01
