Frequency(Hz)	Magnitude(dB)
1.000000e+01	-2.128453e+00
1.005776e+01	-2.147859e+00
1.011585e+01	-2.167386e+00
1.017428e+01	-2.187366e+00
1.023305e+01	-2.206947e+00
1.029215e+01	-2.226944e+00
1.035160e+01	-2.247183e+00
1.041139e+01	-2.267411e+00
1.047153e+01	-2.287586e+00
1.053201e+01	-2.308312e+00
1.059284e+01	-2.329040e+00
1.065403e+01	-2.349763e+00
1.071556e+01	-2.370938e+00
1.077746e+01	-2.391884e+00
1.083971e+01	-2.413207e+00
1.090232e+01	-2.434800e+00
1.096529e+01	-2.456410e+00
1.102862e+01	-2.477797e+00
1.109232e+01	-2.499729e+00
1.115639e+01	-2.521679e+00
1.122083e+01	-2.543568e+00
1.128564e+01	-2.566165e+00
1.135083e+01	-2.588331e+00
1.141639e+01	-2.610928e+00
1.148233e+01	-2.633648e+00
1.154865e+01	-2.656396e+00
1.161536e+01	-2.679513e+00
1.168245e+01	-2.702631e+00
1.174992e+01	-2.725489e+00
1.181779e+01	-2.749289e+00
1.188605e+01	-2.772897e+00
1.195470e+01	-2.796353e+00
1.202375e+01	-2.820123e+00
1.209320e+01	-2.844132e+00
1.216305e+01	-2.868104e+00
1.223330e+01	-2.892521e+00
1.230396e+01	-2.916771e+00
1.237503e+01	-2.941395e+00
1.244651e+01	-2.966223e+00
1.251840e+01	-2.990959e+00
1.259070e+01	-3.015933e+00
1.266343e+01	-3.040844e+00
1.273657e+01	-3.066289e+00
1.281014e+01	-3.091532e+00
1.288413e+01	-3.117245e+00
1.295855e+01	-3.143024e+00
1.303339e+01	-3.168814e+00
1.310867e+01	-3.194758e+00
1.318439e+01	-3.220919e+00
1.326054e+01	-3.247221e+00
1.333713e+01	-3.273402e+00
1.341417e+01	-3.300081e+00
1.349165e+01	-3.326743e+00
1.356958e+01	-3.353462e+00
1.364795e+01	-3.380598e+00
1.372678e+01	-3.407715e+00
1.380607e+01	-3.434797e+00
1.388581e+01	-3.462442e+00
1.396602e+01	-3.489791e+00
1.404668e+01	-3.517706e+00
1.412782e+01	-3.545301e+00
1.420942e+01	-3.573568e+00
1.429149e+01	-3.601640e+00
1.437404e+01	-3.630105e+00
1.445706e+01	-3.658448e+00
1.454057e+01	-3.686852e+00
1.462455e+01	-3.715543e+00
1.470902e+01	-3.744538e+00
1.479398e+01	-3.773358e+00
1.487943e+01	-3.802363e+00
1.496537e+01	-3.831785e+00
1.505181e+01	-3.860823e+00
1.513875e+01	-3.890806e+00
1.522619e+01	-3.920145e+00
1.531414e+01	-3.950240e+00
1.540259e+01	-3.980106e+00
1.549156e+01	-4.010255e+00
1.558103e+01	-4.040313e+00
1.567103e+01	-4.070804e+00
1.576155e+01	-4.101194e+00
1.585258e+01	-4.131762e+00
1.594415e+01	-4.162721e+00
1.603624e+01	-4.193659e+00
1.612886e+01	-4.224510e+00
1.622202e+01	-4.256015e+00
1.631572e+01	-4.286978e+00
1.640996e+01	-4.318807e+00
1.650474e+01	-4.350270e+00
1.660008e+01	-4.382014e+00
1.669596e+01	-4.413910e+00
1.679239e+01	-4.445882e+00
1.688938e+01	-4.478003e+00
1.698694e+01	-4.509885e+00
1.708505e+01	-4.542610e+00
1.718373e+01	-4.575069e+00
1.728299e+01	-4.607893e+00
1.738281e+01	-4.640662e+00
1.748322e+01	-4.673385e+00
1.758420e+01	-4.706474e+00
1.768576e+01	-4.739691e+00
1.778792e+01	-4.772924e+00
1.789066e+01	-4.806316e+00
1.799399e+01	-4.839831e+00
1.809793e+01	-4.873285e+00
1.820246e+01	-4.907528e+00
1.830760e+01	-4.941141e+00
1.841334e+01	-4.975208e+00
1.851969e+01	-5.009407e+00
1.862666e+01	-5.043782e+00
1.873425e+01	-5.078326e+00
1.884246e+01	-5.112713e+00
1.895129e+01	-5.147519e+00
1.906075e+01	-5.182051e+00
1.917085e+01	-5.217245e+00
1.928158e+01	-5.251848e+00
1.939295e+01	-5.287266e+00
1.950496e+01	-5.322334e+00
1.961762e+01	-5.358002e+00
1.973093e+01	-5.393393e+00
1.984490e+01	-5.429172e+00
1.995952e+01	-5.465252e+00
2.007480e+01	-5.500708e+00
2.019076e+01	-5.536842e+00
2.030738e+01	-5.572628e+00
2.042467e+01	-5.609014e+00
2.054264e+01	-5.645240e+00
2.066130e+01	-5.681665e+00
2.078064e+01	-5.718322e+00
2.090066e+01	-5.754993e+00
2.102139e+01	-5.791997e+00
2.114280e+01	-5.828815e+00
2.126492e+01	-5.865576e+00
2.138775e+01	-5.902688e+00
2.151128e+01	-5.939991e+00
2.163553e+01	-5.977500e+00
2.176050e+01	-6.015036e+00
2.188619e+01	-6.052586e+00
2.201260e+01	-6.090431e+00
2.213974e+01	-6.128103e+00
2.226762e+01	-6.165820e+00
2.239624e+01	-6.203626e+00
2.252560e+01	-6.241926e+00
2.265571e+01	-6.280195e+00
2.278656e+01	-6.318331e+00
2.291818e+01	-6.356706e+00
2.305055e+01	-6.395345e+00
2.318369e+01	-6.433617e+00
2.331760e+01	-6.472537e+00
2.345228e+01	-6.511640e+00
2.358774e+01	-6.550297e+00
2.372398e+01	-6.589400e+00
2.386101e+01	-6.628120e+00
2.399883e+01	-6.667795e+00
2.413745e+01	-6.706778e+00
2.427686e+01	-6.746313e+00
2.441709e+01	-6.785585e+00
2.455812e+01	-6.825237e+00
2.469997e+01	-6.865084e+00
2.484263e+01	-6.904537e+00
2.498612e+01	-6.944410e+00
2.513044e+01	-6.984657e+00
2.527559e+01	-7.024449e+00
2.542158e+01	-7.064952e+00
2.556842e+01	-7.105067e+00
2.571610e+01	-7.145165e+00
2.586463e+01	-7.185781e+00
2.601403e+01	-7.226237e+00
2.616428e+01	-7.266874e+00
2.631541e+01	-7.307496e+00
2.646740e+01	-7.348535e+00
2.662028e+01	-7.389247e+00
2.677404e+01	-7.430398e+00
2.692868e+01	-7.471125e+00
2.708422e+01	-7.512549e+00
2.724066e+01	-7.553255e+00
2.739800e+01	-7.594680e+00
2.755625e+01	-7.636258e+00
2.771541e+01	-7.677884e+00
2.787550e+01	-7.719566e+00
2.803650e+01	-7.760797e+00
2.819844e+01	-7.802371e+00
2.836131e+01	-7.844136e+00
2.852513e+01	-7.886017e+00
2.868989e+01	-7.927528e+00
2.885560e+01	-7.969882e+00
2.902227e+01	-8.011797e+00
2.918990e+01	-8.054242e+00
2.935850e+01	-8.096044e+00
2.952807e+01	-8.138871e+00
2.969863e+01	-8.180626e+00
2.987016e+01	-8.223357e+00
3.004269e+01	-8.266368e+00
3.021622e+01	-8.308626e+00
3.039075e+01	-8.351068e+00
3.056628e+01	-8.394056e+00
3.074283e+01	-8.436852e+00
3.092040e+01	-8.479842e+00
3.109900e+01	-8.523410e+00
3.127862e+01	-8.565912e+00
3.145929e+01	-8.609068e+00
3.164099e+01	-8.652233e+00
3.182375e+01	-8.695349e+00
3.200756e+01	-8.738656e+00
3.219244e+01	-8.781713e+00
3.237838e+01	-8.825191e+00
3.256540e+01	-8.869204e+00
3.275349e+01	-8.912546e+00
3.294268e+01	-8.956262e+00
3.313295e+01	-9.000063e+00
3.332433e+01	-9.042986e+00
3.351681e+01	-9.087422e+00
3.371040e+01	-9.131211e+00
3.390511e+01	-9.175136e+00
3.410094e+01	-9.219317e+00
3.429791e+01	-9.263744e+00
3.449601e+01	-9.307984e+00
3.469526e+01	-9.351847e+00
3.489566e+01	-9.396071e+00
3.509721e+01	-9.440326e+00
3.529993e+01	-9.484680e+00
3.550382e+01	-9.528931e+00
3.570889e+01	-9.573242e+00
3.591515e+01	-9.618089e+00
3.612259e+01	-9.662064e+00
3.633123e+01	-9.707465e+00
3.654108e+01	-9.751865e+00
3.675214e+01	-9.796625e+00
3.696442e+01	-9.841542e+00
3.717792e+01	-9.886296e+00
3.739266e+01	-9.931221e+00
3.760864e+01	-9.975803e+00
3.782587e+01	-1.002151e+01
3.804435e+01	-1.006640e+01
3.826409e+01	-1.011203e+01
3.848510e+01	-1.015687e+01
3.870739e+01	-1.020173e+01
3.893096e+01	-1.024729e+01
3.915583e+01	-1.029248e+01
3.938199e+01	-1.033776e+01
3.960946e+01	-1.038306e+01
3.983824e+01	-1.042895e+01
4.006834e+01	-1.047461e+01
4.029978e+01	-1.052029e+01
4.053255e+01	-1.056541e+01
4.076666e+01	-1.061163e+01
4.100213e+01	-1.065678e+01
4.123896e+01	-1.070239e+01
4.147715e+01	-1.074754e+01
4.171672e+01	-1.079411e+01
4.195767e+01	-1.084015e+01
4.220002e+01	-1.088637e+01
4.244377e+01	-1.093233e+01
4.268892e+01	-1.097800e+01
4.293549e+01	-1.102384e+01
4.318348e+01	-1.107077e+01
4.343291e+01	-1.111617e+01
4.368377e+01	-1.116245e+01
4.393609e+01	-1.120868e+01
4.418986e+01	-1.125489e+01
4.444510e+01	-1.130128e+01
4.470182e+01	-1.134801e+01
4.496001e+01	-1.139349e+01
4.521970e+01	-1.144088e+01
4.548089e+01	-1.148653e+01
4.574358e+01	-1.153324e+01
4.600779e+01	-1.157945e+01
4.627353e+01	-1.162620e+01
4.654081e+01	-1.167346e+01
4.680963e+01	-1.171980e+01
4.708000e+01	-1.176633e+01
4.735193e+01	-1.181287e+01
4.762543e+01	-1.185970e+01
4.790051e+01	-1.190614e+01
4.817719e+01	-1.195384e+01
4.845545e+01	-1.200002e+01
4.873533e+01	-1.204757e+01
4.901682e+01	-1.209369e+01
4.929994e+01	-1.214147e+01
4.958470e+01	-1.218849e+01
4.987110e+01	-1.223588e+01
5.015915e+01	-1.228157e+01
5.044887e+01	-1.232945e+01
5.074026e+01	-1.237636e+01
5.103333e+01	-1.242313e+01
5.132810e+01	-1.247032e+01
5.162457e+01	-1.251785e+01
5.192275e+01	-1.256555e+01
5.222265e+01	-1.261228e+01
5.252429e+01	-1.265938e+01
5.282767e+01	-1.270684e+01
5.313280e+01	-1.275384e+01
5.343969e+01	-1.280188e+01
5.374836e+01	-1.284945e+01
5.405880e+01	-1.289715e+01
5.437105e+01	-1.294394e+01
5.468509e+01	-1.299173e+01
5.500095e+01	-1.303804e+01
5.531863e+01	-1.308669e+01
5.563815e+01	-1.313403e+01
5.595951e+01	-1.318178e+01
5.628273e+01	-1.322941e+01
5.660782e+01	-1.327672e+01
5.693479e+01	-1.332566e+01
5.726364e+01	-1.337284e+01
5.759439e+01	-1.342027e+01
5.792705e+01	-1.346705e+01
5.826164e+01	-1.351537e+01
5.859815e+01	-1.356330e+01
5.893662e+01	-1.361137e+01
5.927703e+01	-1.365953e+01
5.961941e+01	-1.370763e+01
5.996377e+01	-1.375466e+01
6.031012e+01	-1.380334e+01
6.065847e+01	-1.385099e+01
6.100883e+01	-1.389867e+01
6.136121e+01	-1.394798e+01
6.171563e+01	-1.399504e+01
6.207210e+01	-1.404376e+01
6.243063e+01	-1.409133e+01
6.279122e+01	-1.413966e+01
6.315390e+01	-1.418729e+01
6.351868e+01	-1.423529e+01
6.388556e+01	-1.428345e+01
6.425456e+01	-1.433191e+01
6.462569e+01	-1.437978e+01
6.499897e+01	-1.442740e+01
6.537440e+01	-1.447620e+01
6.575200e+01	-1.452484e+01
6.613178e+01	-1.457354e+01
6.651375e+01	-1.462171e+01
6.689793e+01	-1.466963e+01
6.728433e+01	-1.471832e+01
6.767297e+01	-1.476548e+01
6.806384e+01	-1.481455e+01
6.845698e+01	-1.486312e+01
6.885238e+01	-1.491119e+01
6.925007e+01	-1.495899e+01
6.965005e+01	-1.500788e+01
7.005235e+01	-1.505737e+01
7.045697e+01	-1.510637e+01
7.086393e+01	-1.515423e+01
7.127323e+01	-1.520161e+01
7.168490e+01	-1.525064e+01
7.209895e+01	-1.529922e+01
7.251539e+01	-1.534741e+01
7.293424e+01	-1.539623e+01
7.335551e+01	-1.544505e+01
7.377920e+01	-1.549383e+01
7.420535e+01	-1.554271e+01
7.463396e+01	-1.559104e+01
7.506504e+01	-1.564029e+01
7.549861e+01	-1.568786e+01
7.593469e+01	-1.573695e+01
7.637328e+01	-1.578585e+01
7.681441e+01	-1.583398e+01
7.725809e+01	-1.588209e+01
7.770433e+01	-1.593288e+01
7.815315e+01	-1.598061e+01
7.860456e+01	-1.603035e+01
7.905857e+01	-1.607755e+01
7.951521e+01	-1.612806e+01
7.997449e+01	-1.617730e+01
8.043642e+01	-1.622537e+01
8.090102e+01	-1.627420e+01
8.136830e+01	-1.632245e+01
8.183828e+01	-1.637203e+01
8.231097e+01	-1.641955e+01
8.278640e+01	-1.646780e+01
8.326457e+01	-1.651721e+01
8.374550e+01	-1.656674e+01
8.422921e+01	-1.661518e+01
8.471572e+01	-1.666357e+01
8.520503e+01	-1.671370e+01
8.569717e+01	-1.676334e+01
8.619215e+01	-1.681198e+01
8.669000e+01	-1.686014e+01
8.719071e+01	-1.691007e+01
8.769432e+01	-1.695788e+01
8.820084e+01	-1.700615e+01
8.871029e+01	-1.705717e+01
8.922267e+01	-1.710516e+01
8.973802e+01	-1.715511e+01
9.025634e+01	-1.720385e+01
9.077766e+01	-1.725259e+01
9.130199e+01	-1.730236e+01
9.182935e+01	-1.735063e+01
9.235975e+01	-1.740033e+01
9.289321e+01	-1.744955e+01
9.342976e+01	-1.749819e+01
9.396941e+01	-1.754815e+01
9.451217e+01	-1.759731e+01
9.505807e+01	-1.764731e+01
9.560712e+01	-1.769539e+01
9.615934e+01	-1.774511e+01
9.671476e+01	-1.779404e+01
9.727338e+01	-1.784283e+01
9.783522e+01	-1.789109e+01
9.840032e+01	-1.794012e+01
9.896867e+01	-1.798991e+01
9.954031e+01	-1.803862e+01
1.001153e+02	-1.809002e+01
1.006935e+02	-1.813714e+01
1.012751e+02	-1.818744e+01
1.018601e+02	-1.823702e+01
1.024484e+02	-1.828604e+01
1.030402e+02	-1.833522e+01
1.036353e+02	-1.838495e+01
1.042339e+02	-1.843471e+01
1.048360e+02	-1.848306e+01
1.054415e+02	-1.853398e+01
1.060505e+02	-1.858099e+01
1.066631e+02	-1.863139e+01
1.072791e+02	-1.868029e+01
1.078988e+02	-1.873131e+01
1.085220e+02	-1.877835e+01
1.091488e+02	-1.882655e+01
1.097793e+02	-1.887829e+01
1.104133e+02	-1.892800e+01
1.110511e+02	-1.897575e+01
1.116925e+02	-1.902655e+01
1.123376e+02	-1.907769e+01
1.129865e+02	-1.912532e+01
1.136391e+02	-1.917438e+01
1.142955e+02	-1.922481e+01
1.149556e+02	-1.927281e+01
1.156196e+02	-1.932316e+01
1.162874e+02	-1.937277e+01
1.169591e+02	-1.942182e+01
1.176347e+02	-1.946963e+01
1.183141e+02	-1.952187e+01
1.189975e+02	-1.957069e+01
1.196848e+02	-1.962016e+01
1.203761e+02	-1.966965e+01
1.210714e+02	-1.971769e+01
1.217707e+02	-1.976877e+01
1.224740e+02	-1.981988e+01
1.231814e+02	-1.986629e+01
1.238929e+02	-1.991723e+01
1.246085e+02	-1.996627e+01
1.253283e+02	-2.001571e+01
1.260522e+02	-2.006552e+01
1.267802e+02	-2.011461e+01
1.275125e+02	-2.016410e+01
1.282490e+02	-2.021399e+01
1.289898e+02	-2.026422e+01
1.297348e+02	-2.031336e+01
1.304842e+02	-2.036099e+01
1.312378e+02	-2.041233e+01
1.319959e+02	-2.046379e+01
1.327583e+02	-2.051094e+01
1.335251e+02	-2.056205e+01
1.342963e+02	-2.061037e+01
1.350720e+02	-2.066017e+01
1.358522e+02	-2.070963e+01
1.366368e+02	-2.076018e+01
1.374260e+02	-2.080952e+01
1.382198e+02	-2.085809e+01
1.390182e+02	-2.090945e+01
1.398211e+02	-2.095794e+01
1.406287e+02	-2.100696e+01
1.414410e+02	-2.105618e+01
1.422579e+02	-2.110686e+01
1.430796e+02	-2.115646e+01
1.439060e+02	-2.120441e+01
1.447372e+02	-2.125759e+01
1.455732e+02	-2.130561e+01
1.464141e+02	-2.135578e+01
1.472597e+02	-2.140522e+01
1.481103e+02	-2.145545e+01
1.489658e+02	-2.150512e+01
1.498262e+02	-2.155258e+01
1.506916e+02	-2.160571e+01
1.515620e+02	-2.165450e+01
1.524374e+02	-2.170219e+01
1.533179e+02	-2.175311e+01
1.542034e+02	-2.180299e+01
1.550941e+02	-2.185260e+01
1.559899e+02	-2.190182e+01
1.568909e+02	-2.195213e+01
1.577971e+02	-2.199865e+01
1.587085e+02	-2.204978e+01
1.596252e+02	-2.210240e+01
1.605472e+02	-2.215261e+01
1.614745e+02	-2.219979e+01
1.624072e+02	-2.224940e+01
1.633453e+02	-2.230030e+01
1.642887e+02	-2.235289e+01
1.652377e+02	-2.239868e+01
1.661921e+02	-2.245064e+01
1.671520e+02	-2.249853e+01
1.681175e+02	-2.254803e+01
1.690885e+02	-2.259937e+01
1.700651e+02	-2.264901e+01
1.710474e+02	-2.269626e+01
1.720354e+02	-2.274794e+01
1.730291e+02	-2.279707e+01
1.740285e+02	-2.284794e+01
1.750337e+02	-2.289724e+01
1.760446e+02	-2.294472e+01
1.770615e+02	-2.299762e+01
1.780842e+02	-2.304704e+01
1.791128e+02	-2.309582e+01
1.801473e+02	-2.314531e+01
1.811878e+02	-2.319584e+01
1.822344e+02	-2.324730e+01
1.832870e+02	-2.329336e+01
1.843456e+02	-2.334513e+01
1.854104e+02	-2.339641e+01
1.864813e+02	-2.344519e+01
1.875584e+02	-2.349586e+01
1.886418e+02	-2.354413e+01
1.897313e+02	-2.359522e+01
1.908272e+02	-2.364587e+01
1.919294e+02	-2.369495e+01
1.930380e+02	-2.374475e+01
1.941530e+02	-2.379417e+01
1.952744e+02	-2.384241e+01
1.964023e+02	-2.389572e+01
1.975367e+02	-2.394485e+01
1.986777e+02	-2.399395e+01
1.998252e+02	-2.404391e+01
2.009794e+02	-2.409232e+01
2.021403e+02	-2.414523e+01
2.033078e+02	-2.419315e+01
2.044821e+02	-2.424341e+01
2.056632e+02	-2.429285e+01
2.068511e+02	-2.434551e+01
2.080459e+02	-2.439552e+01
2.092475e+02	-2.443997e+01
2.104561e+02	-2.448841e+01
2.116717e+02	-2.454541e+01
2.128943e+02	-2.458954e+01
2.141240e+02	-2.464286e+01
2.153608e+02	-2.469274e+01
2.166047e+02	-2.474111e+01
2.178558e+02	-2.479016e+01
2.191141e+02	-2.484334e+01
2.203797e+02	-2.488993e+01
2.216526e+02	-2.493977e+01
2.229329e+02	-2.499257e+01
2.242205e+02	-2.504023e+01
2.255156e+02	-2.509271e+01
2.268182e+02	-2.514071e+01
2.281283e+02	-2.519306e+01
2.294459e+02	-2.523985e+01
2.307712e+02	-2.528685e+01
2.321041e+02	-2.533756e+01
2.334447e+02	-2.538883e+01
2.347931e+02	-2.543923e+01
2.361493e+02	-2.549039e+01
2.375133e+02	-2.554161e+01
2.388851e+02	-2.558813e+01
2.402649e+02	-2.563887e+01
2.416527e+02	-2.569094e+01
2.430484e+02	-2.574093e+01
2.444523e+02	-2.578936e+01
2.458642e+02	-2.583892e+01
2.472843e+02	-2.589217e+01
2.487126e+02	-2.593881e+01
2.501492e+02	-2.599180e+01
2.515940e+02	-2.604337e+01
2.530472e+02	-2.608927e+01
2.545088e+02	-2.613966e+01
2.559789e+02	-2.618997e+01
2.574574e+02	-2.623921e+01
2.589444e+02	-2.628706e+01
2.604401e+02	-2.633725e+01
2.619444e+02	-2.639057e+01
2.634574e+02	-2.644032e+01
2.649791e+02	-2.648748e+01
2.665096e+02	-2.653982e+01
2.680489e+02	-2.659159e+01
2.695972e+02	-2.663934e+01
2.711544e+02	-2.668997e+01
2.727205e+02	-2.673585e+01
2.742958e+02	-2.678934e+01
2.758801e+02	-2.683993e+01
2.774736e+02	-2.688966e+01
2.790762e+02	-2.693985e+01
2.806882e+02	-2.698673e+01
2.823094e+02	-2.703763e+01
2.839400e+02	-2.708832e+01
2.855800e+02	-2.713910e+01
2.872295e+02	-2.718672e+01
2.888886e+02	-2.724269e+01
2.905572e+02	-2.729131e+01
2.922354e+02	-2.734084e+01
2.939234e+02	-2.739142e+01
2.956211e+02	-2.743840e+01
2.973286e+02	-2.748712e+01
2.990459e+02	-2.754011e+01
3.007732e+02	-2.758716e+01
3.025104e+02	-2.764308e+01
3.042577e+02	-2.768580e+01
3.060151e+02	-2.774051e+01
3.077826e+02	-2.779228e+01
3.095604e+02	-2.783575e+01
3.113484e+02	-2.788922e+01
3.131467e+02	-2.794145e+01
3.149554e+02	-2.798563e+01
3.167746e+02	-2.804103e+01
3.186043e+02	-2.808931e+01
3.204445e+02	-2.814195e+01
3.222954e+02	-2.818979e+01
3.241570e+02	-2.824040e+01
3.260293e+02	-2.828801e+01
3.279124e+02	-2.834168e+01
3.298064e+02	-2.838966e+01
3.317114e+02	-2.844266e+01
3.336273e+02	-2.849040e+01
3.355544e+02	-2.854198e+01
3.374925e+02	-2.859575e+01
3.394418e+02	-2.863938e+01
3.414024e+02	-2.868778e+01
3.433744e+02	-2.874274e+01
3.453577e+02	-2.879033e+01
3.473525e+02	-2.884141e+01
3.493588e+02	-2.888693e+01
3.513766e+02	-2.894123e+01
3.534062e+02	-2.898995e+01
3.554474e+02	-2.904170e+01
3.575005e+02	-2.909075e+01
3.595654e+02	-2.914044e+01
3.616422e+02	-2.919108e+01
3.637311e+02	-2.923806e+01
3.658320e+02	-2.929247e+01
3.679450e+02	-2.934053e+01
3.700702e+02	-2.939201e+01
3.722077e+02	-2.944180e+01
3.743576e+02	-2.949125e+01
3.765199e+02	-2.953987e+01
3.786946e+02	-2.959350e+01
3.808820e+02	-2.964255e+01
3.830819e+02	-2.969200e+01
3.852946e+02	-2.974175e+01
3.875200e+02	-2.979243e+01
3.897583e+02	-2.983916e+01
3.920096e+02	-2.989062e+01
3.942738e+02	-2.994618e+01
3.965511e+02	-2.998992e+01
3.988416e+02	-3.004664e+01
4.011452e+02	-3.008621e+01
4.034622e+02	-3.013911e+01
4.057926e+02	-3.019287e+01
4.081365e+02	-3.024122e+01
4.104938e+02	-3.029366e+01
4.128648e+02	-3.034498e+01
4.152495e+02	-3.039028e+01
4.176480e+02	-3.044902e+01
4.200603e+02	-3.049453e+01
4.224866e+02	-3.054421e+01
4.249268e+02	-3.059167e+01
4.273812e+02	-3.064438e+01
4.298497e+02	-3.069334e+01
4.323325e+02	-3.074596e+01
4.348297e+02	-3.079477e+01
4.373412e+02	-3.084350e+01
4.398673e+02	-3.089282e+01
4.424079e+02	-3.094514e+01
4.449633e+02	-3.099672e+01
4.475334e+02	-3.105036e+01
4.501183e+02	-3.109224e+01
4.527182e+02	-3.114813e+01
4.553330e+02	-3.119048e+01
4.579630e+02	-3.124346e+01
4.606082e+02	-3.129661e+01
4.632687e+02	-3.134427e+01
4.659445e+02	-3.139442e+01
4.686358e+02	-3.144590e+01
4.713426e+02	-3.149476e+01
4.740650e+02	-3.154439e+01
4.768032e+02	-3.159412e+01
4.795572e+02	-3.164335e+01
4.823271e+02	-3.169846e+01
4.851130e+02	-3.174766e+01
4.879150e+02	-3.180040e+01
4.907332e+02	-3.185203e+01
4.935676e+02	-3.189944e+01
4.964185e+02	-3.194855e+01
4.992858e+02	-3.200306e+01
5.021696e+02	-3.204357e+01
5.050701e+02	-3.209864e+01
5.079874e+02	-3.214773e+01
5.109215e+02	-3.220034e+01
5.138726e+02	-3.224718e+01
5.168407e+02	-3.230155e+01
5.198259e+02	-3.235134e+01
5.228284e+02	-3.240125e+01
5.258482e+02	-3.244906e+01
5.288855e+02	-3.250431e+01
5.319403e+02	-3.255229e+01
5.350128e+02	-3.260226e+01
5.381030e+02	-3.265011e+01
5.412111e+02	-3.270149e+01
5.443371e+02	-3.274892e+01
5.474812e+02	-3.280652e+01
5.506434e+02	-3.285021e+01
5.538239e+02	-3.290585e+01
5.570228e+02	-3.295325e+01
5.602401e+02	-3.301237e+01
5.634760e+02	-3.305758e+01
5.667306e+02	-3.309675e+01
5.700040e+02	-3.315545e+01
5.732964e+02	-3.321110e+01
5.766077e+02	-3.325645e+01
5.799382e+02	-3.330282e+01
5.832879e+02	-3.335444e+01
5.866569e+02	-3.340744e+01
5.900454e+02	-3.345839e+01
5.934535e+02	-3.350710e+01
5.968813e+02	-3.356538e+01
6.003288e+02	-3.360424e+01
6.037963e+02	-3.365492e+01
6.072838e+02	-3.371762e+01
6.107914e+02	-3.375848e+01
6.143194e+02	-3.381339e+01
6.178676e+02	-3.385684e+01
6.214364e+02	-3.390872e+01
6.250258e+02	-3.396472e+01
6.286359e+02	-3.401020e+01
6.322669e+02	-3.406113e+01
6.359189e+02	-3.410902e+01
6.395919e+02	-3.416466e+01
6.432862e+02	-3.421903e+01
6.470017e+02	-3.426157e+01
6.507388e+02	-3.431306e+01
6.544974e+02	-3.436749e+01
6.582778e+02	-3.441539e+01
6.620800e+02	-3.447038e+01
6.659041e+02	-3.451423e+01
6.697504e+02	-3.455842e+01
6.736188e+02	-3.460897e+01
6.775096e+02	-3.466467e+01
6.814229e+02	-3.471786e+01
6.853587e+02	-3.476358e+01
6.893173e+02	-3.482070e+01
6.932988e+02	-3.486628e+01
6.973033e+02	-3.491313e+01
7.013309e+02	-3.496589e+01
