Frequency(Hz)	Magnitude(dB)
1.000000e+01	-1.766746e-05
1.005776e+01	-1.787214e-05
1.011585e+01	-1.807920e-05
1.017428e+01	-1.828865e-05
1.023305e+01	-1.850053e-05
1.029215e+01	-1.871486e-05
1.035160e+01	-1.893168e-05
1.041139e+01	-1.915100e-05
1.047153e+01	-1.937287e-05
1.053201e+01	-1.959731e-05
1.059284e+01	-1.982435e-05
1.065403e+01	-2.005402e-05
1.071556e+01	-2.028635e-05
1.077746e+01	-2.052138e-05
1.083971e+01	-2.075912e-05
1.090232e+01	-2.099962e-05
1.096529e+01	-2.124291e-05
1.102862e+01	-2.148901e-05
1.109232e+01	-2.173797e-05
1.115639e+01	-2.198981e-05
1.122083e+01	-2.224456e-05
1.128564e+01	-2.250227e-05
1.135083e+01	-2.276297e-05
1.141639e+01	-2.302668e-05
1.148233e+01	-2.329345e-05
1.154865e+01	-2.356331e-05
1.161536e+01	-2.383630e-05
1.168245e+01	-2.411245e-05
1.174992e+01	-2.439180e-05
1.181779e+01	-2.467438e-05
1.188605e+01	-2.496024e-05
1.195470e+01	-2.524941e-05
1.202375e+01	-2.554193e-05
1.209320e+01	-2.583784e-05
1.216305e+01	-2.613718e-05
1.223330e+01	-2.643999e-05
1.230396e+01	-2.674630e-05
1.237503e+01	-2.705616e-05
1.244651e+01	-2.736961e-05
1.251840e+01	-2.768670e-05
1.259070e+01	-2.800745e-05
1.266343e+01	-2.833193e-05
1.273657e+01	-2.866016e-05
1.281014e+01	-2.899220e-05
1.288413e+01	-2.932808e-05
1.295855e+01	-2.966785e-05
1.303339e+01	-3.001156e-05
1.310867e+01	-3.035925e-05
1.318439e+01	-3.071097e-05
1.326054e+01	-3.106676e-05
1.333713e+01	-3.142668e-05
1.341417e+01	-3.179076e-05
1.349165e+01	-3.215907e-05
1.356958e+01	-3.253164e-05
1.364795e+01	-3.290852e-05
1.372678e+01	-3.328978e-05
1.380607e+01	-3.367545e-05
1.388581e+01	-3.406559e-05
1.396602e+01	-3.446024e-05
1.404668e+01	-3.485947e-05
1.412782e+01	-3.526333e-05
1.420942e+01	-3.567186e-05
1.429149e+01	-3.608513e-05
1.437404e+01	-3.650318e-05
1.445706e+01	-3.692608e-05
1.454057e+01	-3.735388e-05
1.462455e+01	-3.778663e-05
1.470902e+01	-3.822440e-05
1.479398e+01	-3.866724e-05
1.487943e+01	-3.911521e-05
1.496537e+01	-3.956836e-05
1.505181e+01	-4.002677e-05
1.513875e+01	-4.049049e-05
1.522619e+01	-4.095958e-05
1.531414e+01	-4.143411e-05
1.540259e+01	-4.191413e-05
1.549156e+01	-4.239972e-05
1.558103e+01	-4.289093e-05
1.567103e+01	-4.338783e-05
1.576155e+01	-4.389049e-05
1.585258e+01	-4.439897e-05
1.594415e+01	-4.491334e-05
1.603624e+01	-4.543367e-05
1.612886e+01	-4.596003e-05
1.622202e+01	-4.649249e-05
1.631572e+01	-4.703111e-05
1.640996e+01	-4.757598e-05
1.650474e+01	-4.812716e-05
1.660008e+01	-4.868472e-05
1.669596e+01	-4.924874e-05
1.679239e+01	-4.981930e-05
1.688938e+01	-5.039647e-05
1.698694e+01	-5.098032e-05
1.708505e+01	-5.157094e-05
1.718373e+01	-5.216840e-05
1.728299e+01	-5.277278e-05
1.738281e+01	-5.338416e-05
1.748322e+01	-5.400263e-05
1.758420e+01	-5.462826e-05
1.768576e+01	-5.526114e-05
1.778792e+01	-5.590135e-05
1.789066e+01	-5.654898e-05
1.799399e+01	-5.720411e-05
1.809793e+01	-5.786683e-05
1.820246e+01	-5.853723e-05
1.830760e+01	-5.921540e-05
1.841334e+01	-5.990142e-05
1.851969e+01	-6.059539e-05
1.862666e+01	-6.129740e-05
1.873425e+01	-6.200754e-05
1.884246e+01	-6.272591e-05
1.895129e+01	-6.345260e-05
1.906075e+01	-6.418771e-05
1.917085e+01	-6.493134e-05
1.928158e+01	-6.568358e-05
1.939295e+01	-6.644454e-05
1.950496e+01	-6.721431e-05
1.961762e+01	-6.799300e-05
1.973093e+01	-6.878072e-05
1.984490e+01	-6.957755e-05
1.995952e+01	-7.038362e-05
2.007480e+01	-7.119903e-05
2.019076e+01	-7.202388e-05
2.030738e+01	-7.285829e-05
2.042467e+01	-7.370237e-05
2.054264e+01	-7.455622e-05
2.066130e+01	-7.541997e-05
2.078064e+01	-7.629373e-05
2.090066e+01	-7.717760e-05
2.102139e+01	-7.807172e-05
2.114280e+01	-7.897619e-05
2.126492e+01	-7.989115e-05
2.138775e+01	-8.081670e-05
2.151128e+01	-8.175297e-05
2.163553e+01	-8.270010e-05
2.176050e+01	-8.365819e-05
2.188619e+01	-8.462738e-05
2.201260e+01	-8.560781e-05
2.213974e+01	-8.659959e-05
2.226762e+01	-8.760286e-05
2.239624e+01	-8.861775e-05
2.252560e+01	-8.964440e-05
2.265571e+01	-9.068295e-05
2.278656e+01	-9.173352e-05
2.291818e+01	-9.279627e-05
2.305055e+01	-9.387133e-05
2.318369e+01	-9.495884e-05
2.331760e+01	-9.605895e-05
2.345228e+01	-9.717181e-05
2.358774e+01	-9.829756e-05
2.372398e+01	-9.943635e-05
2.386101e+01	-1.005883e-04
2.399883e+01	-1.017537e-04
2.413745e+01	-1.029325e-04
2.427686e+01	-1.041250e-04
2.441709e+01	-1.053313e-04
2.455812e+01	-1.065516e-04
2.469997e+01	-1.077860e-04
2.484263e+01	-1.090347e-04
2.498612e+01	-1.102979e-04
2.513044e+01	-1.115757e-04
2.527559e+01	-1.128683e-04
2.542158e+01	-1.141759e-04
2.556842e+01	-1.154986e-04
2.571610e+01	-1.168367e-04
2.586463e+01	-1.181903e-04
2.601403e+01	-1.195595e-04
2.616428e+01	-1.209446e-04
2.631541e+01	-1.223458e-04
2.646740e+01	-1.237632e-04
2.662028e+01	-1.251970e-04
2.677404e+01	-1.266474e-04
2.692868e+01	-1.281146e-04
2.708422e+01	-1.295989e-04
2.724066e+01	-1.311003e-04
2.739800e+01	-1.326191e-04
2.755625e+01	-1.341555e-04
2.771541e+01	-1.357097e-04
2.787550e+01	-1.372819e-04
2.803650e+01	-1.388723e-04
2.819844e+01	-1.404812e-04
2.836131e+01	-1.421087e-04
2.852513e+01	-1.437550e-04
2.868989e+01	-1.454204e-04
2.885560e+01	-1.471051e-04
2.902227e+01	-1.488094e-04
2.918990e+01	-1.505333e-04
2.935850e+01	-1.522773e-04
2.952807e+01	-1.540414e-04
2.969863e+01	-1.558260e-04
2.987016e+01	-1.576312e-04
3.004269e+01	-1.594574e-04
3.021622e+01	-1.613047e-04
3.039075e+01	-1.631735e-04
3.056628e+01	-1.650638e-04
3.074283e+01	-1.669761e-04
3.092040e+01	-1.689105e-04
3.109900e+01	-1.708674e-04
3.127862e+01	-1.728469e-04
3.145929e+01	-1.748493e-04
3.164099e+01	-1.768750e-04
3.182375e+01	-1.789241e-04
3.200756e+01	-1.809969e-04
3.219244e+01	-1.830938e-04
3.237838e+01	-1.852149e-04
3.256540e+01	-1.873606e-04
3.275349e+01	-1.895312e-04
3.294268e+01	-1.917269e-04
3.313295e+01	-1.939481e-04
3.332433e+01	-1.961950e-04
3.351681e+01	-1.984679e-04
3.371040e+01	-2.007672e-04
3.390511e+01	-2.030930e-04
3.410094e+01	-2.054459e-04
3.429791e+01	-2.078260e-04
3.449601e+01	-2.102336e-04
3.469526e+01	-2.126692e-04
3.489566e+01	-2.151330e-04
3.509721e+01	-2.176253e-04
3.529993e+01	-2.201465e-04
3.550382e+01	-2.226969e-04
3.570889e+01	-2.252768e-04
3.591515e+01	-2.278866e-04
3.612259e+01	-2.305267e-04
3.633123e+01	-2.331973e-04
3.654108e+01	-2.358989e-04
3.675214e+01	-2.386318e-04
3.696442e+01	-2.413963e-04
3.717792e+01	-2.441929e-04
3.739266e+01	-2.470218e-04
3.760864e+01	-2.498836e-04
3.782587e+01	-2.527785e-04
3.804435e+01	-2.557069e-04
3.826409e+01	-2.586692e-04
3.848510e+01	-2.616659e-04
3.870739e+01	-2.646973e-04
3.893096e+01	-2.677638e-04
3.915583e+01	-2.708658e-04
3.938199e+01	-2.740038e-04
3.960946e+01	-2.771781e-04
3.983824e+01	-2.803891e-04
4.006834e+01	-2.836374e-04
4.029978e+01	-2.869233e-04
4.053255e+01	-2.902473e-04
4.076666e+01	-2.936098e-04
4.100213e+01	-2.970112e-04
4.123896e+01	-3.004521e-04
4.147715e+01	-3.039328e-04
4.171672e+01	-3.074538e-04
4.195767e+01	-3.110156e-04
4.220002e+01	-3.146187e-04
4.244377e+01	-3.182635e-04
4.268892e+01	-3.219505e-04
4.293549e+01	-3.256803e-04
4.318348e+01	-3.294532e-04
4.343291e+01	-3.332699e-04
4.368377e+01	-3.371307e-04
4.393609e+01	-3.410363e-04
4.418986e+01	-3.449872e-04
4.444510e+01	-3.489838e-04
4.470182e+01	-3.530267e-04
4.496001e+01	-3.571165e-04
4.521970e+01	-3.612536e-04
4.548089e+01	-3.654386e-04
4.574358e+01	-3.696722e-04
4.600779e+01	-3.739547e-04
4.627353e+01	-3.782869e-04
4.654081e+01	-3.826693e-04
4.680963e+01	-3.871024e-04
4.708000e+01	-3.915869e-04
4.735193e+01	-3.961233e-04
4.762543e+01	-4.007123e-04
4.790051e+01	-4.053545e-04
4.817719e+01	-4.100504e-04
4.845545e+01	-4.148007e-04
4.873533e+01	-4.196060e-04
4.901682e+01	-4.244671e-04
4.929994e+01	-4.293844e-04
4.958470e+01	-4.343587e-04
4.987110e+01	-4.393906e-04
5.015915e+01	-4.444808e-04
5.044887e+01	-4.496300e-04
5.074026e+01	-4.548388e-04
5.103333e+01	-4.601079e-04
5.132810e+01	-4.654381e-04
5.162457e+01	-4.708301e-04
5.192275e+01	-4.762845e-04
5.222265e+01	-4.818020e-04
5.252429e+01	-4.873835e-04
5.282767e+01	-4.930297e-04
5.313280e+01	-4.987412e-04
5.343969e+01	-5.045190e-04
5.374836e+01	-5.103636e-04
5.405880e+01	-5.162760e-04
5.437105e+01	-5.222568e-04
5.468509e+01	-5.283069e-04
5.500095e+01	-5.344271e-04
5.531863e+01	-5.406182e-04
5.563815e+01	-5.468810e-04
5.595951e+01	-5.532164e-04
5.628273e+01	-5.596252e-04
5.660782e+01	-5.661081e-04
5.693479e+01	-5.726662e-04
5.726364e+01	-5.793003e-04
5.759439e+01	-5.860112e-04
5.792705e+01	-5.927998e-04
5.826164e+01	-5.996671e-04
5.859815e+01	-6.066139e-04
5.893662e+01	-6.136412e-04
5.927703e+01	-6.207499e-04
5.961941e+01	-6.279410e-04
5.996377e+01	-6.352153e-04
6.031012e+01	-6.425739e-04
6.065847e+01	-6.500177e-04
6.100883e+01	-6.575478e-04
6.136121e+01	-6.651651e-04
6.171563e+01	-6.728706e-04
6.207210e+01	-6.806654e-04
6.243063e+01	-6.885505e-04
6.279122e+01	-6.965269e-04
6.315390e+01	-7.045957e-04
6.351868e+01	-7.127579e-04
6.388556e+01	-7.210147e-04
6.425456e+01	-7.293672e-04
6.462569e+01	-7.378164e-04
6.499897e+01	-7.463635e-04
6.537440e+01	-7.550095e-04
6.575200e+01	-7.637558e-04
6.613178e+01	-7.726033e-04
6.651375e+01	-7.815533e-04
6.689793e+01	-7.906070e-04
6.728433e+01	-7.997655e-04
6.767297e+01	-8.090302e-04
6.806384e+01	-8.184021e-04
6.845698e+01	-8.278826e-04
6.885238e+01	-8.374730e-04
6.925007e+01	-8.471744e-04
6.965005e+01	-8.569882e-04
7.005235e+01	-8.669156e-04
7.045697e+01	-8.769580e-04
7.086393e+01	-8.871168e-04
7.127323e+01	-8.973932e-04
7.168490e+01	-9.077887e-04
7.209895e+01	-9.183046e-04
7.251539e+01	-9.289422e-04
7.293424e+01	-9.397031e-04
7.335551e+01	-9.505886e-04
7.377920e+01	-9.616003e-04
7.420535e+01	-9.727394e-04
7.463396e+01	-9.840076e-04
7.506504e+01	-9.954063e-04
7.549861e+01	-1.006937e-03
7.593469e+01	-1.018601e-03
7.637328e+01	-1.030401e-03
7.681441e+01	-1.042337e-03
7.725809e+01	-1.054411e-03
7.770433e+01	-1.066625e-03
7.815315e+01	-1.078981e-03
7.860456e+01	-1.091479e-03
7.905857e+01	-1.104123e-03
7.951521e+01	-1.116913e-03
7.997449e+01	-1.129851e-03
8.043642e+01	-1.142939e-03
8.090102e+01	-1.156178e-03
8.136830e+01	-1.169571e-03
8.183828e+01	-1.183119e-03
8.231097e+01	-1.196824e-03
8.278640e+01	-1.210688e-03
8.326457e+01	-1.224712e-03
8.374550e+01	-1.238898e-03
8.422921e+01	-1.253249e-03
8.471572e+01	-1.267766e-03
8.520503e+01	-1.282452e-03
8.569717e+01	-1.297307e-03
8.619215e+01	-1.312334e-03
8.669000e+01	-1.327536e-03
8.719071e+01	-1.342913e-03
8.769432e+01	-1.358469e-03
8.820084e+01	-1.374204e-03
8.871029e+01	-1.390122e-03
8.922267e+01	-1.406225e-03
8.973802e+01	-1.422514e-03
9.025634e+01	-1.438991e-03
9.077766e+01	-1.455659e-03
9.130199e+01	-1.472521e-03
9.182935e+01	-1.489577e-03
9.235975e+01	-1.506832e-03
9.289321e+01	-1.524285e-03
9.342976e+01	-1.541942e-03
9.396941e+01	-1.559802e-03
9.451217e+01	-1.577870e-03
9.505807e+01	-1.596146e-03
9.560712e+01	-1.614635e-03
9.615934e+01	-1.633337e-03
9.671476e+01	-1.652256e-03
9.727338e+01	-1.671394e-03
9.783522e+01	-1.690754e-03
9.840032e+01	-1.710338e-03
9.896867e+01	-1.730149e-03
9.954031e+01	-1.750189e-03
1.001153e+02	-1.770461e-03
1.006935e+02	-1.790968e-03
1.012751e+02	-1.811713e-03
1.018601e+02	-1.832698e-03
1.024484e+02	-1.853925e-03
1.030402e+02	-1.875399e-03
1.036353e+02	-1.897121e-03
1.042339e+02	-1.919095e-03
1.048360e+02	-1.941323e-03
1.054415e+02	-1.963809e-03
1.060505e+02	-1.986555e-03
1.066631e+02	-2.009564e-03
1.072791e+02	-2.032840e-03
1.078988e+02	-2.056386e-03
1.085220e+02	-2.080204e-03
1.091488e+02	-2.104298e-03
1.097793e+02	-2.128671e-03
1.104133e+02	-2.153326e-03
1.110511e+02	-2.178266e-03
1.116925e+02	-2.203496e-03
1.123376e+02	-2.229017e-03
1.129865e+02	-2.254834e-03
1.136391e+02	-2.280950e-03
1.142955e+02	-2.307369e-03
1.149556e+02	-2.334093e-03
1.156196e+02	-2.361127e-03
1.162874e+02	-2.388473e-03
1.169591e+02	-2.416137e-03
1.176347e+02	-2.444120e-03
1.183141e+02	-2.472428e-03
1.189975e+02	-2.501064e-03
1.196848e+02	-2.530031e-03
1.203761e+02	-2.559333e-03
1.210714e+02	-2.588975e-03
1.217707e+02	-2.618960e-03
1.224740e+02	-2.649292e-03
1.231814e+02	-2.679975e-03
1.238929e+02	-2.711014e-03
1.246085e+02	-2.742411e-03
1.253283e+02	-2.774173e-03
1.260522e+02	-2.806302e-03
1.267802e+02	-2.838803e-03
1.275125e+02	-2.871680e-03
1.282490e+02	-2.904938e-03
1.289898e+02	-2.938582e-03
1.297348e+02	-2.972614e-03
1.304842e+02	-3.007041e-03
1.312378e+02	-3.041866e-03
1.319959e+02	-3.077094e-03
1.327583e+02	-3.112730e-03
1.335251e+02	-3.148779e-03
1.342963e+02	-3.185245e-03
1.350720e+02	-3.222133e-03
1.358522e+02	-3.259448e-03
1.366368e+02	-3.297196e-03
1.374260e+02	-3.335380e-03
1.382198e+02	-3.374006e-03
1.390182e+02	-3.413079e-03
1.398211e+02	-3.452605e-03
1.406287e+02	-3.492588e-03
1.414410e+02	-3.533034e-03
1.422579e+02	-3.573949e-03
1.430796e+02	-3.615337e-03
1.439060e+02	-3.657203e-03
1.447372e+02	-3.699555e-03
1.455732e+02	-3.742397e-03
1.464141e+02	-3.785735e-03
1.472597e+02	-3.829574e-03
1.481103e+02	-3.873921e-03
1.489658e+02	-3.918781e-03
1.498262e+02	-3.964160e-03
1.506916e+02	-4.010065e-03
1.515620e+02	-4.056501e-03
1.524374e+02	-4.103474e-03
1.533179e+02	-4.150991e-03
1.542034e+02	-4.199058e-03
1.550941e+02	-4.247681e-03
1.559899e+02	-4.296868e-03
1.568909e+02	-4.346623e-03
1.577971e+02	-4.396954e-03
1.587085e+02	-4.447868e-03
1.596252e+02	-4.499371e-03
1.605472e+02	-4.551470e-03
1.614745e+02	-4.604172e-03
1.624072e+02	-4.657484e-03
1.633453e+02	-4.711412e-03
1.642887e+02	-4.765965e-03
1.652377e+02	-4.821150e-03
1.661921e+02	-4.876972e-03
1.671520e+02	-4.933441e-03
1.681175e+02	-4.990563e-03
1.690885e+02	-5.048347e-03
1.700651e+02	-5.106799e-03
1.710474e+02	-5.165927e-03
1.720354e+02	-5.225740e-03
1.730291e+02	-5.286244e-03
1.740285e+02	-5.347449e-03
1.750337e+02	-5.409362e-03
1.760446e+02	-5.471991e-03
1.770615e+02	-5.535345e-03
1.780842e+02	-5.599432e-03
1.791128e+02	-5.664260e-03
1.801473e+02	-5.729839e-03
1.811878e+02	-5.796176e-03
1.822344e+02	-5.863281e-03
1.832870e+02	-5.931162e-03
1.843456e+02	-5.999828e-03
1.854104e+02	-6.069289e-03
1.864813e+02	-6.139554e-03
1.875584e+02	-6.210631e-03
1.886418e+02	-6.282531e-03
1.897313e+02	-6.355262e-03
1.908272e+02	-6.428835e-03
1.919294e+02	-6.503258e-03
1.930380e+02	-6.578543e-03
1.941530e+02	-6.654699e-03
1.952744e+02	-6.731735e-03
1.964023e+02	-6.809663e-03
1.975367e+02	-6.888492e-03
1.986777e+02	-6.968232e-03
1.998252e+02	-7.048895e-03
2.009794e+02	-7.130491e-03
2.021403e+02	-7.213031e-03
2.033078e+02	-7.296526e-03
2.044821e+02	-7.380986e-03
2.056632e+02	-7.466423e-03
2.068511e+02	-7.552848e-03
2.080459e+02	-7.640272e-03
2.092475e+02	-7.728708e-03
2.104561e+02	-7.818166e-03
2.116717e+02	-7.908659e-03
2.128943e+02	-8.000198e-03
2.141240e+02	-8.092795e-03
2.153608e+02	-8.186464e-03
2.166047e+02	-8.281216e-03
2.178558e+02	-8.377063e-03
2.191141e+02	-8.474018e-03
2.203797e+02	-8.572095e-03
2.216526e+02	-8.671305e-03
2.229329e+02	-8.771663e-03
2.242205e+02	-8.873180e-03
2.255156e+02	-8.975872e-03
2.268182e+02	-9.079751e-03
2.281283e+02	-9.184830e-03
2.294459e+02	-9.291125e-03
2.307712e+02	-9.398648e-03
2.321041e+02	-9.507414e-03
2.334447e+02	-9.617438e-03
2.347931e+02	-9.728733e-03
2.361493e+02	-9.841315e-03
2.375133e+02	-9.955198e-03
2.388851e+02	-1.007040e-02
2.402649e+02	-1.018693e-02
2.416527e+02	-1.030481e-02
2.430484e+02	-1.042405e-02
2.444523e+02	-1.054466e-02
2.458642e+02	-1.066668e-02
2.472843e+02	-1.079010e-02
2.487126e+02	-1.091495e-02
2.501492e+02	-1.104124e-02
2.515940e+02	-1.116899e-02
2.530472e+02	-1.129821e-02
2.545088e+02	-1.142893e-02
2.559789e+02	-1.156116e-02
2.574574e+02	-1.169492e-02
2.589444e+02	-1.183023e-02
2.604401e+02	-1.196709e-02
2.619444e+02	-1.210554e-02
2.634574e+02	-1.224559e-02
2.649791e+02	-1.238725e-02
2.665096e+02	-1.253056e-02
2.680489e+02	-1.267551e-02
2.695972e+02	-1.282214e-02
2.711544e+02	-1.297047e-02
2.727205e+02	-1.312051e-02
2.742958e+02	-1.327228e-02
2.758801e+02	-1.342580e-02
2.774736e+02	-1.358110e-02
2.790762e+02	-1.373819e-02
2.806882e+02	-1.389710e-02
2.823094e+02	-1.405784e-02
2.839400e+02	-1.422043e-02
2.855800e+02	-1.438491e-02
2.872295e+02	-1.455128e-02
2.888886e+02	-1.471957e-02
2.905572e+02	-1.488981e-02
2.922354e+02	-1.506201e-02
2.939234e+02	-1.523620e-02
2.956211e+02	-1.541240e-02
2.973286e+02	-1.559064e-02
2.990459e+02	-1.577093e-02
3.007732e+02	-1.595330e-02
3.025104e+02	-1.613778e-02
3.042577e+02	-1.632439e-02
3.060151e+02	-1.651315e-02
3.077826e+02	-1.670409e-02
3.095604e+02	-1.689723e-02
3.113484e+02	-1.709261e-02
3.131467e+02	-1.729023e-02
3.149554e+02	-1.749014e-02
3.167746e+02	-1.769235e-02
3.186043e+02	-1.789690e-02
3.204445e+02	-1.810381e-02
3.222954e+02	-1.831310e-02
3.241570e+02	-1.852481e-02
3.260293e+02	-1.873896e-02
3.279124e+02	-1.895558e-02
3.298064e+02	-1.917470e-02
3.317114e+02	-1.939634e-02
3.336273e+02	-1.962054e-02
3.355544e+02	-1.984733e-02
3.374925e+02	-2.007673e-02
3.394418e+02	-2.030878e-02
3.414024e+02	-2.054351e-02
3.433744e+02	-2.078094e-02
3.453577e+02	-2.102111e-02
3.473525e+02	-2.126404e-02
3.493588e+02	-2.150978e-02
3.513766e+02	-2.175835e-02
3.534062e+02	-2.200978e-02
3.554474e+02	-2.226412e-02
3.575005e+02	-2.252138e-02
3.595654e+02	-2.278161e-02
3.616422e+02	-2.304484e-02
3.637311e+02	-2.331110e-02
3.658320e+02	-2.358043e-02
3.679450e+02	-2.385286e-02
3.700702e+02	-2.412843e-02
3.722077e+02	-2.440718e-02
3.743576e+02	-2.468914e-02
3.765199e+02	-2.497434e-02
3.786946e+02	-2.526283e-02
3.808820e+02	-2.555464e-02
3.830819e+02	-2.584982e-02
3.852946e+02	-2.614839e-02
3.875200e+02	-2.645040e-02
3.897583e+02	-2.675589e-02
3.920096e+02	-2.706489e-02
3.942738e+02	-2.737745e-02
3.965511e+02	-2.769362e-02
3.988416e+02	-2.801341e-02
4.011452e+02	-2.833690e-02
4.034622e+02	-2.866410e-02
4.057926e+02	-2.899507e-02
4.081365e+02	-2.932985e-02
4.104938e+02	-2.966847e-02
4.128648e+02	-3.001100e-02
4.152495e+02	-3.035747e-02
4.176480e+02	-3.070792e-02
4.200603e+02	-3.106240e-02
4.224866e+02	-3.142096e-02
4.249268e+02	-3.178365e-02
4.273812e+02	-3.215050e-02
4.298497e+02	-3.252157e-02
4.323325e+02	-3.289691e-02
4.348297e+02	-3.327657e-02
4.373412e+02	-3.366059e-02
4.398673e+02	-3.404902e-02
4.424079e+02	-3.444192e-02
4.449633e+02	-3.483933e-02
4.475334e+02	-3.524131e-02
4.501183e+02	-3.564791e-02
4.527182e+02	-3.605918e-02
4.553330e+02	-3.647518e-02
4.579630e+02	-3.689595e-02
4.606082e+02	-3.732156e-02
4.632687e+02	-3.775206e-02
4.659445e+02	-3.818750e-02
4.686358e+02	-3.862794e-02
4.713426e+02	-3.907343e-02
4.740650e+02	-3.952404e-02
4.768032e+02	-3.997983e-02
4.795572e+02	-4.044084e-02
4.823271e+02	-4.090715e-02
4.851130e+02	-4.137880e-02
4.879150e+02	-4.185587e-02
4.907332e+02	-4.233842e-02
4.935676e+02	-4.282649e-02
4.964185e+02	-4.332017e-02
4.992858e+02	-4.381951e-02
5.021696e+02	-4.432457e-02
5.050701e+02	-4.483543e-02
5.079874e+02	-4.535214e-02
5.109215e+02	-4.587477e-02
5.138726e+02	-4.640340e-02
5.168407e+02	-4.693808e-02
5.198259e+02	-4.747890e-02
5.228284e+02	-4.802590e-02
5.258482e+02	-4.857918e-02
5.288855e+02	-4.913879e-02
5.319403e+02	-4.970481e-02
5.350128e+02	-5.027732e-02
5.381030e+02	-5.085638e-02
5.412111e+02	-5.144207e-02
5.443371e+02	-5.203446e-02
5.474812e+02	-5.263363e-02
5.506434e+02	-5.323966e-02
5.538239e+02	-5.385263e-02
5.570228e+02	-5.447261e-02
5.602401e+02	-5.509968e-02
5.634760e+02	-5.573392e-02
5.667306e+02	-5.637541e-02
5.700040e+02	-5.702424e-02
5.732964e+02	-5.768049e-02
5.766077e+02	-5.834424e-02
5.799382e+02	-5.901558e-02
5.832879e+02	-5.969458e-02
5.866569e+02	-6.038135e-02
5.900454e+02	-6.107596e-02
5.934535e+02	-6.177850e-02
5.968813e+02	-6.248907e-02
6.003288e+02	-6.320775e-02
6.037963e+02	-6.393463e-02
6.072838e+02	-6.466981e-02
6.107914e+02	-6.541338e-02
6.143194e+02	-6.616543e-02
6.178676e+02	-6.692607e-02
6.214364e+02	-6.769538e-02
6.250258e+02	-6.847346e-02
6.286359e+02	-6.926042e-02
6.322669e+02	-7.005634e-02
6.359189e+02	-7.086134e-02
6.395919e+02	-7.167551e-02
6.432862e+02	-7.249896e-02
6.470017e+02	-7.333178e-02
6.507388e+02	-7.417410e-02
6.544974e+02	-7.502600e-02
6.582778e+02	-7.588760e-02
6.620800e+02	-7.675901e-02
6.659041e+02	-7.764034e-02
6.697504e+02	-7.853169e-02
6.736188e+02	-7.943318e-02
6.775096e+02	-8.034493e-02
6.814229e+02	-8.126704e-02
6.853587e+02	-8.219963e-02
6.893173e+02	-8.314283e-02
6.932988e+02	-8.409674e-02
6.973033e+02	-8.506148e-02
7.013309e+02	-8.603719e-02
