Frequency(Hz)	Magnitude(dB)
1.000000e+01	-2.166874e+00
1.005776e+01	-2.186724e+00
1.011585e+01	-2.206466e+00
1.017428e+01	-2.226511e+00
1.023305e+01	-2.246615e+00
1.029215e+01	-2.267014e+00
1.035160e+01	-2.287369e+00
1.041139e+01	-2.307924e+00
1.047153e+01	-2.328872e+00
1.053201e+01	-2.349410e+00
1.059284e+01	-2.370318e+00
1.065403e+01	-2.391371e+00
1.071556e+01	-2.412578e+00
1.077746e+01	-2.434295e+00
1.083971e+01	-2.455714e+00
1.090232e+01	-2.477139e+00
1.096529e+01	-2.499070e+00
1.102862e+01	-2.521047e+00
1.109232e+01	-2.543332e+00
1.115639e+01	-2.565482e+00
1.122083e+01	-2.588035e+00
1.128564e+01	-2.610449e+00
1.135083e+01	-2.633123e+00
1.141639e+01	-2.655890e+00
1.148233e+01	-2.678673e+00
1.154865e+01	-2.701955e+00
1.161536e+01	-2.725220e+00
1.168245e+01	-2.748668e+00
1.174992e+01	-2.772093e+00
1.181779e+01	-2.795754e+00
1.188605e+01	-2.819600e+00
1.195470e+01	-2.843796e+00
1.202375e+01	-2.867529e+00
1.209320e+01	-2.891880e+00
1.216305e+01	-2.916153e+00
1.223330e+01	-2.940668e+00
1.230396e+01	-2.965506e+00
1.237503e+01	-2.990478e+00
1.244651e+01	-3.015012e+00
1.251840e+01	-3.040403e+00
1.259070e+01	-3.065684e+00
1.266343e+01	-3.091134e+00
1.273657e+01	-3.116632e+00
1.281014e+01	-3.142248e+00
1.288413e+01	-3.168245e+00
1.295855e+01	-3.193948e+00
1.303339e+01	-3.220108e+00
1.310867e+01	-3.246515e+00
1.318439e+01	-3.272911e+00
1.326054e+01	-3.299459e+00
1.333713e+01	-3.325965e+00
1.341417e+01	-3.352932e+00
1.349165e+01	-3.379910e+00
1.356958e+01	-3.407223e+00
1.364795e+01	-3.434096e+00
1.372678e+01	-3.461454e+00
1.380607e+01	-3.489385e+00
1.388581e+01	-3.516980e+00
1.396602e+01	-3.544871e+00
1.404668e+01	-3.572702e+00
1.412782e+01	-3.600888e+00
1.420942e+01	-3.629352e+00
1.429149e+01	-3.657645e+00
1.437404e+01	-3.686175e+00
1.445706e+01	-3.714876e+00
1.454057e+01	-3.743907e+00
1.462455e+01	-3.772830e+00
1.470902e+01	-3.801705e+00
1.479398e+01	-3.830970e+00
1.487943e+01	-3.860419e+00
1.496537e+01	-3.889868e+00
1.505181e+01	-3.919831e+00
1.513875e+01	-3.949498e+00
1.522619e+01	-3.979388e+00
1.531414e+01	-4.009577e+00
1.540259e+01	-4.039734e+00
1.549156e+01	-4.069989e+00
1.558103e+01	-4.100651e+00
1.567103e+01	-4.131302e+00
1.576155e+01	-4.161995e+00
1.585258e+01	-4.192652e+00
1.594415e+01	-4.223971e+00
1.603624e+01	-4.255053e+00
1.612886e+01	-4.286323e+00
1.622202e+01	-4.317817e+00
1.631572e+01	-4.349134e+00
1.640996e+01	-4.380967e+00
1.650474e+01	-4.412906e+00
1.660008e+01	-4.445090e+00
1.669596e+01	-4.477123e+00
1.679239e+01	-4.509317e+00
1.688938e+01	-4.541881e+00
1.698694e+01	-4.574174e+00
1.708505e+01	-4.606980e+00
1.718373e+01	-4.639623e+00
1.728299e+01	-4.672633e+00
1.738281e+01	-4.705767e+00
1.748322e+01	-4.738688e+00
1.758420e+01	-4.772154e+00
1.768576e+01	-4.805500e+00
1.778792e+01	-4.838683e+00
1.789066e+01	-4.872600e+00
1.799399e+01	-4.906614e+00
1.809793e+01	-4.940212e+00
1.820246e+01	-4.974054e+00
1.830760e+01	-5.008465e+00
1.841334e+01	-5.042870e+00
1.851969e+01	-5.077268e+00
1.862666e+01	-5.111871e+00
1.873425e+01	-5.146288e+00
1.884246e+01	-5.181396e+00
1.895129e+01	-5.216278e+00
1.906075e+01	-5.251365e+00
1.917085e+01	-5.286155e+00
1.928158e+01	-5.321661e+00
1.939295e+01	-5.356783e+00
1.950496e+01	-5.392464e+00
1.961762e+01	-5.428460e+00
1.973093e+01	-5.464138e+00
1.984490e+01	-5.499854e+00
1.995952e+01	-5.535702e+00
2.007480e+01	-5.572291e+00
2.019076e+01	-5.608327e+00
2.030738e+01	-5.644594e+00
2.042467e+01	-5.681219e+00
2.054264e+01	-5.717511e+00
2.066130e+01	-5.754338e+00
2.078064e+01	-5.790921e+00
2.090066e+01	-5.828133e+00
2.102139e+01	-5.864837e+00
2.114280e+01	-5.901790e+00
2.126492e+01	-5.939106e+00
2.138775e+01	-5.976388e+00
2.151128e+01	-6.013982e+00
2.163553e+01	-6.051447e+00
2.176050e+01	-6.089231e+00
2.188619e+01	-6.126962e+00
2.201260e+01	-6.164812e+00
2.213974e+01	-6.202656e+00
2.226762e+01	-6.240857e+00
2.239624e+01	-6.279382e+00
2.252560e+01	-6.317442e+00
2.265571e+01	-6.355863e+00
2.278656e+01	-6.394580e+00
2.291818e+01	-6.432711e+00
2.305055e+01	-6.471490e+00
2.318369e+01	-6.510513e+00
2.331760e+01	-6.549311e+00
2.345228e+01	-6.588349e+00
2.358774e+01	-6.627060e+00
2.372398e+01	-6.666866e+00
2.386101e+01	-6.705762e+00
2.399883e+01	-6.745046e+00
2.413745e+01	-6.784887e+00
2.427686e+01	-6.824085e+00
2.441709e+01	-6.864407e+00
2.455812e+01	-6.903825e+00
2.469997e+01	-6.943644e+00
2.484263e+01	-6.983665e+00
2.498612e+01	-7.023778e+00
2.513044e+01	-7.063608e+00
2.527559e+01	-7.104142e+00
2.542158e+01	-7.144354e+00
2.556842e+01	-7.185088e+00
2.571610e+01	-7.225492e+00
2.586463e+01	-7.265687e+00
2.601403e+01	-7.306302e+00
2.616428e+01	-7.347161e+00
2.631541e+01	-7.387964e+00
2.646740e+01	-7.429092e+00
2.662028e+01	-7.469780e+00
2.677404e+01	-7.511628e+00
2.692868e+01	-7.552530e+00
2.708422e+01	-7.594081e+00
2.724066e+01	-7.634756e+00
2.739800e+01	-7.676424e+00
2.755625e+01	-7.718141e+00
2.771541e+01	-7.759586e+00
2.787550e+01	-7.801100e+00
2.803650e+01	-7.843265e+00
2.819844e+01	-7.885148e+00
2.836131e+01	-7.927030e+00
2.852513e+01	-7.968773e+00
2.868989e+01	-8.010668e+00
2.885560e+01	-8.053050e+00
2.902227e+01	-8.095724e+00
2.918990e+01	-8.137538e+00
2.935850e+01	-8.180412e+00
2.952807e+01	-8.222175e+00
2.969863e+01	-8.265131e+00
2.987016e+01	-8.307663e+00
3.004269e+01	-8.350129e+00
3.021622e+01	-8.392750e+00
3.039075e+01	-8.435702e+00
3.056628e+01	-8.478856e+00
3.074283e+01	-8.521829e+00
3.092040e+01	-8.564874e+00
3.109900e+01	-8.607939e+00
3.127862e+01	-8.650780e+00
3.145929e+01	-8.694096e+00
3.164099e+01	-8.737999e+00
3.182375e+01	-8.781036e+00
3.200756e+01	-8.824042e+00
3.219244e+01	-8.868159e+00
3.237838e+01	-8.911579e+00
3.256540e+01	-8.955033e+00
3.275349e+01	-8.998938e+00
3.294268e+01	-9.042866e+00
3.313295e+01	-9.086111e+00
3.332433e+01	-9.130026e+00
3.351681e+01	-9.173566e+00
3.371040e+01	-9.218461e+00
3.390511e+01	-9.262289e+00
3.410094e+01	-9.306858e+00
3.429791e+01	-9.350522e+00
3.449601e+01	-9.394249e+00
3.469526e+01	-9.439543e+00
3.489566e+01	-9.484006e+00
3.509721e+01	-9.527934e+00
3.529993e+01	-9.572399e+00
3.550382e+01	-9.616989e+00
3.570889e+01	-9.661272e+00
3.591515e+01	-9.706735e+00
3.612259e+01	-9.750983e+00
3.633123e+01	-9.795605e+00
3.654108e+01	-9.840311e+00
3.675214e+01	-9.885629e+00
3.696442e+01	-9.930768e+00
3.717792e+01	-9.975289e+00
3.739266e+01	-1.002035e+01
3.760864e+01	-1.006535e+01
3.782587e+01	-1.011030e+01
3.804435e+01	-1.015552e+01
3.826409e+01	-1.020074e+01
3.848510e+01	-1.024601e+01
3.870739e+01	-1.029183e+01
3.893096e+01	-1.033673e+01
3.915583e+01	-1.038194e+01
3.938199e+01	-1.042785e+01
3.960946e+01	-1.047276e+01
3.983824e+01	-1.051909e+01
4.006834e+01	-1.056409e+01
4.029978e+01	-1.060997e+01
4.053255e+01	-1.065579e+01
4.076666e+01	-1.070165e+01
4.100213e+01	-1.074706e+01
4.123896e+01	-1.079321e+01
4.147715e+01	-1.083896e+01
4.171672e+01	-1.088502e+01
4.195767e+01	-1.093083e+01
4.220002e+01	-1.097703e+01
4.244377e+01	-1.102258e+01
4.268892e+01	-1.106930e+01
4.293549e+01	-1.111531e+01
4.318348e+01	-1.116077e+01
4.343291e+01	-1.120775e+01
4.368377e+01	-1.125414e+01
4.393609e+01	-1.130011e+01
4.418986e+01	-1.134658e+01
4.444510e+01	-1.139354e+01
4.470182e+01	-1.143973e+01
4.496001e+01	-1.148587e+01
4.521970e+01	-1.153249e+01
4.548089e+01	-1.157900e+01
4.574358e+01	-1.162501e+01
4.600779e+01	-1.167192e+01
4.627353e+01	-1.171889e+01
4.654081e+01	-1.176505e+01
4.680963e+01	-1.181164e+01
4.708000e+01	-1.185852e+01
4.735193e+01	-1.190520e+01
4.762543e+01	-1.195206e+01
4.790051e+01	-1.199928e+01
4.817719e+01	-1.204637e+01
4.845545e+01	-1.209239e+01
4.873533e+01	-1.213962e+01
4.901682e+01	-1.218638e+01
4.929994e+01	-1.223346e+01
4.958470e+01	-1.228133e+01
4.987110e+01	-1.232773e+01
5.015915e+01	-1.237449e+01
5.044887e+01	-1.242225e+01
5.074026e+01	-1.246994e+01
5.103333e+01	-1.251691e+01
5.132810e+01	-1.256418e+01
5.162457e+01	-1.261168e+01
5.192275e+01	-1.265858e+01
5.222265e+01	-1.270552e+01
5.252429e+01	-1.275335e+01
5.282767e+01	-1.280069e+01
5.313280e+01	-1.284749e+01
5.343969e+01	-1.289565e+01
5.374836e+01	-1.294265e+01
5.405880e+01	-1.299024e+01
5.437105e+01	-1.303853e+01
5.468509e+01	-1.308543e+01
5.500095e+01	-1.313361e+01
5.531863e+01	-1.318122e+01
5.563815e+01	-1.322815e+01
5.595951e+01	-1.327640e+01
5.628273e+01	-1.332394e+01
5.660782e+01	-1.337163e+01
5.693479e+01	-1.341920e+01
5.726364e+01	-1.346654e+01
5.759439e+01	-1.351429e+01
5.792705e+01	-1.356185e+01
5.826164e+01	-1.361020e+01
5.859815e+01	-1.365824e+01
5.893662e+01	-1.370656e+01
5.927703e+01	-1.375481e+01
5.961941e+01	-1.380140e+01
5.996377e+01	-1.384989e+01
6.031012e+01	-1.389770e+01
6.065847e+01	-1.394584e+01
6.100883e+01	-1.399392e+01
6.136121e+01	-1.404194e+01
6.171563e+01	-1.408994e+01
6.207210e+01	-1.413800e+01
6.243063e+01	-1.418595e+01
6.279122e+01	-1.423360e+01
6.315390e+01	-1.428225e+01
6.351868e+01	-1.433065e+01
6.388556e+01	-1.437825e+01
6.425456e+01	-1.442596e+01
6.462569e+01	-1.447545e+01
6.499897e+01	-1.452307e+01
6.537440e+01	-1.457195e+01
6.575200e+01	-1.461991e+01
6.613178e+01	-1.466891e+01
6.651375e+01	-1.471617e+01
6.689793e+01	-1.476541e+01
6.728433e+01	-1.481311e+01
6.767297e+01	-1.486219e+01
6.806384e+01	-1.491022e+01
6.845698e+01	-1.495787e+01
6.885238e+01	-1.500656e+01
6.925007e+01	-1.505612e+01
6.965005e+01	-1.510404e+01
7.005235e+01	-1.515247e+01
7.045697e+01	-1.520122e+01
7.086393e+01	-1.524915e+01
7.127323e+01	-1.529842e+01
7.168490e+01	-1.534681e+01
7.209895e+01	-1.539598e+01
7.251539e+01	-1.544361e+01
7.293424e+01	-1.549258e+01
7.335551e+01	-1.554136e+01
7.377920e+01	-1.558798e+01
7.420535e+01	-1.563830e+01
7.463396e+01	-1.568668e+01
7.506504e+01	-1.573665e+01
7.549861e+01	-1.578486e+01
7.593469e+01	-1.583349e+01
7.637328e+01	-1.588196e+01
7.681441e+01	-1.593022e+01
7.725809e+01	-1.597968e+01
7.770433e+01	-1.602841e+01
7.815315e+01	-1.607686e+01
7.860456e+01	-1.612562e+01
7.905857e+01	-1.617445e+01
7.951521e+01	-1.622410e+01
7.997449e+01	-1.627197e+01
8.043642e+01	-1.632048e+01
8.090102e+01	-1.636980e+01
8.136830e+01	-1.641766e+01
8.183828e+01	-1.646673e+01
8.231097e+01	-1.651607e+01
8.278640e+01	-1.656684e+01
8.326457e+01	-1.661320e+01
8.374550e+01	-1.666299e+01
8.422921e+01	-1.671287e+01
8.471572e+01	-1.676192e+01
8.520503e+01	-1.680978e+01
8.569717e+01	-1.685843e+01
8.619215e+01	-1.690837e+01
8.669000e+01	-1.695796e+01
8.719071e+01	-1.700611e+01
8.769432e+01	-1.705608e+01
8.820084e+01	-1.710419e+01
8.871029e+01	-1.715402e+01
8.922267e+01	-1.720441e+01
8.973802e+01	-1.725235e+01
9.025634e+01	-1.730108e+01
9.077766e+01	-1.734955e+01
9.130199e+01	-1.739744e+01
9.182935e+01	-1.744901e+01
9.235975e+01	-1.749786e+01
9.289321e+01	-1.754675e+01
9.342976e+01	-1.759535e+01
9.396941e+01	-1.764486e+01
9.451217e+01	-1.769513e+01
9.505807e+01	-1.774392e+01
9.560712e+01	-1.779155e+01
9.615934e+01	-1.784274e+01
9.671476e+01	-1.789057e+01
9.727338e+01	-1.793927e+01
9.783522e+01	-1.798948e+01
9.840032e+01	-1.803786e+01
9.896867e+01	-1.808682e+01
9.954031e+01	-1.813607e+01
1.001153e+02	-1.818568e+01
1.006935e+02	-1.823507e+01
1.012751e+02	-1.828478e+01
1.018601e+02	-1.833467e+01
1.024484e+02	-1.838400e+01
1.030402e+02	-1.843341e+01
1.036353e+02	-1.848192e+01
1.042339e+02	-1.853011e+01
1.048360e+02	-1.858142e+01
1.054415e+02	-1.863001e+01
1.060505e+02	-1.867895e+01
1.066631e+02	-1.872828e+01
1.072791e+02	-1.877856e+01
1.078988e+02	-1.882680e+01
1.085220e+02	-1.887693e+01
1.091488e+02	-1.892764e+01
1.097793e+02	-1.897600e+01
1.104133e+02	-1.902491e+01
1.110511e+02	-1.907265e+01
1.116925e+02	-1.912285e+01
1.123376e+02	-1.917432e+01
1.129865e+02	-1.922317e+01
1.136391e+02	-1.927144e+01
1.142955e+02	-1.932118e+01
1.149556e+02	-1.937203e+01
1.156196e+02	-1.942186e+01
1.162874e+02	-1.947025e+01
1.169591e+02	-1.952022e+01
1.176347e+02	-1.956732e+01
1.183141e+02	-1.961834e+01
1.189975e+02	-1.966800e+01
1.196848e+02	-1.971723e+01
1.203761e+02	-1.976688e+01
1.210714e+02	-1.981684e+01
1.217707e+02	-1.986504e+01
1.224740e+02	-1.991440e+01
1.231814e+02	-1.996318e+01
1.238929e+02	-2.001432e+01
1.246085e+02	-2.006386e+01
1.253283e+02	-2.011327e+01
1.260522e+02	-2.016353e+01
1.267802e+02	-2.021302e+01
1.275125e+02	-2.026059e+01
1.282490e+02	-2.031404e+01
1.289898e+02	-2.036193e+01
1.297348e+02	-2.041040e+01
1.304842e+02	-2.046022e+01
1.312378e+02	-2.051000e+01
1.319959e+02	-2.055842e+01
1.327583e+02	-2.060988e+01
1.335251e+02	-2.065901e+01
1.342963e+02	-2.070893e+01
1.350720e+02	-2.075950e+01
1.358522e+02	-2.080664e+01
1.366368e+02	-2.085672e+01
1.374260e+02	-2.090643e+01
1.382198e+02	-2.095869e+01
1.390182e+02	-2.100610e+01
1.398211e+02	-2.105708e+01
1.406287e+02	-2.110566e+01
1.414410e+02	-2.115638e+01
1.422579e+02	-2.120619e+01
1.430796e+02	-2.125377e+01
1.439060e+02	-2.130426e+01
1.447372e+02	-2.135330e+01
1.455732e+02	-2.140385e+01
1.464141e+02	-2.145487e+01
1.472597e+02	-2.150219e+01
1.481103e+02	-2.155365e+01
1.489658e+02	-2.160355e+01
1.498262e+02	-2.165108e+01
1.506916e+02	-2.170024e+01
1.515620e+02	-2.175176e+01
1.524374e+02	-2.180312e+01
1.533179e+02	-2.185114e+01
1.542034e+02	-2.189994e+01
1.550941e+02	-2.194913e+01
1.559899e+02	-2.200018e+01
1.568909e+02	-2.205014e+01
1.577971e+02	-2.209982e+01
1.587085e+02	-2.214870e+01
1.596252e+02	-2.219858e+01
1.605472e+02	-2.225171e+01
1.614745e+02	-2.229956e+01
1.624072e+02	-2.234797e+01
1.633453e+02	-2.239986e+01
1.642887e+02	-2.244658e+01
1.652377e+02	-2.249766e+01
1.661921e+02	-2.254798e+01
1.671520e+02	-2.259576e+01
1.681175e+02	-2.264616e+01
1.690885e+02	-2.269607e+01
1.700651e+02	-2.274677e+01
1.710474e+02	-2.279532e+01
1.720354e+02	-2.284539e+01
1.730291e+02	-2.289676e+01
1.740285e+02	-2.294542e+01
1.750337e+02	-2.299505e+01
1.760446e+02	-2.304478e+01
1.770615e+02	-2.309605e+01
1.780842e+02	-2.314355e+01
1.791128e+02	-2.319421e+01
1.801473e+02	-2.324373e+01
1.811878e+02	-2.329642e+01
1.822344e+02	-2.334422e+01
1.832870e+02	-2.339541e+01
1.843456e+02	-2.344346e+01
1.854104e+02	-2.349440e+01
1.864813e+02	-2.354343e+01
1.875584e+02	-2.359628e+01
1.886418e+02	-2.364372e+01
1.897313e+02	-2.369167e+01
1.908272e+02	-2.374201e+01
1.919294e+02	-2.379180e+01
1.930380e+02	-2.384243e+01
1.941530e+02	-2.389130e+01
1.952744e+02	-2.394258e+01
1.964023e+02	-2.399199e+01
1.975367e+02	-2.404103e+01
1.986777e+02	-2.409152e+01
1.998252e+02	-2.414099e+01
2.009794e+02	-2.418882e+01
2.021403e+02	-2.424145e+01
2.033078e+02	-2.429153e+01
2.044821e+02	-2.434010e+01
2.056632e+02	-2.439171e+01
2.068511e+02	-2.444247e+01
2.080459e+02	-2.449144e+01
2.092475e+02	-2.454063e+01
2.104561e+02	-2.459187e+01
2.116717e+02	-2.464015e+01
2.128943e+02	-2.469235e+01
2.141240e+02	-2.474226e+01
2.153608e+02	-2.479156e+01
2.166047e+02	-2.483829e+01
2.178558e+02	-2.488809e+01
2.191141e+02	-2.493623e+01
2.203797e+02	-2.498892e+01
2.216526e+02	-2.503862e+01
2.229329e+02	-2.508928e+01
2.242205e+02	-2.514030e+01
2.255156e+02	-2.519195e+01
2.268182e+02	-2.523787e+01
2.281283e+02	-2.528724e+01
2.294459e+02	-2.533742e+01
2.307712e+02	-2.538390e+01
2.321041e+02	-2.544035e+01
2.334447e+02	-2.549065e+01
2.347931e+02	-2.554008e+01
2.361493e+02	-2.558795e+01
2.375133e+02	-2.563859e+01
2.388851e+02	-2.568693e+01
2.402649e+02	-2.573649e+01
2.416527e+02	-2.579287e+01
2.430484e+02	-2.583729e+01
2.444523e+02	-2.588974e+01
2.458642e+02	-2.593668e+01
2.472843e+02	-2.598668e+01
2.487126e+02	-2.603510e+01
2.501492e+02	-2.608481e+01
2.515940e+02	-2.613735e+01
2.530472e+02	-2.618818e+01
2.545088e+02	-2.624003e+01
2.559789e+02	-2.628954e+01
2.574574e+02	-2.634034e+01
2.589444e+02	-2.638670e+01
2.604401e+02	-2.643951e+01
2.619444e+02	-2.649090e+01
2.634574e+02	-2.654038e+01
2.649791e+02	-2.658756e+01
2.665096e+02	-2.663570e+01
2.680489e+02	-2.668817e+01
2.695972e+02	-2.673819e+01
2.711544e+02	-2.678998e+01
2.727205e+02	-2.683873e+01
2.742958e+02	-2.688728e+01
2.758801e+02	-2.693711e+01
2.774736e+02	-2.698709e+01
2.790762e+02	-2.703799e+01
2.806882e+02	-2.708903e+01
2.823094e+02	-2.713912e+01
2.839400e+02	-2.718884e+01
2.855800e+02	-2.724058e+01
2.872295e+02	-2.728713e+01
2.888886e+02	-2.733988e+01
2.905572e+02	-2.738925e+01
2.922354e+02	-2.743548e+01
2.939234e+02	-2.748826e+01
2.956211e+02	-2.753592e+01
2.973286e+02	-2.758605e+01
2.990459e+02	-2.763837e+01
3.007732e+02	-2.768781e+01
3.025104e+02	-2.773941e+01
3.042577e+02	-2.778910e+01
3.060151e+02	-2.783573e+01
3.077826e+02	-2.788824e+01
3.095604e+02	-2.793498e+01
3.113484e+02	-2.798727e+01
3.131467e+02	-2.803688e+01
3.149554e+02	-2.808948e+01
3.167746e+02	-2.813322e+01
3.186043e+02	-2.818576e+01
3.204445e+02	-2.823935e+01
3.222954e+02	-2.828856e+01
3.241570e+02	-2.833814e+01
3.260293e+02	-2.838616e+01
3.279124e+02	-2.843640e+01
3.298064e+02	-2.849292e+01
3.317114e+02	-2.853597e+01
3.336273e+02	-2.858828e+01
3.355544e+02	-2.863503e+01
3.374925e+02	-2.869473e+01
3.394418e+02	-2.873835e+01
3.414024e+02	-2.878682e+01
3.433744e+02	-2.884219e+01
3.453577e+02	-2.888834e+01
3.473525e+02	-2.893720e+01
3.493588e+02	-2.898592e+01
3.513766e+02	-2.903728e+01
3.534062e+02	-2.908814e+01
3.554474e+02	-2.913946e+01
3.575005e+02	-2.919069e+01
3.595654e+02	-2.924055e+01
3.616422e+02	-2.929153e+01
3.637311e+02	-2.934597e+01
3.658320e+02	-2.939197e+01
3.679450e+02	-2.943741e+01
3.700702e+02	-2.948958e+01
3.722077e+02	-2.953526e+01
3.743576e+02	-2.958483e+01
3.765199e+02	-2.964158e+01
3.786946e+02	-2.969229e+01
3.808820e+02	-2.974114e+01
3.830819e+02	-2.978857e+01
3.852946e+02	-2.984138e+01
3.875200e+02	-2.989241e+01
3.897583e+02	-2.993646e+01
3.920096e+02	-2.999187e+01
3.942738e+02	-3.004021e+01
3.965511e+02	-3.009150e+01
3.988416e+02	-3.014239e+01
4.011452e+02	-3.019553e+01
4.034622e+02	-3.024056e+01
4.057926e+02	-3.028924e+01
4.081365e+02	-3.033955e+01
4.104938e+02	-3.039500e+01
4.128648e+02	-3.043906e+01
4.152495e+02	-3.049222e+01
4.176480e+02	-3.054136e+01
4.200603e+02	-3.059079e+01
4.224866e+02	-3.063559e+01
4.249268e+02	-3.068637e+01
4.273812e+02	-3.074312e+01
4.298497e+02	-3.078692e+01
4.323325e+02	-3.084659e+01
4.348297e+02	-3.089470e+01
4.373412e+02	-3.094102e+01
4.398673e+02	-3.099239e+01
4.424079e+02	-3.103996e+01
4.449633e+02	-3.109418e+01
4.475334e+02	-3.114685e+01
4.501183e+02	-3.119581e+01
4.527182e+02	-3.124944e+01
4.553330e+02	-3.129055e+01
4.579630e+02	-3.134852e+01
4.606082e+02	-3.139266e+01
4.632687e+02	-3.144266e+01
4.659445e+02	-3.149630e+01
4.686358e+02	-3.154538e+01
4.713426e+02	-3.159127e+01
4.740650e+02	-3.164370e+01
4.768032e+02	-3.169724e+01
4.795572e+02	-3.175211e+01
4.823271e+02	-3.179702e+01
4.851130e+02	-3.183572e+01
4.879150e+02	-3.189208e+01
4.907332e+02	-3.194951e+01
4.935676e+02	-3.200170e+01
4.964185e+02	-3.204813e+01
4.992858e+02	-3.210093e+01
5.021696e+02	-3.215608e+01
5.050701e+02	-3.219424e+01
5.079874e+02	-3.224683e+01
5.109215e+02	-3.230159e+01
5.138726e+02	-3.234422e+01
5.168407e+02	-3.240539e+01
5.198259e+02	-3.244794e+01
5.228284e+02	-3.249856e+01
5.258482e+02	-3.255533e+01
5.288855e+02	-3.260092e+01
5.319403e+02	-3.265034e+01
5.350128e+02	-3.270166e+01
5.381030e+02	-3.273836e+01
5.412111e+02	-3.280046e+01
5.443371e+02	-3.284653e+01
5.474812e+02	-3.290711e+01
5.506434e+02	-3.294144e+01
5.538239e+02	-3.299754e+01
5.570228e+02	-3.304980e+01
5.602401e+02	-3.309674e+01
5.634760e+02	-3.314708e+01
5.667306e+02	-3.320014e+01
5.700040e+02	-3.325278e+01
5.732964e+02	-3.330399e+01
5.766077e+02	-3.334963e+01
5.799382e+02	-3.341482e+01
5.832879e+02	-3.345051e+01
5.866569e+02	-3.350172e+01
5.900454e+02	-3.355174e+01
5.934535e+02	-3.360939e+01
5.968813e+02	-3.366092e+01
6.003288e+02	-3.371565e+01
6.037963e+02	-3.375891e+01
6.072838e+02	-3.380785e+01
6.107914e+02	-3.385833e+01
6.143194e+02	-3.390800e+01
6.178676e+02	-3.395333e+01
6.214364e+02	-3.400104e+01
6.250258e+02	-3.405679e+01
6.286359e+02	-3.410645e+01
6.322669e+02	-3.415929e+01
6.359189e+02	-3.421433e+01
6.395919e+02	-3.426103e+01
6.432862e+02	-3.430870e+01
6.470017e+02	-3.435682e+01
6.507388e+02	-3.440430e+01
6.544974e+02	-3.446512e+01
6.582778e+02	-3.451558e+01
6.620800e+02	-3.456464e+01
6.659041e+02	-3.461020e+01
6.697504e+02	-3.466062e+01
6.736188e+02	-3.471270e+01
6.775096e+02	-3.476918e+01
6.814229e+02	-3.481894e+01
6.853587e+02	-3.485860e+01
6.893173e+02	-3.492524e+01
6.932988e+02	-3.496979e+01
6.973033e+02	-3.501364e+01
7.013309e+02	-3.506292e+01
