Frequency(Hz)	Magnitude(dB)
1.000000e+01	-1.512007e-05
1.005776e+01	-1.529524e-05
1.011585e+01	-1.547244e-05
1.017428e+01	-1.565169e-05
1.023305e+01	-1.583302e-05
1.029215e+01	-1.601645e-05
1.035160e+01	-1.620200e-05
1.041139e+01	-1.638971e-05
1.047153e+01	-1.657958e-05
1.053201e+01	-1.677166e-05
1.059284e+01	-1.696597e-05
1.065403e+01	-1.716252e-05
1.071556e+01	-1.736136e-05
1.077746e+01	-1.756249e-05
1.083971e+01	-1.776596e-05
1.090232e+01	-1.797178e-05
1.096529e+01	-1.817999e-05
1.102862e+01	-1.839061e-05
1.109232e+01	-1.860367e-05
1.115639e+01	-1.881920e-05
1.122083e+01	-1.903722e-05
1.128564e+01	-1.925777e-05
1.135083e+01	-1.948088e-05
1.141639e+01	-1.970657e-05
1.148233e+01	-1.993487e-05
1.154865e+01	-2.016583e-05
1.161536e+01	-2.039945e-05
1.168245e+01	-2.063578e-05
1.174992e+01	-2.087485e-05
1.181779e+01	-2.111670e-05
1.188605e+01	-2.136134e-05
1.195470e+01	-2.160881e-05
1.202375e+01	-2.185916e-05
1.209320e+01	-2.211240e-05
1.216305e+01	-2.236858e-05
1.223330e+01	-2.262772e-05
1.230396e+01	-2.288987e-05
1.237503e+01	-2.315506e-05
1.244651e+01	-2.342331e-05
1.251840e+01	-2.369468e-05
1.259070e+01	-2.396919e-05
1.266343e+01	-2.424688e-05
1.273657e+01	-2.452778e-05
1.281014e+01	-2.481194e-05
1.288413e+01	-2.509940e-05
1.295855e+01	-2.539018e-05
1.303339e+01	-2.568433e-05
1.310867e+01	-2.598189e-05
1.318439e+01	-2.628290e-05
1.326054e+01	-2.658739e-05
1.333713e+01	-2.689541e-05
1.341417e+01	-2.720700e-05
1.349165e+01	-2.752220e-05
1.356958e+01	-2.784105e-05
1.364795e+01	-2.816360e-05
1.372678e+01	-2.848988e-05
1.380607e+01	-2.881994e-05
1.388581e+01	-2.915383e-05
1.396602e+01	-2.949158e-05
1.404668e+01	-2.983325e-05
1.412782e+01	-3.017887e-05
1.420942e+01	-3.052850e-05
1.429149e+01	-3.088218e-05
1.437404e+01	-3.123996e-05
1.445706e+01	-3.160188e-05
1.454057e+01	-3.196800e-05
1.462455e+01	-3.233836e-05
1.470902e+01	-3.271300e-05
1.479398e+01	-3.309199e-05
1.487943e+01	-3.347537e-05
1.496537e+01	-3.386319e-05
1.505181e+01	-3.425550e-05
1.513875e+01	-3.465236e-05
1.522619e+01	-3.505382e-05
1.531414e+01	-3.545992e-05
1.540259e+01	-3.587073e-05
1.549156e+01	-3.628631e-05
1.558103e+01	-3.670669e-05
1.567103e+01	-3.713195e-05
1.576155e+01	-3.756213e-05
1.585258e+01	-3.799729e-05
1.594415e+01	-3.843750e-05
1.603624e+01	-3.888281e-05
1.612886e+01	-3.933327e-05
1.622202e+01	-3.978896e-05
1.631572e+01	-4.024992e-05
1.640996e+01	-4.071623e-05
1.650474e+01	-4.118793e-05
1.660008e+01	-4.166511e-05
1.669596e+01	-4.214781e-05
1.679239e+01	-4.263610e-05
1.688938e+01	-4.313005e-05
1.698694e+01	-4.362972e-05
1.708505e+01	-4.413518e-05
1.718373e+01	-4.464649e-05
1.728299e+01	-4.516373e-05
1.738281e+01	-4.568696e-05
1.748322e+01	-4.621626e-05
1.758420e+01	-4.675168e-05
1.768576e+01	-4.729331e-05
1.778792e+01	-4.784121e-05
1.789066e+01	-4.839547e-05
1.799399e+01	-4.895614e-05
1.809793e+01	-4.952330e-05
1.820246e+01	-5.009704e-05
1.830760e+01	-5.067743e-05
1.841334e+01	-5.126454e-05
1.851969e+01	-5.185845e-05
1.862666e+01	-5.245924e-05
1.873425e+01	-5.306699e-05
1.884246e+01	-5.368178e-05
1.895129e+01	-5.430370e-05
1.906075e+01	-5.493282e-05
1.917085e+01	-5.556922e-05
1.928158e+01	-5.621300e-05
1.939295e+01	-5.686424e-05
1.950496e+01	-5.752303e-05
1.961762e+01	-5.818944e-05
1.973093e+01	-5.886358e-05
1.984490e+01	-5.954553e-05
1.995952e+01	-6.023537e-05
2.007480e+01	-6.093321e-05
2.019076e+01	-6.163913e-05
2.030738e+01	-6.235324e-05
2.042467e+01	-6.307561e-05
2.054264e+01	-6.380635e-05
2.066130e+01	-6.454556e-05
2.078064e+01	-6.529334e-05
2.090066e+01	-6.604977e-05
2.102139e+01	-6.681497e-05
2.114280e+01	-6.758903e-05
2.126492e+01	-6.837207e-05
2.138775e+01	-6.916417e-05
2.151128e+01	-6.996545e-05
2.163553e+01	-7.077601e-05
2.176050e+01	-7.159596e-05
2.188619e+01	-7.242542e-05
2.201260e+01	-7.326448e-05
2.213974e+01	-7.411326e-05
2.226762e+01	-7.497188e-05
2.239624e+01	-7.584044e-05
2.252560e+01	-7.671906e-05
2.265571e+01	-7.760787e-05
2.278656e+01	-7.850697e-05
2.291818e+01	-7.941649e-05
2.305055e+01	-8.033654e-05
2.318369e+01	-8.126725e-05
2.331760e+01	-8.220875e-05
2.345228e+01	-8.316115e-05
2.358774e+01	-8.412458e-05
2.372398e+01	-8.509918e-05
2.386101e+01	-8.608507e-05
2.399883e+01	-8.708238e-05
2.413745e+01	-8.809124e-05
2.427686e+01	-8.911179e-05
2.441709e+01	-9.014417e-05
2.455812e+01	-9.118850e-05
2.469997e+01	-9.224494e-05
2.484263e+01	-9.331361e-05
2.498612e+01	-9.439466e-05
2.513044e+01	-9.548824e-05
2.527559e+01	-9.659448e-05
2.542158e+01	-9.771354e-05
2.556842e+01	-9.884557e-05
2.571610e+01	-9.999071e-05
2.586463e+01	-1.011491e-04
2.601403e+01	-1.023209e-04
2.616428e+01	-1.035063e-04
2.631541e+01	-1.047055e-04
2.646740e+01	-1.059185e-04
2.662028e+01	-1.071456e-04
2.677404e+01	-1.083869e-04
2.692868e+01	-1.096426e-04
2.708422e+01	-1.109128e-04
2.724066e+01	-1.121977e-04
2.739800e+01	-1.134976e-04
2.755625e+01	-1.148124e-04
2.771541e+01	-1.161426e-04
2.787550e+01	-1.174881e-04
2.803650e+01	-1.188492e-04
2.819844e+01	-1.202261e-04
2.836131e+01	-1.216189e-04
2.852513e+01	-1.230279e-04
2.868989e+01	-1.244532e-04
2.885560e+01	-1.258950e-04
2.902227e+01	-1.273535e-04
2.918990e+01	-1.288289e-04
2.935850e+01	-1.303214e-04
2.952807e+01	-1.318312e-04
2.969863e+01	-1.333584e-04
2.987016e+01	-1.349034e-04
3.004269e+01	-1.364663e-04
3.021622e+01	-1.380473e-04
3.039075e+01	-1.396465e-04
3.056628e+01	-1.412644e-04
3.074283e+01	-1.429009e-04
3.092040e+01	-1.445564e-04
3.109900e+01	-1.462311e-04
3.127862e+01	-1.479252e-04
3.145929e+01	-1.496390e-04
3.164099e+01	-1.513725e-04
3.182375e+01	-1.531262e-04
3.200756e+01	-1.549002e-04
3.219244e+01	-1.566947e-04
3.237838e+01	-1.585100e-04
3.256540e+01	-1.603464e-04
3.275349e+01	-1.622040e-04
3.294268e+01	-1.640831e-04
3.313295e+01	-1.659841e-04
3.332433e+01	-1.679070e-04
3.351681e+01	-1.698522e-04
3.371040e+01	-1.718200e-04
3.390511e+01	-1.738105e-04
3.410094e+01	-1.758241e-04
3.429791e+01	-1.778610e-04
3.449601e+01	-1.799216e-04
3.469526e+01	-1.820060e-04
3.489566e+01	-1.841145e-04
3.509721e+01	-1.862475e-04
3.529993e+01	-1.884052e-04
3.550382e+01	-1.905878e-04
3.570889e+01	-1.927958e-04
3.591515e+01	-1.950293e-04
3.612259e+01	-1.972888e-04
3.633123e+01	-1.995743e-04
3.654108e+01	-2.018864e-04
3.675214e+01	-2.042253e-04
3.696442e+01	-2.065912e-04
3.717792e+01	-2.089846e-04
3.739266e+01	-2.114057e-04
3.760864e+01	-2.138548e-04
3.782587e+01	-2.163323e-04
3.804435e+01	-2.188385e-04
3.826409e+01	-2.213738e-04
3.848510e+01	-2.239384e-04
3.870739e+01	-2.265327e-04
3.893096e+01	-2.291571e-04
3.915583e+01	-2.318118e-04
3.938199e+01	-2.344974e-04
3.960946e+01	-2.372140e-04
3.983824e+01	-2.399621e-04
4.006834e+01	-2.427421e-04
4.029978e+01	-2.455542e-04
4.053255e+01	-2.483990e-04
4.076666e+01	-2.512767e-04
4.100213e+01	-2.541877e-04
4.123896e+01	-2.571324e-04
4.147715e+01	-2.601113e-04
4.171672e+01	-2.631247e-04
4.195767e+01	-2.661729e-04
4.220002e+01	-2.692565e-04
4.244377e+01	-2.723758e-04
4.268892e+01	-2.755313e-04
4.293549e+01	-2.787233e-04
4.318348e+01	-2.819523e-04
4.343291e+01	-2.852187e-04
4.368377e+01	-2.885229e-04
4.393609e+01	-2.918654e-04
4.418986e+01	-2.952466e-04
4.444510e+01	-2.986670e-04
4.470182e+01	-3.021270e-04
4.496001e+01	-3.056271e-04
4.521970e+01	-3.091678e-04
4.548089e+01	-3.127495e-04
4.574358e+01	-3.163726e-04
4.600779e+01	-3.200377e-04
4.627353e+01	-3.237453e-04
4.654081e+01	-3.274959e-04
4.680963e+01	-3.312899e-04
4.708000e+01	-3.351278e-04
4.735193e+01	-3.390102e-04
4.762543e+01	-3.429376e-04
4.790051e+01	-3.469104e-04
4.817719e+01	-3.509293e-04
4.845545e+01	-3.549948e-04
4.873533e+01	-3.591073e-04
4.901682e+01	-3.632675e-04
4.929994e+01	-3.674759e-04
4.958470e+01	-3.717330e-04
4.987110e+01	-3.760394e-04
5.015915e+01	-3.803958e-04
5.044887e+01	-3.848026e-04
5.074026e+01	-3.892604e-04
5.103333e+01	-3.937699e-04
5.132810e+01	-3.983316e-04
5.162457e+01	-4.029462e-04
5.192275e+01	-4.076142e-04
5.222265e+01	-4.123363e-04
5.252429e+01	-4.171131e-04
5.282767e+01	-4.219453e-04
5.313280e+01	-4.268334e-04
5.343969e+01	-4.317781e-04
5.374836e+01	-4.367801e-04
5.405880e+01	-4.418401e-04
5.437105e+01	-4.469587e-04
5.468509e+01	-4.521365e-04
5.500095e+01	-4.573744e-04
5.531863e+01	-4.626729e-04
5.563815e+01	-4.680328e-04
5.595951e+01	-4.734548e-04
5.628273e+01	-4.789396e-04
5.660782e+01	-4.844879e-04
5.693479e+01	-4.901006e-04
5.726364e+01	-4.957782e-04
5.759439e+01	-5.015216e-04
5.792705e+01	-5.073315e-04
5.826164e+01	-5.132087e-04
5.859815e+01	-5.191540e-04
5.893662e+01	-5.251682e-04
5.927703e+01	-5.312521e-04
5.961941e+01	-5.374064e-04
5.996377e+01	-5.436320e-04
6.031012e+01	-5.499297e-04
6.065847e+01	-5.563004e-04
6.100883e+01	-5.627449e-04
6.136121e+01	-5.692640e-04
6.171563e+01	-5.758587e-04
6.207210e+01	-5.825297e-04
6.243063e+01	-5.892780e-04
6.279122e+01	-5.961045e-04
6.315390e+01	-6.030100e-04
6.351868e+01	-6.099956e-04
6.388556e+01	-6.170620e-04
6.425456e+01	-6.242104e-04
6.462569e+01	-6.314415e-04
6.499897e+01	-6.387564e-04
6.537440e+01	-6.461560e-04
6.575200e+01	-6.536413e-04
6.613178e+01	-6.612134e-04
6.651375e+01	-6.688731e-04
6.689793e+01	-6.766216e-04
6.728433e+01	-6.844598e-04
6.767297e+01	-6.923888e-04
6.806384e+01	-7.004097e-04
6.845698e+01	-7.085235e-04
6.885238e+01	-7.167312e-04
6.925007e+01	-7.250341e-04
6.965005e+01	-7.334331e-04
7.005235e+01	-7.419294e-04
7.045697e+01	-7.505241e-04
7.086393e+01	-7.592184e-04
7.127323e+01	-7.680133e-04
7.168490e+01	-7.769102e-04
7.209895e+01	-7.859101e-04
7.251539e+01	-7.950142e-04
7.293424e+01	-8.042238e-04
7.335551e+01	-8.135401e-04
7.377920e+01	-8.229643e-04
7.420535e+01	-8.324977e-04
7.463396e+01	-8.421414e-04
7.506504e+01	-8.518969e-04
7.549861e+01	-8.617654e-04
7.593469e+01	-8.717482e-04
7.637328e+01	-8.818466e-04
7.681441e+01	-8.920620e-04
7.725809e+01	-9.023957e-04
7.770433e+01	-9.128491e-04
7.815315e+01	-9.234236e-04
7.860456e+01	-9.341205e-04
7.905857e+01	-9.449414e-04
7.951521e+01	-9.558876e-04
7.997449e+01	-9.669606e-04
8.043642e+01	-9.781618e-04
8.090102e+01	-9.894928e-04
8.136830e+01	-1.000955e-03
8.183828e+01	-1.012550e-03
8.231097e+01	-1.024279e-03
8.278640e+01	-1.036144e-03
8.326457e+01	-1.048147e-03
8.374550e+01	-1.060289e-03
8.422921e+01	-1.072571e-03
8.471572e+01	-1.084995e-03
8.520503e+01	-1.097564e-03
8.569717e+01	-1.110278e-03
8.619215e+01	-1.123139e-03
8.669000e+01	-1.136149e-03
8.719071e+01	-1.149310e-03
8.769432e+01	-1.162623e-03
8.820084e+01	-1.176091e-03
8.871029e+01	-1.189714e-03
8.922267e+01	-1.203495e-03
8.973802e+01	-1.217436e-03
9.025634e+01	-1.231538e-03
9.077766e+01	-1.245804e-03
9.130199e+01	-1.260235e-03
9.182935e+01	-1.274833e-03
9.235975e+01	-1.289600e-03
9.289321e+01	-1.304538e-03
9.342976e+01	-1.319649e-03
9.396941e+01	-1.334936e-03
9.451217e+01	-1.350399e-03
9.505807e+01	-1.366041e-03
9.560712e+01	-1.381864e-03
9.615934e+01	-1.397871e-03
9.671476e+01	-1.414063e-03
9.727338e+01	-1.430443e-03
9.783522e+01	-1.447012e-03
9.840032e+01	-1.463773e-03
9.896867e+01	-1.480729e-03
9.954031e+01	-1.497880e-03
1.001153e+02	-1.515231e-03
1.006935e+02	-1.532782e-03
1.012751e+02	-1.550536e-03
1.018601e+02	-1.568497e-03
1.024484e+02	-1.586665e-03
1.030402e+02	-1.605043e-03
1.036353e+02	-1.623635e-03
1.042339e+02	-1.642441e-03
1.048360e+02	-1.661466e-03
1.054415e+02	-1.680711e-03
1.060505e+02	-1.700178e-03
1.066631e+02	-1.719871e-03
1.072791e+02	-1.739792e-03
1.078988e+02	-1.759944e-03
1.085220e+02	-1.780330e-03
1.091488e+02	-1.800951e-03
1.097793e+02	-1.821811e-03
1.104133e+02	-1.842913e-03
1.110511e+02	-1.864259e-03
1.116925e+02	-1.885852e-03
1.123376e+02	-1.907695e-03
1.129865e+02	-1.929792e-03
1.136391e+02	-1.952144e-03
1.142955e+02	-1.974755e-03
1.149556e+02	-1.997627e-03
1.156196e+02	-2.020765e-03
1.162874e+02	-2.044171e-03
1.169591e+02	-2.067847e-03
1.176347e+02	-2.091798e-03
1.183141e+02	-2.116026e-03
1.189975e+02	-2.140535e-03
1.196848e+02	-2.165327e-03
1.203761e+02	-2.190407e-03
1.210714e+02	-2.215777e-03
1.217707e+02	-2.241441e-03
1.224740e+02	-2.267401e-03
1.231814e+02	-2.293663e-03
1.238929e+02	-2.320229e-03
1.246085e+02	-2.347102e-03
1.253283e+02	-2.374286e-03
1.260522e+02	-2.401785e-03
1.267802e+02	-2.429603e-03
1.275125e+02	-2.457742e-03
1.282490e+02	-2.486208e-03
1.289898e+02	-2.515003e-03
1.297348e+02	-2.544131e-03
1.304842e+02	-2.573597e-03
1.312378e+02	-2.603404e-03
1.319959e+02	-2.633556e-03
1.327583e+02	-2.664057e-03
1.335251e+02	-2.694911e-03
1.342963e+02	-2.726122e-03
1.350720e+02	-2.757695e-03
1.358522e+02	-2.789634e-03
1.366368e+02	-2.821942e-03
1.374260e+02	-2.854624e-03
1.382198e+02	-2.887684e-03
1.390182e+02	-2.921128e-03
1.398211e+02	-2.954958e-03
1.406287e+02	-2.989180e-03
1.414410e+02	-3.023799e-03
1.422579e+02	-3.058818e-03
1.430796e+02	-3.094243e-03
1.439060e+02	-3.130077e-03
1.447372e+02	-3.166327e-03
1.455732e+02	-3.202996e-03
1.464141e+02	-3.240090e-03
1.472597e+02	-3.277613e-03
1.481103e+02	-3.315570e-03
1.489658e+02	-3.353967e-03
1.498262e+02	-3.392808e-03
1.506916e+02	-3.432099e-03
1.515620e+02	-3.471845e-03
1.524374e+02	-3.512051e-03
1.533179e+02	-3.552723e-03
1.542034e+02	-3.593865e-03
1.550941e+02	-3.635483e-03
1.559899e+02	-3.677583e-03
1.568909e+02	-3.720171e-03
1.577971e+02	-3.763251e-03
1.587085e+02	-3.806830e-03
1.596252e+02	-3.850914e-03
1.605472e+02	-3.895508e-03
1.614745e+02	-3.940618e-03
1.624072e+02	-3.986250e-03
1.633453e+02	-4.032410e-03
1.642887e+02	-4.079104e-03
1.652377e+02	-4.126339e-03
1.661921e+02	-4.174121e-03
1.671520e+02	-4.222456e-03
1.681175e+02	-4.271350e-03
1.690885e+02	-4.320810e-03
1.700651e+02	-4.370842e-03
1.710474e+02	-4.421454e-03
1.720354e+02	-4.472651e-03
1.730291e+02	-4.524441e-03
1.740285e+02	-4.576830e-03
1.750337e+02	-4.629825e-03
1.760446e+02	-4.683434e-03
1.770615e+02	-4.737663e-03
1.780842e+02	-4.792520e-03
1.791128e+02	-4.848012e-03
1.801473e+02	-4.904145e-03
1.811878e+02	-4.960928e-03
1.822344e+02	-5.018369e-03
1.832870e+02	-5.076474e-03
1.843456e+02	-5.135251e-03
1.854104e+02	-5.194709e-03
1.864813e+02	-5.254854e-03
1.875584e+02	-5.315696e-03
1.886418e+02	-5.377241e-03
1.897313e+02	-5.439499e-03
1.908272e+02	-5.502477e-03
1.919294e+02	-5.566183e-03
1.930380e+02	-5.630627e-03
1.941530e+02	-5.695817e-03
1.952744e+02	-5.761760e-03
1.964023e+02	-5.828467e-03
1.975367e+02	-5.895945e-03
1.986777e+02	-5.964204e-03
1.998252e+02	-6.033253e-03
2.009794e+02	-6.103100e-03
2.021403e+02	-6.173756e-03
2.033078e+02	-6.245229e-03
2.044821e+02	-6.317529e-03
2.056632e+02	-6.390665e-03
2.068511e+02	-6.464647e-03
2.080459e+02	-6.539485e-03
2.092475e+02	-6.615189e-03
2.104561e+02	-6.691768e-03
2.116717e+02	-6.769233e-03
2.128943e+02	-6.847595e-03
2.141240e+02	-6.926862e-03
2.153608e+02	-7.007047e-03
2.166047e+02	-7.088159e-03
2.178558e+02	-7.170209e-03
2.191141e+02	-7.253208e-03
2.203797e+02	-7.337167e-03
2.216526e+02	-7.422097e-03
2.229329e+02	-7.508009e-03
2.242205e+02	-7.594915e-03
2.255156e+02	-7.682826e-03
2.268182e+02	-7.771754e-03
2.281283e+02	-7.861710e-03
2.294459e+02	-7.952706e-03
2.307712e+02	-8.044755e-03
2.321041e+02	-8.137868e-03
2.334447e+02	-8.232057e-03
2.347931e+02	-8.327336e-03
2.361493e+02	-8.423716e-03
2.375133e+02	-8.521211e-03
2.388851e+02	-8.619833e-03
2.402649e+02	-8.719596e-03
2.416527e+02	-8.820511e-03
2.430484e+02	-8.922594e-03
2.444523e+02	-9.025857e-03
2.458642e+02	-9.130313e-03
2.472843e+02	-9.235977e-03
2.487126e+02	-9.342863e-03
2.501492e+02	-9.450984e-03
2.515940e+02	-9.560355e-03
2.530472e+02	-9.670991e-03
2.545088e+02	-9.782905e-03
2.559789e+02	-9.896113e-03
2.574574e+02	-1.001063e-02
2.589444e+02	-1.012647e-02
2.604401e+02	-1.024365e-02
2.619444e+02	-1.036218e-02
2.634574e+02	-1.048208e-02
2.649791e+02	-1.060337e-02
2.665096e+02	-1.072606e-02
2.680489e+02	-1.085017e-02
2.695972e+02	-1.097571e-02
2.711544e+02	-1.110271e-02
2.727205e+02	-1.123117e-02
2.742958e+02	-1.136111e-02
2.758801e+02	-1.149256e-02
2.774736e+02	-1.162553e-02
2.790762e+02	-1.176003e-02
2.806882e+02	-1.189608e-02
2.823094e+02	-1.203371e-02
2.839400e+02	-1.217293e-02
2.855800e+02	-1.231375e-02
2.872295e+02	-1.245621e-02
2.888886e+02	-1.260030e-02
2.905572e+02	-1.274607e-02
2.922354e+02	-1.289351e-02
2.939234e+02	-1.304266e-02
2.956211e+02	-1.319354e-02
2.973286e+02	-1.334615e-02
2.990459e+02	-1.350053e-02
3.007732e+02	-1.365669e-02
3.025104e+02	-1.381465e-02
3.042577e+02	-1.397444e-02
3.060151e+02	-1.413607e-02
3.077826e+02	-1.429957e-02
3.095604e+02	-1.446496e-02
3.113484e+02	-1.463225e-02
3.131467e+02	-1.480148e-02
3.149554e+02	-1.497267e-02
3.167746e+02	-1.514582e-02
3.186043e+02	-1.532098e-02
3.204445e+02	-1.549816e-02
3.222954e+02	-1.567739e-02
3.241570e+02	-1.585868e-02
3.260293e+02	-1.604207e-02
3.279124e+02	-1.622757e-02
3.298064e+02	-1.641521e-02
3.317114e+02	-1.660502e-02
3.336273e+02	-1.679702e-02
3.355544e+02	-1.699124e-02
3.374925e+02	-1.718769e-02
3.394418e+02	-1.738642e-02
3.414024e+02	-1.758743e-02
3.433744e+02	-1.779077e-02
3.453577e+02	-1.799645e-02
3.473525e+02	-1.820451e-02
3.493588e+02	-1.841496e-02
3.513766e+02	-1.862784e-02
3.534062e+02	-1.884318e-02
3.554474e+02	-1.906100e-02
3.575005e+02	-1.928134e-02
3.595654e+02	-1.950421e-02
3.616422e+02	-1.972966e-02
3.637311e+02	-1.995771e-02
3.658320e+02	-2.018838e-02
3.679450e+02	-2.042172e-02
3.700702e+02	-2.065774e-02
3.722077e+02	-2.089649e-02
3.743576e+02	-2.113799e-02
3.765199e+02	-2.138227e-02
3.786946e+02	-2.162937e-02
3.808820e+02	-2.187932e-02
3.830819e+02	-2.213215e-02
3.852946e+02	-2.238790e-02
3.875200e+02	-2.264659e-02
3.897583e+02	-2.290826e-02
3.920096e+02	-2.317295e-02
3.942738e+02	-2.344068e-02
3.965511e+02	-2.371150e-02
3.988416e+02	-2.398545e-02
4.011452e+02	-2.426255e-02
4.034622e+02	-2.454284e-02
4.057926e+02	-2.482636e-02
4.081365e+02	-2.511314e-02
4.104938e+02	-2.540323e-02
4.128648e+02	-2.569666e-02
4.152495e+02	-2.599347e-02
4.176480e+02	-2.629369e-02
4.200603e+02	-2.659737e-02
4.224866e+02	-2.690455e-02
4.249268e+02	-2.721527e-02
4.273812e+02	-2.752956e-02
4.298497e+02	-2.784747e-02
4.323325e+02	-2.816904e-02
4.348297e+02	-2.849432e-02
4.373412e+02	-2.882333e-02
4.398673e+02	-2.915613e-02
4.424079e+02	-2.949276e-02
4.449633e+02	-2.983326e-02
4.475334e+02	-3.017769e-02
4.501183e+02	-3.052607e-02
4.527182e+02	-3.087846e-02
4.553330e+02	-3.123490e-02
4.579630e+02	-3.159545e-02
4.606082e+02	-3.196014e-02
4.632687e+02	-3.232902e-02
4.659445e+02	-3.270215e-02
4.686358e+02	-3.307956e-02
4.713426e+02	-3.346132e-02
4.740650e+02	-3.384746e-02
4.768032e+02	-3.423804e-02
4.795572e+02	-3.463311e-02
4.823271e+02	-3.503272e-02
4.851130e+02	-3.543692e-02
4.879150e+02	-3.584577e-02
4.907332e+02	-3.625931e-02
4.935676e+02	-3.667760e-02
4.964185e+02	-3.710070e-02
4.992858e+02	-3.752866e-02
5.021696e+02	-3.796153e-02
5.050701e+02	-3.839938e-02
5.079874e+02	-3.884225e-02
5.109215e+02	-3.929021e-02
5.138726e+02	-3.974330e-02
5.168407e+02	-4.020160e-02
5.198259e+02	-4.066516e-02
5.228284e+02	-4.113404e-02
5.258482e+02	-4.160830e-02
5.288855e+02	-4.208800e-02
5.319403e+02	-4.257321e-02
5.350128e+02	-4.306398e-02
5.381030e+02	-4.356037e-02
5.412111e+02	-4.406247e-02
5.443371e+02	-4.457031e-02
5.474812e+02	-4.508399e-02
5.506434e+02	-4.560355e-02
5.538239e+02	-4.612906e-02
5.570228e+02	-4.666060e-02
5.602401e+02	-4.719823e-02
5.634760e+02	-4.774202e-02
5.667306e+02	-4.829204e-02
5.700040e+02	-4.884837e-02
5.732964e+02	-4.941106e-02
5.766077e+02	-4.998020e-02
5.799382e+02	-5.055586e-02
5.832879e+02	-5.113810e-02
5.866569e+02	-5.172702e-02
5.900454e+02	-5.232267e-02
5.934535e+02	-5.292514e-02
5.968813e+02	-5.353450e-02
6.003288e+02	-5.415084e-02
6.037963e+02	-5.477423e-02
6.072838e+02	-5.540475e-02
6.107914e+02	-5.604248e-02
6.143194e+02	-5.668750e-02
6.178676e+02	-5.733989e-02
6.214364e+02	-5.799975e-02
6.250258e+02	-5.866715e-02
6.286359e+02	-5.934217e-02
6.322669e+02	-6.002490e-02
6.359189e+02	-6.071544e-02
6.395919e+02	-6.141386e-02
6.432862e+02	-6.212026e-02
6.470017e+02	-6.283473e-02
6.507388e+02	-6.355735e-02
6.544974e+02	-6.428823e-02
6.582778e+02	-6.502744e-02
6.620800e+02	-6.577509e-02
6.659041e+02	-6.653127e-02
6.697504e+02	-6.729607e-02
6.736188e+02	-6.806960e-02
6.775096e+02	-6.885194e-02
6.814229e+02	-6.964321e-02
6.853587e+02	-7.044350e-02
6.893173e+02	-7.125290e-02
6.932988e+02	-7.207153e-02
6.973033e+02	-7.289949e-02
7.013309e+02	-7.373687e-02
