Frequency(Hz)	Magnitude(dB)
1.000000e+01	-2.058797e+00
1.005776e+01	-2.077558e+00
1.011585e+01	-2.096696e+00
1.017428e+01	-2.115772e+00
1.023305e+01	-2.135259e+00
1.029215e+01	-2.154690e+00
1.035160e+01	-2.174348e+00
1.041139e+01	-2.194066e+00
1.047153e+01	-2.213908e+00
1.053201e+01	-2.233981e+00
1.059284e+01	-2.254281e+00
1.065403e+01	-2.274523e+00
1.071556e+01	-2.295035e+00
1.077746e+01	-2.315746e+00
1.083971e+01	-2.336299e+00
1.090232e+01	-2.357195e+00
1.096529e+01	-2.378248e+00
1.102862e+01	-2.399498e+00
1.109232e+01	-2.420741e+00
1.115639e+01	-2.442227e+00
1.122083e+01	-2.463599e+00
1.128564e+01	-2.485529e+00
1.135083e+01	-2.507292e+00
1.141639e+01	-2.529441e+00
1.148233e+01	-2.551588e+00
1.154865e+01	-2.573787e+00
1.161536e+01	-2.596332e+00
1.168245e+01	-2.618759e+00
1.174992e+01	-2.641671e+00
1.181779e+01	-2.664508e+00
1.188605e+01	-2.687454e+00
1.195470e+01	-2.710409e+00
1.202375e+01	-2.734011e+00
1.209320e+01	-2.757391e+00
1.216305e+01	-2.781183e+00
1.223330e+01	-2.804785e+00
1.230396e+01	-2.828589e+00
1.237503e+01	-2.852275e+00
1.244651e+01	-2.876717e+00
1.251840e+01	-2.900901e+00
1.259070e+01	-2.925491e+00
1.266343e+01	-2.950064e+00
1.273657e+01	-2.974691e+00
1.281014e+01	-2.999857e+00
1.288413e+01	-3.024913e+00
1.295855e+01	-3.049818e+00
1.303339e+01	-3.075095e+00
1.310867e+01	-3.100648e+00
1.318439e+01	-3.126378e+00
1.326054e+01	-3.151981e+00
1.333713e+01	-3.177936e+00
1.341417e+01	-3.203937e+00
1.349165e+01	-3.230142e+00
1.356958e+01	-3.256664e+00
1.364795e+01	-3.282788e+00
1.372678e+01	-3.309354e+00
1.380607e+01	-3.336257e+00
1.388581e+01	-3.363158e+00
1.396602e+01	-3.389963e+00
1.404668e+01	-3.417219e+00
1.412782e+01	-3.444660e+00
1.420942e+01	-3.471846e+00
1.429149e+01	-3.499638e+00
1.437404e+01	-3.527557e+00
1.445706e+01	-3.555259e+00
1.454057e+01	-3.583523e+00
1.462455e+01	-3.611404e+00
1.470902e+01	-3.639758e+00
1.479398e+01	-3.668431e+00
1.487943e+01	-3.696956e+00
1.496537e+01	-3.725943e+00
1.505181e+01	-3.754553e+00
1.513875e+01	-3.783302e+00
1.522619e+01	-3.812931e+00
1.531414e+01	-3.841939e+00
1.540259e+01	-3.871305e+00
1.549156e+01	-3.901140e+00
1.558103e+01	-3.930902e+00
1.567103e+01	-3.960868e+00
1.576155e+01	-3.990359e+00
1.585258e+01	-4.020787e+00
1.594415e+01	-4.051546e+00
1.603624e+01	-4.081753e+00
1.612886e+01	-4.111896e+00
1.622202e+01	-4.142665e+00
1.631572e+01	-4.173666e+00
1.640996e+01	-4.204528e+00
1.650474e+01	-4.235858e+00
1.660008e+01	-4.267048e+00
1.669596e+01	-4.298290e+00
1.679239e+01	-4.329603e+00
1.688938e+01	-4.361427e+00
1.698694e+01	-4.393119e+00
1.708505e+01	-4.425098e+00
1.718373e+01	-4.456960e+00
1.728299e+01	-4.489032e+00
1.738281e+01	-4.521522e+00
1.748322e+01	-4.553700e+00
1.758420e+01	-4.586463e+00
1.768576e+01	-4.619208e+00
1.778792e+01	-4.652011e+00
1.789066e+01	-4.685143e+00
1.799399e+01	-4.718031e+00
1.809793e+01	-4.751434e+00
1.820246e+01	-4.784617e+00
1.830760e+01	-4.817943e+00
1.841334e+01	-4.851502e+00
1.851969e+01	-4.885520e+00
1.862666e+01	-4.919021e+00
1.873425e+01	-4.952863e+00
1.884246e+01	-4.987136e+00
1.895129e+01	-5.021251e+00
1.906075e+01	-5.055805e+00
1.917085e+01	-5.090321e+00
1.928158e+01	-5.125018e+00
1.939295e+01	-5.159509e+00
1.950496e+01	-5.194356e+00
1.961762e+01	-5.229626e+00
1.973093e+01	-5.264347e+00
1.984490e+01	-5.299844e+00
1.995952e+01	-5.334748e+00
2.007480e+01	-5.370528e+00
2.019076e+01	-5.405960e+00
2.030738e+01	-5.441763e+00
2.042467e+01	-5.477635e+00
2.054264e+01	-5.513542e+00
2.066130e+01	-5.549171e+00
2.078064e+01	-5.585644e+00
2.090066e+01	-5.621544e+00
2.102139e+01	-5.658132e+00
2.114280e+01	-5.694640e+00
2.126492e+01	-5.731077e+00
2.138775e+01	-5.768000e+00
2.151128e+01	-5.805027e+00
2.163553e+01	-5.841738e+00
2.176050e+01	-5.878919e+00
2.188619e+01	-5.915917e+00
2.201260e+01	-5.953244e+00
2.213974e+01	-5.990594e+00
2.226762e+01	-6.028140e+00
2.239624e+01	-6.065658e+00
2.252560e+01	-6.103281e+00
2.265571e+01	-6.141132e+00
2.278656e+01	-6.179155e+00
2.291818e+01	-6.217221e+00
2.305055e+01	-6.255415e+00
2.318369e+01	-6.293605e+00
2.331760e+01	-6.331710e+00
2.345228e+01	-6.370409e+00
2.358774e+01	-6.408799e+00
2.372398e+01	-6.447790e+00
2.386101e+01	-6.486016e+00
2.399883e+01	-6.525064e+00
2.413745e+01	-6.563929e+00
2.427686e+01	-6.602721e+00
2.441709e+01	-6.642008e+00
2.455812e+01	-6.681109e+00
2.469997e+01	-6.720906e+00
2.484263e+01	-6.759936e+00
2.498612e+01	-6.799953e+00
2.513044e+01	-6.839101e+00
2.527559e+01	-6.878678e+00
2.542158e+01	-6.918469e+00
2.556842e+01	-6.958734e+00
2.571610e+01	-6.998452e+00
2.586463e+01	-7.038974e+00
2.601403e+01	-7.078943e+00
2.616428e+01	-7.119151e+00
2.631541e+01	-7.159472e+00
2.646740e+01	-7.200074e+00
2.662028e+01	-7.240644e+00
2.677404e+01	-7.281157e+00
2.692868e+01	-7.322076e+00
2.708422e+01	-7.362761e+00
2.724066e+01	-7.403237e+00
2.739800e+01	-7.444774e+00
2.755625e+01	-7.485596e+00
2.771541e+01	-7.527088e+00
2.787550e+01	-7.568243e+00
2.803650e+01	-7.608951e+00
2.819844e+01	-7.650722e+00
2.836131e+01	-7.692199e+00
2.852513e+01	-7.733629e+00
2.868989e+01	-7.775238e+00
2.885560e+01	-7.817442e+00
2.902227e+01	-7.858671e+00
2.918990e+01	-7.900915e+00
2.935850e+01	-7.942865e+00
2.952807e+01	-7.984553e+00
2.969863e+01	-8.026873e+00
2.987016e+01	-8.069225e+00
3.004269e+01	-8.111615e+00
3.021622e+01	-8.153568e+00
3.039075e+01	-8.196083e+00
3.056628e+01	-8.238493e+00
3.074283e+01	-8.280706e+00
3.092040e+01	-8.323868e+00
3.109900e+01	-8.366408e+00
3.127862e+01	-8.409295e+00
3.145929e+01	-8.451878e+00
3.164099e+01	-8.494852e+00
3.182375e+01	-8.537700e+00
3.200756e+01	-8.580504e+00
3.219244e+01	-8.623843e+00
3.237838e+01	-8.667293e+00
3.256540e+01	-8.710344e+00
3.275349e+01	-8.754122e+00
3.294268e+01	-8.797463e+00
3.313295e+01	-8.840537e+00
3.332433e+01	-8.884014e+00
3.351681e+01	-8.927814e+00
3.371040e+01	-8.971355e+00
3.390511e+01	-9.015609e+00
3.410094e+01	-9.059042e+00
3.429791e+01	-9.102860e+00
3.449601e+01	-9.146908e+00
3.469526e+01	-9.191023e+00
3.489566e+01	-9.234777e+00
3.509721e+01	-9.279478e+00
3.529993e+01	-9.322951e+00
3.550382e+01	-9.367596e+00
3.570889e+01	-9.411697e+00
3.591515e+01	-9.455852e+00
3.612259e+01	-9.500383e+00
3.633123e+01	-9.544125e+00
3.654108e+01	-9.588907e+00
3.675214e+01	-9.633690e+00
3.696442e+01	-9.678488e+00
3.717792e+01	-9.722950e+00
3.739266e+01	-9.767597e+00
3.760864e+01	-9.812280e+00
3.782587e+01	-9.857527e+00
3.804435e+01	-9.902563e+00
3.826409e+01	-9.947057e+00
3.848510e+01	-9.992086e+00
3.870739e+01	-1.003670e+01
3.893096e+01	-1.008201e+01
3.915583e+01	-1.012713e+01
3.938199e+01	-1.017285e+01
3.960946e+01	-1.021778e+01
3.983824e+01	-1.026316e+01
4.006834e+01	-1.030787e+01
4.029978e+01	-1.035354e+01
4.053255e+01	-1.039925e+01
4.076666e+01	-1.044501e+01
4.100213e+01	-1.049022e+01
4.123896e+01	-1.053559e+01
4.147715e+01	-1.058142e+01
4.171672e+01	-1.062748e+01
4.195767e+01	-1.067336e+01
4.220002e+01	-1.071860e+01
4.244377e+01	-1.076481e+01
4.268892e+01	-1.080990e+01
4.293549e+01	-1.085638e+01
4.318348e+01	-1.090316e+01
4.343291e+01	-1.094815e+01
4.368377e+01	-1.099420e+01
4.393609e+01	-1.103988e+01
4.418986e+01	-1.108665e+01
4.444510e+01	-1.113216e+01
4.470182e+01	-1.117909e+01
4.496001e+01	-1.122423e+01
4.521970e+01	-1.127081e+01
4.548089e+01	-1.131745e+01
4.574358e+01	-1.136411e+01
4.600779e+01	-1.141002e+01
4.627353e+01	-1.145675e+01
4.654081e+01	-1.150306e+01
4.680963e+01	-1.154869e+01
4.708000e+01	-1.159582e+01
4.735193e+01	-1.164228e+01
4.762543e+01	-1.168958e+01
4.790051e+01	-1.173585e+01
4.817719e+01	-1.178265e+01
4.845545e+01	-1.182915e+01
4.873533e+01	-1.187596e+01
4.901682e+01	-1.192261e+01
4.929994e+01	-1.196997e+01
4.958470e+01	-1.201661e+01
4.987110e+01	-1.206329e+01
5.015915e+01	-1.211052e+01
5.044887e+01	-1.215738e+01
5.074026e+01	-1.220422e+01
5.103333e+01	-1.225140e+01
5.132810e+01	-1.229922e+01
5.162457e+01	-1.234557e+01
5.192275e+01	-1.239349e+01
5.222265e+01	-1.243954e+01
5.252429e+01	-1.248734e+01
5.282767e+01	-1.253482e+01
5.313280e+01	-1.258165e+01
5.343969e+01	-1.262893e+01
5.374836e+01	-1.267613e+01
5.405880e+01	-1.272371e+01
5.437105e+01	-1.277120e+01
5.468509e+01	-1.281881e+01
5.500095e+01	-1.286561e+01
5.531863e+01	-1.291349e+01
5.563815e+01	-1.296112e+01
5.595951e+01	-1.300885e+01
5.628273e+01	-1.305622e+01
5.660782e+01	-1.310361e+01
5.693479e+01	-1.315084e+01
5.726364e+01	-1.319873e+01
5.759439e+01	-1.324628e+01
5.792705e+01	-1.329355e+01
5.826164e+01	-1.334121e+01
5.859815e+01	-1.338910e+01
5.893662e+01	-1.343668e+01
5.927703e+01	-1.348528e+01
5.961941e+01	-1.353350e+01
5.996377e+01	-1.358052e+01
6.031012e+01	-1.362804e+01
6.065847e+01	-1.367624e+01
6.100883e+01	-1.372378e+01
6.136121e+01	-1.377176e+01
6.171563e+01	-1.381947e+01
6.207210e+01	-1.386773e+01
6.243063e+01	-1.391580e+01
6.279122e+01	-1.396407e+01
6.315390e+01	-1.401205e+01
6.351868e+01	-1.405941e+01
6.388556e+01	-1.410831e+01
6.425456e+01	-1.415616e+01
6.462569e+01	-1.420394e+01
6.499897e+01	-1.425156e+01
6.537440e+01	-1.430075e+01
6.575200e+01	-1.434952e+01
6.613178e+01	-1.439724e+01
6.651375e+01	-1.444528e+01
6.689793e+01	-1.449367e+01
6.728433e+01	-1.454159e+01
6.767297e+01	-1.458960e+01
6.806384e+01	-1.463759e+01
6.845698e+01	-1.468694e+01
6.885238e+01	-1.473390e+01
6.925007e+01	-1.478314e+01
6.965005e+01	-1.483168e+01
7.005235e+01	-1.488094e+01
7.045697e+01	-1.492811e+01
7.086393e+01	-1.497632e+01
7.127323e+01	-1.502520e+01
7.168490e+01	-1.507363e+01
7.209895e+01	-1.512199e+01
7.251539e+01	-1.517150e+01
7.293424e+01	-1.521988e+01
7.335551e+01	-1.526783e+01
7.377920e+01	-1.531612e+01
7.420535e+01	-1.536468e+01
7.463396e+01	-1.541282e+01
7.506504e+01	-1.546163e+01
7.549861e+01	-1.551123e+01
7.593469e+01	-1.555989e+01
7.637328e+01	-1.560824e+01
7.681441e+01	-1.565696e+01
7.725809e+01	-1.570455e+01
7.770433e+01	-1.575365e+01
7.815315e+01	-1.580279e+01
7.860456e+01	-1.585253e+01
7.905857e+01	-1.590055e+01
7.951521e+01	-1.594860e+01
7.997449e+01	-1.599830e+01
8.043642e+01	-1.604660e+01
8.090102e+01	-1.609426e+01
8.136830e+01	-1.614318e+01
8.183828e+01	-1.619214e+01
8.231097e+01	-1.624186e+01
8.278640e+01	-1.629190e+01
8.326457e+01	-1.633999e+01
8.374550e+01	-1.638777e+01
8.422921e+01	-1.643715e+01
8.471572e+01	-1.648680e+01
8.520503e+01	-1.653565e+01
8.569717e+01	-1.658370e+01
8.619215e+01	-1.663298e+01
8.669000e+01	-1.668155e+01
8.719071e+01	-1.673092e+01
8.769432e+01	-1.678037e+01
8.820084e+01	-1.682749e+01
8.871029e+01	-1.687731e+01
8.922267e+01	-1.692532e+01
8.973802e+01	-1.697587e+01
9.025634e+01	-1.702546e+01
9.077766e+01	-1.707365e+01
9.130199e+01	-1.712208e+01
9.182935e+01	-1.717185e+01
9.235975e+01	-1.722171e+01
9.289321e+01	-1.726999e+01
9.342976e+01	-1.731918e+01
9.396941e+01	-1.736804e+01
9.451217e+01	-1.741673e+01
9.505807e+01	-1.746798e+01
9.560712e+01	-1.751582e+01
9.615934e+01	-1.756490e+01
9.671476e+01	-1.761417e+01
9.727338e+01	-1.766262e+01
9.783522e+01	-1.771313e+01
9.840032e+01	-1.776236e+01
9.896867e+01	-1.781038e+01
9.954031e+01	-1.786076e+01
1.001153e+02	-1.790941e+01
1.006935e+02	-1.795803e+01
1.012751e+02	-1.800719e+01
1.018601e+02	-1.805679e+01
1.024484e+02	-1.810604e+01
1.030402e+02	-1.815430e+01
1.036353e+02	-1.820502e+01
1.042339e+02	-1.825356e+01
1.048360e+02	-1.830374e+01
1.054415e+02	-1.835171e+01
1.060505e+02	-1.840177e+01
1.066631e+02	-1.845157e+01
1.072791e+02	-1.850049e+01
1.078988e+02	-1.854951e+01
1.085220e+02	-1.859835e+01
1.091488e+02	-1.864779e+01
1.097793e+02	-1.869825e+01
1.104133e+02	-1.874681e+01
1.110511e+02	-1.879848e+01
1.116925e+02	-1.884643e+01
1.123376e+02	-1.889561e+01
1.129865e+02	-1.894360e+01
1.136391e+02	-1.899435e+01
1.142955e+02	-1.904370e+01
1.149556e+02	-1.909298e+01
1.156196e+02	-1.914184e+01
1.162874e+02	-1.919215e+01
1.169591e+02	-1.924129e+01
1.176347e+02	-1.929073e+01
1.183141e+02	-1.933958e+01
1.189975e+02	-1.938940e+01
1.196848e+02	-1.943935e+01
1.203761e+02	-1.948852e+01
1.210714e+02	-1.953830e+01
1.217707e+02	-1.958828e+01
1.224740e+02	-1.963682e+01
1.231814e+02	-1.968603e+01
1.238929e+02	-1.973662e+01
1.246085e+02	-1.978584e+01
1.253283e+02	-1.983495e+01
1.260522e+02	-1.988544e+01
1.267802e+02	-1.993335e+01
1.275125e+02	-1.998320e+01
1.282490e+02	-2.003302e+01
1.289898e+02	-2.008182e+01
1.297348e+02	-2.013180e+01
1.304842e+02	-2.018151e+01
1.312378e+02	-2.023131e+01
1.319959e+02	-2.028135e+01
1.327583e+02	-2.033069e+01
1.335251e+02	-2.037785e+01
1.342963e+02	-2.042963e+01
1.350720e+02	-2.047959e+01
1.358522e+02	-2.052775e+01
1.366368e+02	-2.057865e+01
1.374260e+02	-2.062851e+01
1.382198e+02	-2.067616e+01
1.390182e+02	-2.072684e+01
1.398211e+02	-2.077738e+01
1.406287e+02	-2.082812e+01
1.414410e+02	-2.087516e+01
1.422579e+02	-2.092646e+01
1.430796e+02	-2.097653e+01
1.439060e+02	-2.102418e+01
1.447372e+02	-2.107583e+01
1.455732e+02	-2.112416e+01
1.464141e+02	-2.117416e+01
1.472597e+02	-2.122347e+01
1.481103e+02	-2.127295e+01
1.489658e+02	-2.132516e+01
1.498262e+02	-2.137310e+01
1.506916e+02	-2.142221e+01
1.515620e+02	-2.147204e+01
1.524374e+02	-2.151946e+01
1.533179e+02	-2.157224e+01
1.542034e+02	-2.162106e+01
1.550941e+02	-2.167215e+01
1.559899e+02	-2.172035e+01
1.568909e+02	-2.177158e+01
1.577971e+02	-2.182040e+01
1.587085e+02	-2.187032e+01
1.596252e+02	-2.192076e+01
1.605472e+02	-2.196789e+01
1.614745e+02	-2.201895e+01
1.624072e+02	-2.206768e+01
1.633453e+02	-2.211758e+01
1.642887e+02	-2.216783e+01
1.652377e+02	-2.221731e+01
1.661921e+02	-2.226594e+01
1.671520e+02	-2.231782e+01
1.681175e+02	-2.236968e+01
1.690885e+02	-2.241399e+01
1.700651e+02	-2.246794e+01
1.710474e+02	-2.251757e+01
1.720354e+02	-2.256794e+01
1.730291e+02	-2.261676e+01
1.740285e+02	-2.266828e+01
1.750337e+02	-2.271501e+01
1.760446e+02	-2.276456e+01
1.770615e+02	-2.281498e+01
1.780842e+02	-2.286457e+01
1.791128e+02	-2.291362e+01
1.801473e+02	-2.296520e+01
1.811878e+02	-2.301523e+01
1.822344e+02	-2.306355e+01
1.832870e+02	-2.311218e+01
1.843456e+02	-2.316388e+01
1.854104e+02	-2.321299e+01
1.864813e+02	-2.326278e+01
1.875584e+02	-2.331354e+01
1.886418e+02	-2.336496e+01
1.897313e+02	-2.341436e+01
1.908272e+02	-2.346313e+01
1.919294e+02	-2.351302e+01
1.930380e+02	-2.356364e+01
1.941530e+02	-2.360995e+01
1.952744e+02	-2.366277e+01
1.964023e+02	-2.371012e+01
1.975367e+02	-2.376196e+01
1.986777e+02	-2.381046e+01
1.998252e+02	-2.386099e+01
2.009794e+02	-2.391203e+01
2.021403e+02	-2.396155e+01
2.033078e+02	-2.401183e+01
2.044821e+02	-2.406022e+01
2.056632e+02	-2.411135e+01
2.068511e+02	-2.416003e+01
2.080459e+02	-2.420931e+01
2.092475e+02	-2.425757e+01
2.104561e+02	-2.431086e+01
2.116717e+02	-2.436015e+01
2.128943e+02	-2.440848e+01
2.141240e+02	-2.445836e+01
2.153608e+02	-2.450946e+01
2.166047e+02	-2.456175e+01
2.178558e+02	-2.461124e+01
2.191141e+02	-2.465851e+01
2.203797e+02	-2.471247e+01
2.216526e+02	-2.476103e+01
2.229329e+02	-2.480917e+01
2.242205e+02	-2.486071e+01
2.255156e+02	-2.490805e+01
2.268182e+02	-2.495981e+01
2.281283e+02	-2.500607e+01
2.294459e+02	-2.505861e+01
2.307712e+02	-2.510920e+01
2.321041e+02	-2.515894e+01
2.334447e+02	-2.520737e+01
2.347931e+02	-2.525968e+01
2.361493e+02	-2.530923e+01
2.375133e+02	-2.535803e+01
2.388851e+02	-2.540714e+01
2.402649e+02	-2.545759e+01
2.416527e+02	-2.550700e+01
2.430484e+02	-2.555951e+01
2.444523e+02	-2.560999e+01
2.458642e+02	-2.565741e+01
2.472843e+02	-2.570982e+01
2.487126e+02	-2.575890e+01
2.501492e+02	-2.580676e+01
2.515940e+02	-2.585854e+01
2.530472e+02	-2.590794e+01
2.545088e+02	-2.595587e+01
2.559789e+02	-2.600506e+01
2.574574e+02	-2.605683e+01
2.589444e+02	-2.610944e+01
2.604401e+02	-2.615736e+01
2.619444e+02	-2.620371e+01
2.634574e+02	-2.625664e+01
2.649791e+02	-2.630785e+01
2.665096e+02	-2.635745e+01
2.680489e+02	-2.640613e+01
2.695972e+02	-2.646012e+01
2.711544e+02	-2.651045e+01
2.727205e+02	-2.655856e+01
2.742958e+02	-2.660829e+01
2.758801e+02	-2.665519e+01
2.774736e+02	-2.670404e+01
2.790762e+02	-2.675564e+01
2.806882e+02	-2.680264e+01
2.823094e+02	-2.685910e+01
2.839400e+02	-2.690894e+01
2.855800e+02	-2.695848e+01
2.872295e+02	-2.700633e+01
2.888886e+02	-2.705906e+01
2.905572e+02	-2.710636e+01
2.922354e+02	-2.715715e+01
2.939234e+02	-2.720687e+01
2.956211e+02	-2.725409e+01
2.973286e+02	-2.730696e+01
2.990459e+02	-2.735744e+01
3.007732e+02	-2.741110e+01
3.025104e+02	-2.745930e+01
3.042577e+02	-2.750566e+01
3.060151e+02	-2.755723e+01
3.077826e+02	-2.760774e+01
3.095604e+02	-2.765551e+01
3.113484e+02	-2.770546e+01
3.131467e+02	-2.775522e+01
3.149554e+02	-2.780912e+01
3.167746e+02	-2.785929e+01
3.186043e+02	-2.790685e+01
3.204445e+02	-2.795677e+01
3.222954e+02	-2.800730e+01
3.241570e+02	-2.805564e+01
3.260293e+02	-2.810704e+01
3.279124e+02	-2.815677e+01
3.298064e+02	-2.820263e+01
3.317114e+02	-2.825737e+01
3.336273e+02	-2.830426e+01
3.355544e+02	-2.835703e+01
3.374925e+02	-2.841023e+01
3.394418e+02	-2.845623e+01
3.414024e+02	-2.850824e+01
3.433744e+02	-2.855829e+01
3.453577e+02	-2.860920e+01
3.473525e+02	-2.866014e+01
3.493588e+02	-2.870330e+01
3.513766e+02	-2.875791e+01
3.534062e+02	-2.880693e+01
3.554474e+02	-2.885767e+01
3.575005e+02	-2.890716e+01
3.595654e+02	-2.895763e+01
3.616422e+02	-2.901246e+01
3.637311e+02	-2.906179e+01
3.658320e+02	-2.910727e+01
3.679450e+02	-2.916107e+01
3.700702e+02	-2.920636e+01
3.722077e+02	-2.925986e+01
3.743576e+02	-2.931047e+01
3.765199e+02	-2.935448e+01
3.786946e+02	-2.941038e+01
3.808820e+02	-2.946056e+01
3.830819e+02	-2.950696e+01
3.852946e+02	-2.955744e+01
3.875200e+02	-2.960866e+01
3.897583e+02	-2.965544e+01
3.920096e+02	-2.970629e+01
3.942738e+02	-2.976162e+01
3.965511e+02	-2.980819e+01
3.988416e+02	-2.985801e+01
4.011452e+02	-2.990794e+01
4.034622e+02	-2.995947e+01
4.057926e+02	-3.001194e+01
4.081365e+02	-3.005690e+01
4.104938e+02	-3.010625e+01
4.128648e+02	-3.016033e+01
4.152495e+02	-3.020792e+01
4.176480e+02	-3.026584e+01
4.200603e+02	-3.031278e+01
4.224866e+02	-3.035914e+01
4.249268e+02	-3.040916e+01
4.273812e+02	-3.045850e+01
4.298497e+02	-3.050753e+01
4.323325e+02	-3.055744e+01
4.348297e+02	-3.060849e+01
4.373412e+02	-3.066541e+01
4.398673e+02	-3.071004e+01
4.424079e+02	-3.076267e+01
4.449633e+02	-3.080463e+01
4.475334e+02	-3.086408e+01
4.501183e+02	-3.091585e+01
4.527182e+02	-3.096040e+01
4.553330e+02	-3.101694e+01
4.579630e+02	-3.106387e+01
4.606082e+02	-3.110870e+01
4.632687e+02	-3.116662e+01
4.659445e+02	-3.121303e+01
4.686358e+02	-3.125717e+01
4.713426e+02	-3.131194e+01
4.740650e+02	-3.136440e+01
4.768032e+02	-3.141119e+01
4.795572e+02	-3.146182e+01
4.823271e+02	-3.151059e+01
4.851130e+02	-3.156689e+01
4.879150e+02	-3.161146e+01
4.907332e+02	-3.165939e+01
4.935676e+02	-3.171429e+01
4.964185e+02	-3.176822e+01
4.992858e+02	-3.181841e+01
5.021696e+02	-3.186158e+01
5.050701e+02	-3.191394e+01
5.079874e+02	-3.196846e+01
5.109215e+02	-3.201838e+01
5.138726e+02	-3.206226e+01
5.168407e+02	-3.211442e+01
5.198259e+02	-3.216905e+01
5.228284e+02	-3.220947e+01
5.258482e+02	-3.226578e+01
5.288855e+02	-3.231992e+01
5.319403e+02	-3.236117e+01
5.350128e+02	-3.242314e+01
5.381030e+02	-3.246795e+01
5.412111e+02	-3.251222e+01
5.443371e+02	-3.256850e+01
5.474812e+02	-3.262391e+01
5.506434e+02	-3.267283e+01
5.538239e+02	-3.271703e+01
5.570228e+02	-3.276776e+01
5.602401e+02	-3.281540e+01
5.634760e+02	-3.286823e+01
5.667306e+02	-3.291959e+01
5.700040e+02	-3.296232e+01
5.732964e+02	-3.302936e+01
5.766077e+02	-3.306311e+01
5.799382e+02	-3.311795e+01
5.832879e+02	-3.316688e+01
5.866569e+02	-3.323035e+01
5.900454e+02	-3.327248e+01
5.934535e+02	-3.332428e+01
5.968813e+02	-3.338249e+01
6.003288e+02	-3.342364e+01
6.037963e+02	-3.347790e+01
6.072838e+02	-3.352700e+01
6.107914e+02	-3.357322e+01
6.143194e+02	-3.362308e+01
6.178676e+02	-3.367603e+01
6.214364e+02	-3.372133e+01
6.250258e+02	-3.377798e+01
6.286359e+02	-3.382943e+01
6.322669e+02	-3.388512e+01
6.359189e+02	-3.392499e+01
6.395919e+02	-3.397548e+01
6.432862e+02	-3.402736e+01
6.470017e+02	-3.407306e+01
6.507388e+02	-3.412852e+01
6.544974e+02	-3.418006e+01
6.582778e+02	-3.423297e+01
6.620800e+02	-3.428268e+01
6.659041e+02	-3.433234e+01
6.697504e+02	-3.437273e+01
6.736188e+02	-3.442223e+01
6.775096e+02	-3.447264e+01
6.814229e+02	-3.452639e+01
6.853587e+02	-3.458196e+01
6.893173e+02	-3.463321e+01
6.932988e+02	-3.468222e+01
6.973033e+02	-3.472960e+01
7.013309e+02	-3.478517e+01
