Frequency(Hz)	Magnitude(dB)
1.000000e+01	-2.232773e+00
1.005776e+01	-2.253066e+00
1.011585e+01	-2.273147e+00
1.017428e+01	-2.293547e+00
1.023305e+01	-2.314186e+00
1.029215e+01	-2.334878e+00
1.035160e+01	-2.355734e+00
1.041139e+01	-2.376809e+00
1.047153e+01	-2.397784e+00
1.053201e+01	-2.419346e+00
1.059284e+01	-2.440515e+00
1.065403e+01	-2.462524e+00
1.071556e+01	-2.484091e+00
1.077746e+01	-2.505788e+00
1.083971e+01	-2.527969e+00
1.090232e+01	-2.550103e+00
1.096529e+01	-2.572459e+00
1.102862e+01	-2.594813e+00
1.109232e+01	-2.617562e+00
1.115639e+01	-2.639952e+00
1.122083e+01	-2.663022e+00
1.128564e+01	-2.685819e+00
1.135083e+01	-2.708980e+00
1.141639e+01	-2.732623e+00
1.148233e+01	-2.755821e+00
1.154865e+01	-2.779298e+00
1.161536e+01	-2.803010e+00
1.168245e+01	-2.826887e+00
1.174992e+01	-2.850829e+00
1.181779e+01	-2.875026e+00
1.188605e+01	-2.899643e+00
1.195470e+01	-2.923860e+00
1.202375e+01	-2.948516e+00
1.209320e+01	-2.973086e+00
1.216305e+01	-2.998014e+00
1.223330e+01	-3.022985e+00
1.230396e+01	-3.048301e+00
1.237503e+01	-3.073668e+00
1.244651e+01	-3.098818e+00
1.251840e+01	-3.124603e+00
1.259070e+01	-3.150228e+00
1.266343e+01	-3.176179e+00
1.273657e+01	-3.202063e+00
1.281014e+01	-3.228187e+00
1.288413e+01	-3.254648e+00
1.295855e+01	-3.281133e+00
1.303339e+01	-3.307720e+00
1.310867e+01	-3.334253e+00
1.318439e+01	-3.361351e+00
1.326054e+01	-3.388369e+00
1.333713e+01	-3.415472e+00
1.341417e+01	-3.442636e+00
1.349165e+01	-3.470226e+00
1.356958e+01	-3.498141e+00
1.364795e+01	-3.525474e+00
1.372678e+01	-3.553197e+00
1.380607e+01	-3.581536e+00
1.388581e+01	-3.609678e+00
1.396602e+01	-3.638052e+00
1.404668e+01	-3.666494e+00
1.412782e+01	-3.694710e+00
1.420942e+01	-3.723789e+00
1.429149e+01	-3.752533e+00
1.437404e+01	-3.781530e+00
1.445706e+01	-3.810936e+00
1.454057e+01	-3.840231e+00
1.462455e+01	-3.869242e+00
1.470902e+01	-3.898979e+00
1.479398e+01	-3.928822e+00
1.487943e+01	-3.958937e+00
1.496537e+01	-3.988508e+00
1.505181e+01	-4.018947e+00
1.513875e+01	-4.049117e+00
1.522619e+01	-4.079682e+00
1.531414e+01	-4.110006e+00
1.540259e+01	-4.140728e+00
1.549156e+01	-4.171418e+00
1.558103e+01	-4.202322e+00
1.567103e+01	-4.233608e+00
1.576155e+01	-4.264783e+00
1.585258e+01	-4.296089e+00
1.594415e+01	-4.327599e+00
1.603624e+01	-4.359454e+00
1.612886e+01	-4.390836e+00
1.622202e+01	-4.423015e+00
1.631572e+01	-4.454636e+00
1.640996e+01	-4.487233e+00
1.650474e+01	-4.519548e+00
1.660008e+01	-4.552017e+00
1.669596e+01	-4.584126e+00
1.679239e+01	-4.616642e+00
1.688938e+01	-4.649657e+00
1.698694e+01	-4.682632e+00
1.708505e+01	-4.715745e+00
1.718373e+01	-4.748949e+00
1.728299e+01	-4.782336e+00
1.738281e+01	-4.815726e+00
1.748322e+01	-4.849126e+00
1.758420e+01	-4.883182e+00
1.768576e+01	-4.916952e+00
1.778792e+01	-4.950966e+00
1.789066e+01	-4.985215e+00
1.799399e+01	-5.018997e+00
1.809793e+01	-5.053367e+00
1.820246e+01	-5.087961e+00
1.830760e+01	-5.122594e+00
1.841334e+01	-5.157238e+00
1.851969e+01	-5.191966e+00
1.862666e+01	-5.226806e+00
1.873425e+01	-5.262258e+00
1.884246e+01	-5.297190e+00
1.895129e+01	-5.332628e+00
1.906075e+01	-5.367512e+00
1.917085e+01	-5.403835e+00
1.928158e+01	-5.439103e+00
1.939295e+01	-5.475129e+00
1.950496e+01	-5.510847e+00
1.961762e+01	-5.546905e+00
1.973093e+01	-5.583021e+00
1.984490e+01	-5.619260e+00
1.995952e+01	-5.655591e+00
2.007480e+01	-5.692240e+00
2.019076e+01	-5.728817e+00
2.030738e+01	-5.765329e+00
2.042467e+01	-5.802336e+00
2.054264e+01	-5.839179e+00
2.066130e+01	-5.876147e+00
2.078064e+01	-5.913453e+00
2.090066e+01	-5.950711e+00
2.102139e+01	-5.987954e+00
2.114280e+01	-6.025722e+00
2.126492e+01	-6.063227e+00
2.138775e+01	-6.100865e+00
2.151128e+01	-6.138651e+00
2.163553e+01	-6.176567e+00
2.176050e+01	-6.214611e+00
2.188619e+01	-6.252656e+00
2.201260e+01	-6.290937e+00
2.213974e+01	-6.329042e+00
2.226762e+01	-6.367447e+00
2.239624e+01	-6.406345e+00
2.252560e+01	-6.444674e+00
2.265571e+01	-6.483294e+00
2.278656e+01	-6.522455e+00
2.291818e+01	-6.561232e+00
2.305055e+01	-6.600554e+00
2.318369e+01	-6.639138e+00
2.331760e+01	-6.678935e+00
2.345228e+01	-6.718254e+00
2.358774e+01	-6.757230e+00
2.372398e+01	-6.797309e+00
2.386101e+01	-6.836530e+00
2.399883e+01	-6.876037e+00
2.413745e+01	-6.915987e+00
2.427686e+01	-6.955938e+00
2.441709e+01	-6.996098e+00
2.455812e+01	-7.036015e+00
2.469997e+01	-7.076275e+00
2.484263e+01	-7.116447e+00
2.498612e+01	-7.156831e+00
2.513044e+01	-7.197082e+00
2.527559e+01	-7.238062e+00
2.542158e+01	-7.278518e+00
2.556842e+01	-7.319298e+00
2.571610e+01	-7.359703e+00
2.586463e+01	-7.400452e+00
2.601403e+01	-7.441616e+00
2.616428e+01	-7.483135e+00
2.631541e+01	-7.524094e+00
2.646740e+01	-7.565228e+00
2.662028e+01	-7.606226e+00
2.677404e+01	-7.648064e+00
2.692868e+01	-7.689530e+00
2.708422e+01	-7.731013e+00
2.724066e+01	-7.772374e+00
2.739800e+01	-7.814066e+00
2.755625e+01	-7.856083e+00
2.771541e+01	-7.897749e+00
2.787550e+01	-7.939939e+00
2.803650e+01	-7.982374e+00
2.819844e+01	-8.023735e+00
2.836131e+01	-8.066384e+00
2.852513e+01	-8.108535e+00
2.868989e+01	-8.150645e+00
2.885560e+01	-8.193502e+00
2.902227e+01	-8.235794e+00
2.918990e+01	-8.278297e+00
2.935850e+01	-8.320682e+00
2.952807e+01	-8.363393e+00
2.969863e+01	-8.405934e+00
2.987016e+01	-8.449136e+00
3.004269e+01	-8.492467e+00
3.021622e+01	-8.535475e+00
3.039075e+01	-8.578174e+00
3.056628e+01	-8.621088e+00
3.074283e+01	-8.664777e+00
3.092040e+01	-8.707990e+00
3.109900e+01	-8.751047e+00
3.127862e+01	-8.793813e+00
3.145929e+01	-8.837558e+00
3.164099e+01	-8.881312e+00
3.182375e+01	-8.924364e+00
3.200756e+01	-8.969029e+00
3.219244e+01	-9.012663e+00
3.237838e+01	-9.056162e+00
3.256540e+01	-9.100105e+00
3.275349e+01	-9.143786e+00
3.294268e+01	-9.187981e+00
3.313295e+01	-9.232408e+00
3.332433e+01	-9.275935e+00
3.351681e+01	-9.320378e+00
3.371040e+01	-9.364196e+00
3.390511e+01	-9.408364e+00
3.410094e+01	-9.452661e+00
3.429791e+01	-9.496899e+00
3.449601e+01	-9.541641e+00
3.469526e+01	-9.586197e+00
3.489566e+01	-9.631338e+00
3.509721e+01	-9.675084e+00
3.529993e+01	-9.719918e+00
3.550382e+01	-9.764160e+00
3.570889e+01	-9.809866e+00
3.591515e+01	-9.853813e+00
3.612259e+01	-9.899642e+00
3.633123e+01	-9.944091e+00
3.654108e+01	-9.988933e+00
3.675214e+01	-1.003386e+01
3.696442e+01	-1.007966e+01
3.717792e+01	-1.012480e+01
3.739266e+01	-1.016985e+01
3.760864e+01	-1.021436e+01
3.782587e+01	-1.026017e+01
3.804435e+01	-1.030521e+01
3.826409e+01	-1.035072e+01
3.848510e+01	-1.039620e+01
3.870739e+01	-1.044193e+01
3.893096e+01	-1.048692e+01
3.915583e+01	-1.053266e+01
3.938199e+01	-1.057864e+01
3.960946e+01	-1.062377e+01
3.983824e+01	-1.067005e+01
4.006834e+01	-1.071576e+01
4.029978e+01	-1.076145e+01
4.053255e+01	-1.080728e+01
4.076666e+01	-1.085312e+01
4.100213e+01	-1.089904e+01
4.123896e+01	-1.094533e+01
4.147715e+01	-1.099103e+01
4.171672e+01	-1.103703e+01
4.195767e+01	-1.108377e+01
4.220002e+01	-1.112970e+01
4.244377e+01	-1.117525e+01
4.268892e+01	-1.122157e+01
4.293549e+01	-1.126871e+01
4.318348e+01	-1.131397e+01
4.343291e+01	-1.136082e+01
4.368377e+01	-1.140747e+01
4.393609e+01	-1.145303e+01
4.418986e+01	-1.149979e+01
4.444510e+01	-1.154602e+01
4.470182e+01	-1.159384e+01
4.496001e+01	-1.164009e+01
4.521970e+01	-1.168632e+01
4.548089e+01	-1.173338e+01
4.574358e+01	-1.177986e+01
4.600779e+01	-1.182655e+01
4.627353e+01	-1.187286e+01
4.654081e+01	-1.191966e+01
4.680963e+01	-1.196697e+01
4.708000e+01	-1.201339e+01
4.735193e+01	-1.206038e+01
4.762543e+01	-1.210747e+01
4.790051e+01	-1.215379e+01
4.817719e+01	-1.220115e+01
4.845545e+01	-1.224880e+01
4.873533e+01	-1.229542e+01
4.901682e+01	-1.234296e+01
4.929994e+01	-1.238951e+01
4.958470e+01	-1.243686e+01
4.987110e+01	-1.248366e+01
5.015915e+01	-1.253127e+01
5.044887e+01	-1.257879e+01
5.074026e+01	-1.262547e+01
5.103333e+01	-1.267256e+01
5.132810e+01	-1.271979e+01
5.162457e+01	-1.276751e+01
5.192275e+01	-1.281560e+01
5.222265e+01	-1.286262e+01
5.252429e+01	-1.290961e+01
5.282767e+01	-1.295781e+01
5.313280e+01	-1.300455e+01
5.343969e+01	-1.305218e+01
5.374836e+01	-1.310027e+01
5.405880e+01	-1.314760e+01
5.437105e+01	-1.319542e+01
5.468509e+01	-1.324308e+01
5.500095e+01	-1.329060e+01
5.531863e+01	-1.333804e+01
5.563815e+01	-1.338658e+01
5.595951e+01	-1.343364e+01
5.628273e+01	-1.348153e+01
5.660782e+01	-1.352921e+01
5.693479e+01	-1.357698e+01
5.726364e+01	-1.362493e+01
5.759439e+01	-1.367293e+01
5.792705e+01	-1.372058e+01
5.826164e+01	-1.376832e+01
5.859815e+01	-1.381638e+01
5.893662e+01	-1.386451e+01
5.927703e+01	-1.391289e+01
5.961941e+01	-1.396096e+01
5.996377e+01	-1.400856e+01
6.031012e+01	-1.405713e+01
6.065847e+01	-1.410502e+01
6.100883e+01	-1.415261e+01
6.136121e+01	-1.420088e+01
6.171563e+01	-1.424920e+01
6.207210e+01	-1.429750e+01
6.243063e+01	-1.434545e+01
6.279122e+01	-1.439296e+01
6.315390e+01	-1.444136e+01
6.351868e+01	-1.449008e+01
6.388556e+01	-1.453847e+01
6.425456e+01	-1.458767e+01
6.462569e+01	-1.463504e+01
6.499897e+01	-1.468300e+01
6.537440e+01	-1.473197e+01
6.575200e+01	-1.478032e+01
6.613178e+01	-1.482937e+01
6.651375e+01	-1.487591e+01
6.689793e+01	-1.492532e+01
6.728433e+01	-1.497390e+01
6.767297e+01	-1.502234e+01
6.806384e+01	-1.506979e+01
6.845698e+01	-1.511886e+01
6.885238e+01	-1.516639e+01
6.925007e+01	-1.521634e+01
6.965005e+01	-1.526404e+01
7.005235e+01	-1.531338e+01
7.045697e+01	-1.536203e+01
7.086393e+01	-1.541049e+01
7.127323e+01	-1.545862e+01
7.168490e+01	-1.550746e+01
7.209895e+01	-1.555578e+01
7.251539e+01	-1.560483e+01
7.293424e+01	-1.565314e+01
7.335551e+01	-1.570201e+01
7.377920e+01	-1.575163e+01
7.420535e+01	-1.579847e+01
7.463396e+01	-1.584862e+01
7.506504e+01	-1.589662e+01
7.549861e+01	-1.594509e+01
7.593469e+01	-1.599380e+01
7.637328e+01	-1.604322e+01
7.681441e+01	-1.609124e+01
7.725809e+01	-1.614062e+01
7.770433e+01	-1.618958e+01
7.815315e+01	-1.623911e+01
7.860456e+01	-1.628737e+01
7.905857e+01	-1.633717e+01
7.951521e+01	-1.638405e+01
7.997449e+01	-1.643329e+01
8.043642e+01	-1.648232e+01
8.090102e+01	-1.653155e+01
8.136830e+01	-1.658039e+01
8.183828e+01	-1.662933e+01
8.231097e+01	-1.667836e+01
8.278640e+01	-1.672769e+01
8.326457e+01	-1.677588e+01
8.374550e+01	-1.682524e+01
8.422921e+01	-1.687476e+01
8.471572e+01	-1.692322e+01
8.520503e+01	-1.697255e+01
8.569717e+01	-1.702210e+01
8.619215e+01	-1.706988e+01
8.669000e+01	-1.711880e+01
8.719071e+01	-1.716866e+01
8.769432e+01	-1.721808e+01
8.820084e+01	-1.726752e+01
8.871029e+01	-1.731646e+01
8.922267e+01	-1.736612e+01
8.973802e+01	-1.741408e+01
9.025634e+01	-1.746303e+01
9.077766e+01	-1.751186e+01
9.130199e+01	-1.756170e+01
9.182935e+01	-1.761068e+01
9.235975e+01	-1.766061e+01
9.289321e+01	-1.770727e+01
9.342976e+01	-1.775821e+01
9.396941e+01	-1.780680e+01
9.451217e+01	-1.785625e+01
9.505807e+01	-1.790560e+01
9.560712e+01	-1.795563e+01
9.615934e+01	-1.800469e+01
9.671476e+01	-1.805396e+01
9.727338e+01	-1.810233e+01
9.783522e+01	-1.815202e+01
9.840032e+01	-1.820088e+01
9.896867e+01	-1.825120e+01
9.954031e+01	-1.829906e+01
1.001153e+02	-1.834940e+01
1.006935e+02	-1.839763e+01
1.012751e+02	-1.844848e+01
1.018601e+02	-1.849656e+01
1.024484e+02	-1.854642e+01
1.030402e+02	-1.859706e+01
1.036353e+02	-1.864558e+01
1.042339e+02	-1.869466e+01
1.048360e+02	-1.874424e+01
1.054415e+02	-1.879361e+01
1.060505e+02	-1.884232e+01
1.066631e+02	-1.889141e+01
1.072791e+02	-1.894119e+01
1.078988e+02	-1.899017e+01
1.085220e+02	-1.904165e+01
1.091488e+02	-1.908856e+01
1.097793e+02	-1.913963e+01
1.104133e+02	-1.918791e+01
1.110511e+02	-1.923715e+01
1.116925e+02	-1.928816e+01
1.123376e+02	-1.933825e+01
1.129865e+02	-1.938616e+01
1.136391e+02	-1.943554e+01
1.142955e+02	-1.948508e+01
1.149556e+02	-1.953564e+01
1.156196e+02	-1.958390e+01
1.162874e+02	-1.963311e+01
1.169591e+02	-1.968412e+01
1.176347e+02	-1.973165e+01
1.183141e+02	-1.978174e+01
1.189975e+02	-1.983183e+01
1.196848e+02	-1.988077e+01
1.203761e+02	-1.993102e+01
1.210714e+02	-1.997935e+01
1.217707e+02	-2.003051e+01
1.224740e+02	-2.007879e+01
1.231814e+02	-2.012832e+01
1.238929e+02	-2.017719e+01
1.246085e+02	-2.022744e+01
1.253283e+02	-2.027864e+01
1.260522e+02	-2.032767e+01
1.267802e+02	-2.037505e+01
1.275125e+02	-2.042716e+01
1.282490e+02	-2.047570e+01
1.289898e+02	-2.052520e+01
1.297348e+02	-2.057547e+01
1.304842e+02	-2.062383e+01
1.312378e+02	-2.067380e+01
1.319959e+02	-2.072423e+01
1.327583e+02	-2.077397e+01
1.335251e+02	-2.082336e+01
1.342963e+02	-2.087227e+01
1.350720e+02	-2.092195e+01
1.358522e+02	-2.097326e+01
1.366368e+02	-2.102214e+01
1.374260e+02	-2.107266e+01
1.382198e+02	-2.112057e+01
1.390182e+02	-2.117148e+01
1.398211e+02	-2.121981e+01
1.406287e+02	-2.126994e+01
1.414410e+02	-2.131985e+01
1.422579e+02	-2.136963e+01
1.430796e+02	-2.141839e+01
1.439060e+02	-2.146600e+01
1.447372e+02	-2.151767e+01
1.455732e+02	-2.156695e+01
1.464141e+02	-2.161898e+01
1.472597e+02	-2.166819e+01
1.481103e+02	-2.171696e+01
1.489658e+02	-2.176599e+01
1.498262e+02	-2.181754e+01
1.506916e+02	-2.186527e+01
1.515620e+02	-2.191627e+01
1.524374e+02	-2.196665e+01
1.533179e+02	-2.201427e+01
1.542034e+02	-2.206469e+01
1.550941e+02	-2.211441e+01
1.559899e+02	-2.216639e+01
1.568909e+02	-2.221326e+01
1.577971e+02	-2.226342e+01
1.587085e+02	-2.231441e+01
1.596252e+02	-2.236520e+01
1.605472e+02	-2.241477e+01
1.614745e+02	-2.246476e+01
1.624072e+02	-2.251342e+01
1.633453e+02	-2.256202e+01
1.642887e+02	-2.261240e+01
1.652377e+02	-2.266242e+01
1.661921e+02	-2.271284e+01
1.671520e+02	-2.276484e+01
1.681175e+02	-2.281183e+01
1.690885e+02	-2.286033e+01
1.700651e+02	-2.291100e+01
1.710474e+02	-2.296160e+01
1.720354e+02	-2.300909e+01
1.730291e+02	-2.305937e+01
1.740285e+02	-2.311215e+01
1.750337e+02	-2.316249e+01
1.760446e+02	-2.320988e+01
1.770615e+02	-2.325998e+01
1.780842e+02	-2.330964e+01
1.791128e+02	-2.336109e+01
1.801473e+02	-2.340865e+01
1.811878e+02	-2.345750e+01
1.822344e+02	-2.350838e+01
1.832870e+02	-2.355937e+01
1.843456e+02	-2.360994e+01
1.854104e+02	-2.365849e+01
1.864813e+02	-2.370617e+01
1.875584e+02	-2.375951e+01
1.886418e+02	-2.380682e+01
1.897313e+02	-2.385596e+01
1.908272e+02	-2.390608e+01
1.919294e+02	-2.395731e+01
1.930380e+02	-2.400618e+01
1.941530e+02	-2.405651e+01
1.952744e+02	-2.410807e+01
1.964023e+02	-2.415550e+01
1.975367e+02	-2.420752e+01
1.986777e+02	-2.425554e+01
1.998252e+02	-2.430371e+01
2.009794e+02	-2.435575e+01
2.021403e+02	-2.440693e+01
2.033078e+02	-2.445467e+01
2.044821e+02	-2.450802e+01
2.056632e+02	-2.455284e+01
2.068511e+02	-2.460391e+01
2.080459e+02	-2.465581e+01
2.092475e+02	-2.470395e+01
2.104561e+02	-2.475394e+01
2.116717e+02	-2.480458e+01
2.128943e+02	-2.485507e+01
2.141240e+02	-2.490515e+01
2.153608e+02	-2.495322e+01
2.166047e+02	-2.500384e+01
2.178558e+02	-2.505751e+01
2.191141e+02	-2.510347e+01
2.203797e+02	-2.515299e+01
2.216526e+02	-2.520468e+01
2.229329e+02	-2.525485e+01
2.242205e+02	-2.530559e+01
2.255156e+02	-2.535556e+01
2.268182e+02	-2.540531e+01
2.281283e+02	-2.545328e+01
2.294459e+02	-2.550627e+01
2.307712e+02	-2.555406e+01
2.321041e+02	-2.560324e+01
2.334447e+02	-2.565258e+01
2.347931e+02	-2.570304e+01
2.361493e+02	-2.575121e+01
2.375133e+02	-2.580144e+01
2.388851e+02	-2.585627e+01
2.402649e+02	-2.590307e+01
2.416527e+02	-2.595438e+01
2.430484e+02	-2.600729e+01
2.444523e+02	-2.605423e+01
2.458642e+02	-2.610342e+01
2.472843e+02	-2.615461e+01
2.487126e+02	-2.620354e+01
2.501492e+02	-2.625246e+01
2.515940e+02	-2.630394e+01
2.530472e+02	-2.635272e+01
2.545088e+02	-2.640542e+01
2.559789e+02	-2.645292e+01
2.574574e+02	-2.650012e+01
2.589444e+02	-2.655316e+01
2.604401e+02	-2.660551e+01
2.619444e+02	-2.664995e+01
2.634574e+02	-2.670289e+01
2.649791e+02	-2.675348e+01
2.665096e+02	-2.680166e+01
2.680489e+02	-2.685180e+01
2.695972e+02	-2.690616e+01
2.711544e+02	-2.695062e+01
2.727205e+02	-2.700387e+01
2.742958e+02	-2.705545e+01
2.758801e+02	-2.710380e+01
2.774736e+02	-2.715031e+01
2.790762e+02	-2.720387e+01
2.806882e+02	-2.724874e+01
2.823094e+02	-2.729869e+01
2.839400e+02	-2.735251e+01
2.855800e+02	-2.740747e+01
2.872295e+02	-2.745448e+01
2.888886e+02	-2.750350e+01
2.905572e+02	-2.755191e+01
2.922354e+02	-2.760616e+01
2.939234e+02	-2.765440e+01
2.956211e+02	-2.770190e+01
2.973286e+02	-2.775063e+01
2.990459e+02	-2.780452e+01
3.007732e+02	-2.785044e+01
3.025104e+02	-2.790549e+01
3.042577e+02	-2.795400e+01
3.060151e+02	-2.800283e+01
3.077826e+02	-2.805422e+01
3.095604e+02	-2.810193e+01
3.113484e+02	-2.815472e+01
3.131467e+02	-2.821086e+01
3.149554e+02	-2.825228e+01
3.167746e+02	-2.830381e+01
3.186043e+02	-2.835343e+01
3.204445e+02	-2.840523e+01
3.222954e+02	-2.845440e+01
3.241570e+02	-2.850364e+01
3.260293e+02	-2.855498e+01
3.279124e+02	-2.860357e+01
3.298064e+02	-2.865151e+01
3.317114e+02	-2.870494e+01
3.336273e+02	-2.874963e+01
3.355544e+02	-2.880640e+01
3.374925e+02	-2.885516e+01
3.394418e+02	-2.890072e+01
3.414024e+02	-2.894862e+01
3.433744e+02	-2.900478e+01
3.453577e+02	-2.905276e+01
3.473525e+02	-2.910362e+01
3.493588e+02	-2.915152e+01
3.513766e+02	-2.920044e+01
3.534062e+02	-2.925553e+01
3.554474e+02	-2.930275e+01
3.575005e+02	-2.936013e+01
3.595654e+02	-2.940615e+01
3.616422e+02	-2.945065e+01
3.637311e+02	-2.950517e+01
3.658320e+02	-2.955449e+01
3.679450e+02	-2.960405e+01
3.700702e+02	-2.965565e+01
3.722077e+02	-2.970205e+01
3.743576e+02	-2.974951e+01
3.765199e+02	-2.980475e+01
3.786946e+02	-2.986061e+01
3.808820e+02	-2.991030e+01
3.830819e+02	-2.995706e+01
3.852946e+02	-3.000545e+01
3.875200e+02	-3.005843e+01
3.897583e+02	-3.010560e+01
3.920096e+02	-3.015825e+01
3.942738e+02	-3.020496e+01
3.965511e+02	-3.025456e+01
3.988416e+02	-3.030409e+01
4.011452e+02	-3.035787e+01
4.034622e+02	-3.041217e+01
4.057926e+02	-3.045242e+01
4.081365e+02	-3.050864e+01
4.104938e+02	-3.055249e+01
4.128648e+02	-3.060485e+01
4.152495e+02	-3.065280e+01
4.176480e+02	-3.070342e+01
4.200603e+02	-3.075815e+01
4.224866e+02	-3.080702e+01
4.249268e+02	-3.085391e+01
4.273812e+02	-3.090776e+01
4.298497e+02	-3.095502e+01
4.323325e+02	-3.100667e+01
4.348297e+02	-3.106012e+01
4.373412e+02	-3.111520e+01
4.398673e+02	-3.115938e+01
4.424079e+02	-3.121307e+01
4.449633e+02	-3.125659e+01
4.475334e+02	-3.130685e+01
4.501183e+02	-3.135405e+01
4.527182e+02	-3.141009e+01
4.553330e+02	-3.146497e+01
4.579630e+02	-3.151096e+01
4.606082e+02	-3.156073e+01
4.632687e+02	-3.160146e+01
4.659445e+02	-3.166277e+01
4.686358e+02	-3.171522e+01
4.713426e+02	-3.175714e+01
4.740650e+02	-3.180847e+01
4.768032e+02	-3.185495e+01
4.795572e+02	-3.191252e+01
4.823271e+02	-3.195741e+01
4.851130e+02	-3.201240e+01
4.879150e+02	-3.205396e+01
4.907332e+02	-3.211158e+01
4.935676e+02	-3.216627e+01
4.964185e+02	-3.221067e+01
4.992858e+02	-3.226048e+01
5.021696e+02	-3.231578e+01
5.050701e+02	-3.236288e+01
5.079874e+02	-3.240832e+01
5.109215e+02	-3.246010e+01
5.138726e+02	-3.251624e+01
5.168407e+02	-3.255801e+01
5.198259e+02	-3.261402e+01
5.228284e+02	-3.266372e+01
5.258482e+02	-3.271729e+01
5.288855e+02	-3.276523e+01
5.319403e+02	-3.280594e+01
5.350128e+02	-3.286293e+01
5.381030e+02	-3.291442e+01
5.412111e+02	-3.296840e+01
5.443371e+02	-3.302082e+01
5.474812e+02	-3.306589e+01
5.506434e+02	-3.310799e+01
5.538239e+02	-3.317021e+01
5.570228e+02	-3.321211e+01
5.602401e+02	-3.326685e+01
5.634760e+02	-3.331572e+01
5.667306e+02	-3.336368e+01
5.700040e+02	-3.342272e+01
5.732964e+02	-3.346439e+01
5.766077e+02	-3.350906e+01
5.799382e+02	-3.356835e+01
5.832879e+02	-3.362008e+01
5.866569e+02	-3.367822e+01
5.900454e+02	-3.372376e+01
5.934535e+02	-3.377260e+01
5.968813e+02	-3.381658e+01
6.003288e+02	-3.386700e+01
6.037963e+02	-3.391842e+01
6.072838e+02	-3.396577e+01
6.107914e+02	-3.402461e+01
6.143194e+02	-3.407486e+01
6.178676e+02	-3.411563e+01
6.214364e+02	-3.416809e+01
6.250258e+02	-3.421878e+01
6.286359e+02	-3.426846e+01
6.322669e+02	-3.432036e+01
6.359189e+02	-3.436443e+01
6.395919e+02	-3.441902e+01
6.432862e+02	-3.446889e+01
6.470017e+02	-3.453444e+01
6.507388e+02	-3.457934e+01
6.544974e+02	-3.462583e+01
6.582778e+02	-3.467794e+01
6.620800e+02	-3.473165e+01
6.659041e+02	-3.477163e+01
6.697504e+02	-3.483006e+01
6.736188e+02	-3.488611e+01
6.775096e+02	-3.493073e+01
6.814229e+02	-3.496852e+01
6.853587e+02	-3.503190e+01
6.893173e+02	-3.507287e+01
6.932988e+02	-3.512254e+01
6.973033e+02	-3.518466e+01
7.013309e+02	-3.522174e+01
