Frequency(Hz)	Magnitude(dB)
1.000000e+01	-2.149421e+00
1.005776e+01	-2.168842e+00
1.011585e+01	-2.188860e+00
1.017428e+01	-2.208693e+00
1.023305e+01	-2.228607e+00
1.029215e+01	-2.248673e+00
1.035160e+01	-2.268963e+00
1.041139e+01	-2.289540e+00
1.047153e+01	-2.310039e+00
1.053201e+01	-2.330661e+00
1.059284e+01	-2.351584e+00
1.065403e+01	-2.372524e+00
1.071556e+01	-2.393742e+00
1.077746e+01	-2.414851e+00
1.083971e+01	-2.436264e+00
1.090232e+01	-2.457918e+00
1.096529e+01	-2.479543e+00
1.102862e+01	-2.501356e+00
1.109232e+01	-2.523376e+00
1.115639e+01	-2.545573e+00
1.122083e+01	-2.567831e+00
1.128564e+01	-2.590109e+00
1.135083e+01	-2.612625e+00
1.141639e+01	-2.635483e+00
1.148233e+01	-2.658323e+00
1.154865e+01	-2.681114e+00
1.161536e+01	-2.704418e+00
1.168245e+01	-2.727995e+00
1.174992e+01	-2.750924e+00
1.181779e+01	-2.774647e+00
1.188605e+01	-2.798355e+00
1.195470e+01	-2.821903e+00
1.202375e+01	-2.846087e+00
1.209320e+01	-2.870245e+00
1.216305e+01	-2.894327e+00
1.223330e+01	-2.918745e+00
1.230396e+01	-2.943290e+00
1.237503e+01	-2.967997e+00
1.244651e+01	-2.992731e+00
1.251840e+01	-3.018359e+00
1.259070e+01	-3.043047e+00
1.266343e+01	-3.068223e+00
1.273657e+01	-3.093713e+00
1.281014e+01	-3.119297e+00
1.288413e+01	-3.144804e+00
1.295855e+01	-3.170873e+00
1.303339e+01	-3.196517e+00
1.310867e+01	-3.223017e+00
1.318439e+01	-3.249074e+00
1.326054e+01	-3.275591e+00
1.333713e+01	-3.302147e+00
1.341417e+01	-3.328783e+00
1.349165e+01	-3.355840e+00
1.356958e+01	-3.382481e+00
1.364795e+01	-3.409939e+00
1.372678e+01	-3.437322e+00
1.380607e+01	-3.464864e+00
1.388581e+01	-3.492327e+00
1.396602e+01	-3.520067e+00
1.404668e+01	-3.547779e+00
1.412782e+01	-3.575465e+00
1.420942e+01	-3.603884e+00
1.429149e+01	-3.632252e+00
1.437404e+01	-3.660633e+00
1.445706e+01	-3.689358e+00
1.454057e+01	-3.717963e+00
1.462455e+01	-3.746839e+00
1.470902e+01	-3.775589e+00
1.479398e+01	-3.804806e+00
1.487943e+01	-3.833993e+00
1.496537e+01	-3.863547e+00
1.505181e+01	-3.893000e+00
1.513875e+01	-3.922710e+00
1.522619e+01	-3.952493e+00
1.531414e+01	-3.982599e+00
1.540259e+01	-4.012581e+00
1.549156e+01	-4.042755e+00
1.558103e+01	-4.073189e+00
1.567103e+01	-4.103891e+00
1.576155e+01	-4.134354e+00
1.585258e+01	-4.165237e+00
1.594415e+01	-4.196241e+00
1.603624e+01	-4.226865e+00
1.612886e+01	-4.258448e+00
1.622202e+01	-4.289803e+00
1.631572e+01	-4.321030e+00
1.640996e+01	-4.352786e+00
1.650474e+01	-4.384333e+00
1.660008e+01	-4.416628e+00
1.669596e+01	-4.448332e+00
1.679239e+01	-4.480730e+00
1.688938e+01	-4.512728e+00
1.698694e+01	-4.545155e+00
1.708505e+01	-4.577677e+00
1.718373e+01	-4.610452e+00
1.728299e+01	-4.642997e+00
1.738281e+01	-4.675806e+00
1.748322e+01	-4.708704e+00
1.758420e+01	-4.742223e+00
1.768576e+01	-4.775444e+00
1.778792e+01	-4.808734e+00
1.789066e+01	-4.842168e+00
1.799399e+01	-4.876180e+00
1.809793e+01	-4.909832e+00
1.820246e+01	-4.943930e+00
1.830760e+01	-4.977984e+00
1.841334e+01	-5.012154e+00
1.851969e+01	-5.046334e+00
1.862666e+01	-5.080585e+00
1.873425e+01	-5.115279e+00
1.884246e+01	-5.150160e+00
1.895129e+01	-5.184844e+00
1.906075e+01	-5.219813e+00
1.917085e+01	-5.254974e+00
1.928158e+01	-5.290377e+00
1.939295e+01	-5.325178e+00
1.950496e+01	-5.360485e+00
1.961762e+01	-5.396177e+00
1.973093e+01	-5.431897e+00
1.984490e+01	-5.467842e+00
1.995952e+01	-5.503541e+00
2.007480e+01	-5.539955e+00
2.019076e+01	-5.575925e+00
2.030738e+01	-5.612090e+00
2.042467e+01	-5.648211e+00
2.054264e+01	-5.684726e+00
2.066130e+01	-5.721498e+00
2.078064e+01	-5.757958e+00
2.090066e+01	-5.794919e+00
2.102139e+01	-5.831347e+00
2.114280e+01	-5.868372e+00
2.126492e+01	-5.905915e+00
2.138775e+01	-5.943151e+00
2.151128e+01	-5.980331e+00
2.163553e+01	-6.017997e+00
2.176050e+01	-6.055483e+00
2.188619e+01	-6.093156e+00
2.201260e+01	-6.130818e+00
2.213974e+01	-6.169020e+00
2.226762e+01	-6.206872e+00
2.239624e+01	-6.244996e+00
2.252560e+01	-6.283154e+00
2.265571e+01	-6.321323e+00
2.278656e+01	-6.359841e+00
2.291818e+01	-6.398292e+00
2.305055e+01	-6.437018e+00
2.318369e+01	-6.475591e+00
2.331760e+01	-6.514631e+00
2.345228e+01	-6.553633e+00
2.358774e+01	-6.592507e+00
2.372398e+01	-6.631406e+00
2.386101e+01	-6.670404e+00
2.399883e+01	-6.710093e+00
2.413745e+01	-6.749438e+00
2.427686e+01	-6.789237e+00
2.441709e+01	-6.828359e+00
2.455812e+01	-6.868228e+00
2.469997e+01	-6.907920e+00
2.484263e+01	-6.948177e+00
2.498612e+01	-6.988019e+00
2.513044e+01	-7.027578e+00
2.527559e+01	-7.067939e+00
2.542158e+01	-7.108383e+00
2.556842e+01	-7.148329e+00
2.571610e+01	-7.189215e+00
2.586463e+01	-7.229490e+00
2.601403e+01	-7.270256e+00
2.616428e+01	-7.310781e+00
2.631541e+01	-7.351919e+00
2.646740e+01	-7.392547e+00
2.662028e+01	-7.433859e+00
2.677404e+01	-7.474273e+00
2.692868e+01	-7.515498e+00
2.708422e+01	-7.556545e+00
2.724066e+01	-7.598102e+00
2.739800e+01	-7.639386e+00
2.755625e+01	-7.680938e+00
2.771541e+01	-7.721970e+00
2.787550e+01	-7.764478e+00
2.803650e+01	-7.805645e+00
2.819844e+01	-7.847774e+00
2.836131e+01	-7.889240e+00
2.852513e+01	-7.931218e+00
2.868989e+01	-7.973190e+00
2.885560e+01	-8.015254e+00
2.902227e+01	-8.057779e+00
2.918990e+01	-8.099851e+00
2.935850e+01	-8.141658e+00
2.952807e+01	-8.184778e+00
2.969863e+01	-8.227730e+00
2.987016e+01	-8.269200e+00
3.004269e+01	-8.311977e+00
3.021622e+01	-8.354811e+00
3.039075e+01	-8.397460e+00
3.056628e+01	-8.440055e+00
3.074283e+01	-8.482681e+00
3.092040e+01	-8.526638e+00
3.109900e+01	-8.569100e+00
3.127862e+01	-8.612161e+00
3.145929e+01	-8.655502e+00
3.164099e+01	-8.698796e+00
3.182375e+01	-8.742188e+00
3.200756e+01	-8.785304e+00
3.219244e+01	-8.828984e+00
3.237838e+01	-8.872385e+00
3.256540e+01	-8.916220e+00
3.275349e+01	-8.960065e+00
3.294268e+01	-9.003208e+00
3.313295e+01	-9.047582e+00
3.332433e+01	-9.091065e+00
3.351681e+01	-9.134875e+00
3.371040e+01	-9.179074e+00
3.390511e+01	-9.222974e+00
3.410094e+01	-9.266455e+00
3.429791e+01	-9.311174e+00
3.449601e+01	-9.355180e+00
3.469526e+01	-9.399270e+00
3.489566e+01	-9.443847e+00
3.509721e+01	-9.488034e+00
3.529993e+01	-9.532424e+00
3.550382e+01	-9.577413e+00
3.570889e+01	-9.621757e+00
3.591515e+01	-9.666063e+00
3.612259e+01	-9.710565e+00
3.633123e+01	-9.755555e+00
3.654108e+01	-9.800370e+00
3.675214e+01	-9.844606e+00
3.696442e+01	-9.889800e+00
3.717792e+01	-9.934888e+00
3.739266e+01	-9.979913e+00
3.760864e+01	-1.002483e+01
3.782587e+01	-1.007009e+01
3.804435e+01	-1.011498e+01
3.826409e+01	-1.015992e+01
3.848510e+01	-1.020542e+01
3.870739e+01	-1.025147e+01
3.893096e+01	-1.029622e+01
3.915583e+01	-1.034207e+01
3.938199e+01	-1.038715e+01
3.960946e+01	-1.043277e+01
3.983824e+01	-1.047798e+01
4.006834e+01	-1.052314e+01
4.029978e+01	-1.056937e+01
4.053255e+01	-1.061440e+01
4.076666e+01	-1.066061e+01
4.100213e+01	-1.070623e+01
4.123896e+01	-1.075202e+01
4.147715e+01	-1.079798e+01
4.171672e+01	-1.084357e+01
4.195767e+01	-1.088978e+01
4.220002e+01	-1.093630e+01
4.244377e+01	-1.098221e+01
4.268892e+01	-1.102785e+01
4.293549e+01	-1.107355e+01
4.318348e+01	-1.111967e+01
4.343291e+01	-1.116590e+01
4.368377e+01	-1.121270e+01
4.393609e+01	-1.125835e+01
4.418986e+01	-1.130478e+01
4.444510e+01	-1.135133e+01
4.470182e+01	-1.139769e+01
4.496001e+01	-1.144396e+01
4.521970e+01	-1.149075e+01
4.548089e+01	-1.153685e+01
4.574358e+01	-1.158364e+01
4.600779e+01	-1.163033e+01
4.627353e+01	-1.167672e+01
4.654081e+01	-1.172266e+01
4.680963e+01	-1.176961e+01
4.708000e+01	-1.181732e+01
4.735193e+01	-1.186337e+01
4.762543e+01	-1.191020e+01
4.790051e+01	-1.195754e+01
4.817719e+01	-1.200353e+01
4.845545e+01	-1.205032e+01
4.873533e+01	-1.209876e+01
4.901682e+01	-1.214508e+01
4.929994e+01	-1.219243e+01
4.958470e+01	-1.223847e+01
4.987110e+01	-1.228556e+01
5.015915e+01	-1.233324e+01
5.044887e+01	-1.238049e+01
5.074026e+01	-1.242723e+01
5.103333e+01	-1.247413e+01
5.132810e+01	-1.252172e+01
5.162457e+01	-1.256874e+01
5.192275e+01	-1.261600e+01
5.222265e+01	-1.266354e+01
5.252429e+01	-1.271030e+01
5.282767e+01	-1.275801e+01
5.313280e+01	-1.280568e+01
5.343969e+01	-1.285311e+01
5.374836e+01	-1.290082e+01
5.405880e+01	-1.294848e+01
5.437105e+01	-1.299580e+01
5.468509e+01	-1.304299e+01
5.500095e+01	-1.309053e+01
5.531863e+01	-1.313771e+01
5.563815e+01	-1.318583e+01
5.595951e+01	-1.323341e+01
5.628273e+01	-1.328056e+01
5.660782e+01	-1.332812e+01
5.693479e+01	-1.337622e+01
5.726364e+01	-1.342447e+01
5.759439e+01	-1.347180e+01
5.792705e+01	-1.351951e+01
5.826164e+01	-1.356752e+01
5.859815e+01	-1.361566e+01
5.893662e+01	-1.366354e+01
5.927703e+01	-1.371202e+01
5.961941e+01	-1.376008e+01
5.996377e+01	-1.380720e+01
6.031012e+01	-1.385521e+01
6.065847e+01	-1.390310e+01
6.100883e+01	-1.395065e+01
6.136121e+01	-1.399919e+01
6.171563e+01	-1.404703e+01
6.207210e+01	-1.409525e+01
6.243063e+01	-1.414274e+01
6.279122e+01	-1.419089e+01
6.315390e+01	-1.423922e+01
6.351868e+01	-1.428712e+01
6.388556e+01	-1.433565e+01
6.425456e+01	-1.438337e+01
6.462569e+01	-1.443241e+01
6.499897e+01	-1.448038e+01
6.537440e+01	-1.452910e+01
6.575200e+01	-1.457696e+01
6.613178e+01	-1.462503e+01
6.651375e+01	-1.467417e+01
6.689793e+01	-1.472085e+01
6.728433e+01	-1.477051e+01
6.767297e+01	-1.481865e+01
6.806384e+01	-1.486708e+01
6.845698e+01	-1.491583e+01
6.885238e+01	-1.496375e+01
6.925007e+01	-1.501242e+01
6.965005e+01	-1.506108e+01
7.005235e+01	-1.510946e+01
7.045697e+01	-1.515736e+01
7.086393e+01	-1.520610e+01
7.127323e+01	-1.525454e+01
7.168490e+01	-1.530383e+01
7.209895e+01	-1.535165e+01
7.251539e+01	-1.540065e+01
7.293424e+01	-1.544778e+01
7.335551e+01	-1.549876e+01
7.377920e+01	-1.554514e+01
7.420535e+01	-1.559460e+01
7.463396e+01	-1.564362e+01
7.506504e+01	-1.569193e+01
7.549861e+01	-1.574061e+01
7.593469e+01	-1.578989e+01
7.637328e+01	-1.583792e+01
7.681441e+01	-1.588684e+01
7.725809e+01	-1.593606e+01
7.770433e+01	-1.598426e+01
7.815315e+01	-1.603289e+01
7.860456e+01	-1.608208e+01
7.905857e+01	-1.613054e+01
7.951521e+01	-1.617948e+01
7.997449e+01	-1.622853e+01
8.043642e+01	-1.627687e+01
8.090102e+01	-1.632602e+01
8.136830e+01	-1.637580e+01
8.183828e+01	-1.642459e+01
8.231097e+01	-1.647224e+01
8.278640e+01	-1.652289e+01
8.326457e+01	-1.656993e+01
8.374550e+01	-1.661941e+01
8.422921e+01	-1.666839e+01
8.471572e+01	-1.671744e+01
8.520503e+01	-1.676619e+01
8.569717e+01	-1.681536e+01
8.619215e+01	-1.686494e+01
8.669000e+01	-1.691229e+01
8.719071e+01	-1.696311e+01
8.769432e+01	-1.701204e+01
8.820084e+01	-1.706086e+01
8.871029e+01	-1.710993e+01
8.922267e+01	-1.715945e+01
8.973802e+01	-1.720721e+01
9.025634e+01	-1.725624e+01
9.077766e+01	-1.730550e+01
9.130199e+01	-1.735582e+01
9.182935e+01	-1.740394e+01
9.235975e+01	-1.745231e+01
9.289321e+01	-1.750226e+01
9.342976e+01	-1.755152e+01
9.396941e+01	-1.759994e+01
9.451217e+01	-1.764904e+01
9.505807e+01	-1.769898e+01
9.560712e+01	-1.774812e+01
9.615934e+01	-1.779737e+01
9.671476e+01	-1.784627e+01
9.727338e+01	-1.789634e+01
9.783522e+01	-1.794617e+01
9.840032e+01	-1.799490e+01
9.896867e+01	-1.804358e+01
9.954031e+01	-1.809174e+01
1.001153e+02	-1.814245e+01
1.006935e+02	-1.819154e+01
1.012751e+02	-1.824001e+01
1.018601e+02	-1.829084e+01
1.024484e+02	-1.833867e+01
1.030402e+02	-1.838909e+01
1.036353e+02	-1.843675e+01
1.042339e+02	-1.848740e+01
1.048360e+02	-1.853667e+01
1.054415e+02	-1.858463e+01
1.060505e+02	-1.863451e+01
1.066631e+02	-1.868378e+01
1.072791e+02	-1.873338e+01
1.078988e+02	-1.878388e+01
1.085220e+02	-1.883228e+01
1.091488e+02	-1.888390e+01
1.097793e+02	-1.893126e+01
1.104133e+02	-1.898217e+01
1.110511e+02	-1.903075e+01
1.116925e+02	-1.908024e+01
1.123376e+02	-1.912839e+01
1.129865e+02	-1.917791e+01
1.136391e+02	-1.922822e+01
1.142955e+02	-1.927700e+01
1.149556e+02	-1.932679e+01
1.156196e+02	-1.937524e+01
1.162874e+02	-1.942636e+01
1.169591e+02	-1.947395e+01
1.176347e+02	-1.952374e+01
1.183141e+02	-1.957401e+01
1.189975e+02	-1.962312e+01
1.196848e+02	-1.967319e+01
1.203761e+02	-1.972439e+01
1.210714e+02	-1.977018e+01
1.217707e+02	-1.982212e+01
1.224740e+02	-1.987076e+01
1.231814e+02	-1.992178e+01
1.238929e+02	-1.996963e+01
1.246085e+02	-2.002114e+01
1.253283e+02	-2.007036e+01
1.260522e+02	-2.012009e+01
1.267802e+02	-2.016898e+01
1.275125e+02	-2.021806e+01
1.282490e+02	-2.026917e+01
1.289898e+02	-2.031869e+01
1.297348e+02	-2.036706e+01
1.304842e+02	-2.041443e+01
1.312378e+02	-2.046423e+01
1.319959e+02	-2.051523e+01
1.327583e+02	-2.056669e+01
1.335251e+02	-2.061452e+01
1.342963e+02	-2.066322e+01
1.350720e+02	-2.071445e+01
1.358522e+02	-2.076465e+01
1.366368e+02	-2.081342e+01
1.374260e+02	-2.086224e+01
1.382198e+02	-2.091285e+01
1.390182e+02	-2.096372e+01
1.398211e+02	-2.100993e+01
1.406287e+02	-2.106170e+01
1.414410e+02	-2.111163e+01
1.422579e+02	-2.115988e+01
1.430796e+02	-2.121035e+01
1.439060e+02	-2.126112e+01
1.447372e+02	-2.130868e+01
1.455732e+02	-2.136042e+01
1.464141e+02	-2.140714e+01
1.472597e+02	-2.145963e+01
1.481103e+02	-2.150793e+01
1.489658e+02	-2.155829e+01
1.498262e+02	-2.160577e+01
1.506916e+02	-2.165613e+01
1.515620e+02	-2.170653e+01
1.524374e+02	-2.175635e+01
1.533179e+02	-2.180773e+01
1.542034e+02	-2.185738e+01
1.550941e+02	-2.190516e+01
1.559899e+02	-2.195322e+01
1.568909e+02	-2.200750e+01
1.577971e+02	-2.205545e+01
1.587085e+02	-2.210381e+01
1.596252e+02	-2.215473e+01
1.605472e+02	-2.220582e+01
1.614745e+02	-2.225338e+01
1.624072e+02	-2.230359e+01
1.633453e+02	-2.235260e+01
1.642887e+02	-2.240397e+01
1.652377e+02	-2.245648e+01
1.661921e+02	-2.250371e+01
1.671520e+02	-2.255206e+01
1.681175e+02	-2.260310e+01
1.690885e+02	-2.265321e+01
1.700651e+02	-2.270149e+01
1.710474e+02	-2.275298e+01
1.720354e+02	-2.280357e+01
1.730291e+02	-2.285068e+01
1.740285e+02	-2.290035e+01
1.750337e+02	-2.294924e+01
1.760446e+02	-2.299955e+01
1.770615e+02	-2.305198e+01
1.780842e+02	-2.309903e+01
1.791128e+02	-2.315085e+01
1.801473e+02	-2.319898e+01
1.811878e+02	-2.324747e+01
1.822344e+02	-2.330121e+01
1.832870e+02	-2.334904e+01
1.843456e+02	-2.339788e+01
1.854104e+02	-2.344943e+01
1.864813e+02	-2.349898e+01
1.875584e+02	-2.354908e+01
1.886418e+02	-2.359786e+01
1.897313e+02	-2.364925e+01
1.908272e+02	-2.369794e+01
1.919294e+02	-2.374676e+01
1.930380e+02	-2.379763e+01
1.941530e+02	-2.384881e+01
1.952744e+02	-2.389753e+01
1.964023e+02	-2.395024e+01
1.975367e+02	-2.399633e+01
1.986777e+02	-2.404774e+01
1.998252e+02	-2.409993e+01
2.009794e+02	-2.414528e+01
2.021403e+02	-2.419710e+01
2.033078e+02	-2.424686e+01
2.044821e+02	-2.429742e+01
2.056632e+02	-2.434623e+01
2.068511e+02	-2.439776e+01
2.080459e+02	-2.444520e+01
2.092475e+02	-2.449922e+01
2.104561e+02	-2.454782e+01
2.116717e+02	-2.459691e+01
2.128943e+02	-2.464250e+01
2.141240e+02	-2.469565e+01
2.153608e+02	-2.474511e+01
2.166047e+02	-2.479602e+01
2.178558e+02	-2.484826e+01
2.191141e+02	-2.489572e+01
2.203797e+02	-2.494441e+01
2.216526e+02	-2.499629e+01
2.229329e+02	-2.504441e+01
2.242205e+02	-2.509663e+01
2.255156e+02	-2.514262e+01
2.268182e+02	-2.519499e+01
2.281283e+02	-2.524584e+01
2.294459e+02	-2.529491e+01
2.307712e+02	-2.534364e+01
2.321041e+02	-2.539449e+01
2.334447e+02	-2.544441e+01
2.347931e+02	-2.549382e+01
2.361493e+02	-2.554531e+01
2.375133e+02	-2.559515e+01
2.388851e+02	-2.564466e+01
2.402649e+02	-2.569205e+01
2.416527e+02	-2.574646e+01
2.430484e+02	-2.579297e+01
2.444523e+02	-2.584558e+01
2.458642e+02	-2.589330e+01
2.472843e+02	-2.594615e+01
2.487126e+02	-2.599374e+01
2.501492e+02	-2.604145e+01
2.515940e+02	-2.609432e+01
2.530472e+02	-2.614236e+01
2.545088e+02	-2.619489e+01
2.559789e+02	-2.624476e+01
2.574574e+02	-2.629394e+01
2.589444e+02	-2.634113e+01
2.604401e+02	-2.638895e+01
2.619444e+02	-2.644526e+01
2.634574e+02	-2.649504e+01
2.649791e+02	-2.654746e+01
2.665096e+02	-2.659685e+01
2.680489e+02	-2.664348e+01
2.695972e+02	-2.669374e+01
2.711544e+02	-2.674059e+01
2.727205e+02	-2.679455e+01
2.742958e+02	-2.684455e+01
2.758801e+02	-2.689453e+01
2.774736e+02	-2.694034e+01
2.790762e+02	-2.699378e+01
2.806882e+02	-2.703974e+01
2.823094e+02	-2.709694e+01
2.839400e+02	-2.714529e+01
2.855800e+02	-2.719274e+01
2.872295e+02	-2.724214e+01
2.888886e+02	-2.729506e+01
2.905572e+02	-2.734364e+01
2.922354e+02	-2.739742e+01
2.939234e+02	-2.744796e+01
2.956211e+02	-2.749255e+01
2.973286e+02	-2.754203e+01
2.990459e+02	-2.759157e+01
3.007732e+02	-2.763976e+01
3.025104e+02	-2.769160e+01
3.042577e+02	-2.774401e+01
3.060151e+02	-2.779592e+01
3.077826e+02	-2.784330e+01
3.095604e+02	-2.789580e+01
3.113484e+02	-2.794427e+01
3.131467e+02	-2.799165e+01
3.149554e+02	-2.804776e+01
3.167746e+02	-2.809184e+01
3.186043e+02	-2.814314e+01
3.204445e+02	-2.819604e+01
3.222954e+02	-2.824094e+01
3.241570e+02	-2.829683e+01
3.260293e+02	-2.834585e+01
3.279124e+02	-2.839504e+01
3.298064e+02	-2.844223e+01
3.317114e+02	-2.849724e+01
3.336273e+02	-2.854098e+01
3.355544e+02	-2.859308e+01
3.374925e+02	-2.864502e+01
3.394418e+02	-2.869250e+01
3.414024e+02	-2.874202e+01
3.433744e+02	-2.878997e+01
3.453577e+02	-2.884427e+01
3.473525e+02	-2.889098e+01
3.493588e+02	-2.894817e+01
3.513766e+02	-2.899426e+01
3.534062e+02	-2.904482e+01
3.554474e+02	-2.909208e+01
3.575005e+02	-2.914183e+01
3.595654e+02	-2.919761e+01
3.616422e+02	-2.924302e+01
3.637311e+02	-2.929637e+01
3.658320e+02	-2.934360e+01
3.679450e+02	-2.939438e+01
3.700702e+02	-2.944573e+01
3.722077e+02	-2.949739e+01
3.743576e+02	-2.954577e+01
3.765199e+02	-2.959552e+01
3.786946e+02	-2.964175e+01
3.808820e+02	-2.969323e+01
3.830819e+02	-2.974289e+01
3.852946e+02	-2.979470e+01
3.875200e+02	-2.984643e+01
3.897583e+02	-2.989718e+01
3.920096e+02	-2.994402e+01
3.942738e+02	-2.999453e+01
3.965511e+02	-3.004558e+01
3.988416e+02	-3.009813e+01
4.011452e+02	-3.014803e+01
4.034622e+02	-3.019520e+01
4.057926e+02	-3.024550e+01
4.081365e+02	-3.029495e+01
4.104938e+02	-3.034545e+01
4.128648e+02	-3.039255e+01
4.152495e+02	-3.045077e+01
4.176480e+02	-3.049745e+01
4.200603e+02	-3.054915e+01
4.224866e+02	-3.059943e+01
4.249268e+02	-3.064742e+01
4.273812e+02	-3.069778e+01
4.298497e+02	-3.074206e+01
4.323325e+02	-3.080062e+01
4.348297e+02	-3.084866e+01
4.373412e+02	-3.089919e+01
4.398673e+02	-3.094432e+01
4.424079e+02	-3.099904e+01
4.449633e+02	-3.105219e+01
4.475334e+02	-3.109907e+01
4.501183e+02	-3.114844e+01
4.527182e+02	-3.119893e+01
4.553330e+02	-3.124727e+01
4.579630e+02	-3.129671e+01
4.606082e+02	-3.135160e+01
4.632687e+02	-3.139980e+01
4.659445e+02	-3.144914e+01
4.686358e+02	-3.150175e+01
4.713426e+02	-3.154565e+01
4.740650e+02	-3.159423e+01
4.768032e+02	-3.165011e+01
4.795572e+02	-3.170092e+01
4.823271e+02	-3.175412e+01
4.851130e+02	-3.180060e+01
4.879150e+02	-3.184539e+01
4.907332e+02	-3.190871e+01
4.935676e+02	-3.195707e+01
4.964185e+02	-3.200019e+01
4.992858e+02	-3.205456e+01
5.021696e+02	-3.210135e+01
5.050701e+02	-3.215206e+01
5.079874e+02	-3.219633e+01
5.109215e+02	-3.224703e+01
5.138726e+02	-3.230344e+01
5.168407e+02	-3.235784e+01
5.198259e+02	-3.240526e+01
5.228284e+02	-3.245542e+01
5.258482e+02	-3.250256e+01
5.288855e+02	-3.255771e+01
5.319403e+02	-3.261096e+01
5.350128e+02	-3.265453e+01
5.381030e+02	-3.269710e+01
5.412111e+02	-3.275118e+01
5.443371e+02	-3.280978e+01
5.474812e+02	-3.285667e+01
5.506434e+02	-3.290864e+01
5.538239e+02	-3.295679e+01
5.570228e+02	-3.300605e+01
5.602401e+02	-3.306137e+01
5.634760e+02	-3.310378e+01
5.667306e+02	-3.315875e+01
5.700040e+02	-3.321588e+01
5.732964e+02	-3.326048e+01
5.766077e+02	-3.330565e+01
5.799382e+02	-3.336809e+01
5.832879e+02	-3.341190e+01
5.866569e+02	-3.345915e+01
5.900454e+02	-3.350955e+01
5.934535e+02	-3.355947e+01
5.968813e+02	-3.361285e+01
6.003288e+02	-3.366057e+01
6.037963e+02	-3.371370e+01
6.072838e+02	-3.376044e+01
6.107914e+02	-3.380805e+01
6.143194e+02	-3.386431e+01
6.178676e+02	-3.391567e+01
6.214364e+02	-3.396100e+01
6.250258e+02	-3.401707e+01
6.286359e+02	-3.406580e+01
6.322669e+02	-3.411204e+01
6.359189e+02	-3.416591e+01
6.395919e+02	-3.421890e+01
6.432862e+02	-3.426453e+01
6.470017e+02	-3.431703e+01
6.507388e+02	-3.435380e+01
6.544974e+02	-3.441060e+01
6.582778e+02	-3.446645e+01
6.620800e+02	-3.451548e+01
6.659041e+02	-3.457197e+01
6.697504e+02	-3.461731e+01
6.736188e+02	-3.466902e+01
6.775096e+02	-3.471175e+01
6.814229e+02	-3.476723e+01
6.853587e+02	-3.481916e+01
6.893173e+02	-3.487138e+01
6.932988e+02	-3.491712e+01
6.973033e+02	-3.496287e+01
7.013309e+02	-3.501809e+01
