Frequency(Hz)	Magnitude(dB)
1.000000e+01	-2.297528e+00
1.005776e+01	-2.318089e+00
1.011585e+01	-2.338885e+00
1.017428e+01	-2.359854e+00
1.023305e+01	-2.380995e+00
1.029215e+01	-2.402157e+00
1.035160e+01	-2.423261e+00
1.041139e+01	-2.444709e+00
1.047153e+01	-2.466545e+00
1.053201e+01	-2.488408e+00
1.059284e+01	-2.509974e+00
1.065403e+01	-2.532271e+00
1.071556e+01	-2.554095e+00
1.077746e+01	-2.576480e+00
1.083971e+01	-2.599086e+00
1.090232e+01	-2.621744e+00
1.096529e+01	-2.644445e+00
1.102862e+01	-2.667330e+00
1.109232e+01	-2.690283e+00
1.115639e+01	-2.713371e+00
1.122083e+01	-2.736864e+00
1.128564e+01	-2.760300e+00
1.135083e+01	-2.783845e+00
1.141639e+01	-2.807543e+00
1.148233e+01	-2.831548e+00
1.154865e+01	-2.855314e+00
1.161536e+01	-2.879936e+00
1.168245e+01	-2.904058e+00
1.174992e+01	-2.928679e+00
1.181779e+01	-2.953381e+00
1.188605e+01	-2.977686e+00
1.195470e+01	-3.002879e+00
1.202375e+01	-3.027577e+00
1.209320e+01	-3.052957e+00
1.216305e+01	-3.078024e+00
1.223330e+01	-3.103942e+00
1.230396e+01	-3.129508e+00
1.237503e+01	-3.155323e+00
1.244651e+01	-3.180941e+00
1.251840e+01	-3.207146e+00
1.259070e+01	-3.233563e+00
1.266343e+01	-3.259436e+00
1.273657e+01	-3.286016e+00
1.281014e+01	-3.312604e+00
1.288413e+01	-3.339322e+00
1.295855e+01	-3.366407e+00
1.303339e+01	-3.393550e+00
1.310867e+01	-3.420464e+00
1.318439e+01	-3.447977e+00
1.326054e+01	-3.475483e+00
1.333713e+01	-3.503249e+00
1.341417e+01	-3.531002e+00
1.349165e+01	-3.559087e+00
1.356958e+01	-3.586992e+00
1.364795e+01	-3.615050e+00
1.372678e+01	-3.643431e+00
1.380607e+01	-3.671892e+00
1.388581e+01	-3.700527e+00
1.396602e+01	-3.729135e+00
1.404668e+01	-3.758199e+00
1.412782e+01	-3.786943e+00
1.420942e+01	-3.816469e+00
1.429149e+01	-3.845658e+00
1.437404e+01	-3.874925e+00
1.445706e+01	-3.904453e+00
1.454057e+01	-3.934751e+00
1.462455e+01	-3.964245e+00
1.470902e+01	-3.994534e+00
1.479398e+01	-4.024297e+00
1.487943e+01	-4.054717e+00
1.496537e+01	-4.085550e+00
1.505181e+01	-4.115858e+00
1.513875e+01	-4.146289e+00
1.522619e+01	-4.177145e+00
1.531414e+01	-4.208193e+00
1.540259e+01	-4.239066e+00
1.549156e+01	-4.270585e+00
1.558103e+01	-4.301993e+00
1.567103e+01	-4.333304e+00
1.576155e+01	-4.365116e+00
1.585258e+01	-4.396929e+00
1.594415e+01	-4.428649e+00
1.603624e+01	-4.461142e+00
1.612886e+01	-4.493324e+00
1.622202e+01	-4.525698e+00
1.631572e+01	-4.558038e+00
1.640996e+01	-4.590065e+00
1.650474e+01	-4.623306e+00
1.660008e+01	-4.655992e+00
1.669596e+01	-4.689033e+00
1.679239e+01	-4.722292e+00
1.688938e+01	-4.755208e+00
1.698694e+01	-4.788794e+00
1.708505e+01	-4.822200e+00
1.718373e+01	-4.855600e+00
1.728299e+01	-4.889387e+00
1.738281e+01	-4.923351e+00
1.748322e+01	-4.957400e+00
1.758420e+01	-4.991327e+00
1.768576e+01	-5.025607e+00
1.778792e+01	-5.059880e+00
1.789066e+01	-5.094686e+00
1.799399e+01	-5.129083e+00
1.809793e+01	-5.163616e+00
1.820246e+01	-5.198511e+00
1.830760e+01	-5.233649e+00
1.841334e+01	-5.268875e+00
1.851969e+01	-5.304089e+00
1.862666e+01	-5.339198e+00
1.873425e+01	-5.374931e+00
1.884246e+01	-5.410042e+00
1.895129e+01	-5.446317e+00
1.906075e+01	-5.481602e+00
1.917085e+01	-5.517808e+00
1.928158e+01	-5.554044e+00
1.939295e+01	-5.590087e+00
1.950496e+01	-5.626143e+00
1.961762e+01	-5.662605e+00
1.973093e+01	-5.699188e+00
1.984490e+01	-5.735904e+00
1.995952e+01	-5.772414e+00
2.007480e+01	-5.809390e+00
2.019076e+01	-5.846056e+00
2.030738e+01	-5.883392e+00
2.042467e+01	-5.920535e+00
2.054264e+01	-5.957977e+00
2.066130e+01	-5.995186e+00
2.078064e+01	-6.032682e+00
2.090066e+01	-6.070212e+00
2.102139e+01	-6.108028e+00
2.114280e+01	-6.145448e+00
2.126492e+01	-6.183758e+00
2.138775e+01	-6.221698e+00
2.151128e+01	-6.260035e+00
2.163553e+01	-6.298550e+00
2.176050e+01	-6.336635e+00
2.188619e+01	-6.374794e+00
2.201260e+01	-6.413218e+00
2.213974e+01	-6.452005e+00
2.226762e+01	-6.490955e+00
2.239624e+01	-6.529676e+00
2.252560e+01	-6.568871e+00
2.265571e+01	-6.607598e+00
2.278656e+01	-6.646788e+00
2.291818e+01	-6.686514e+00
2.305055e+01	-6.725491e+00
2.318369e+01	-6.764939e+00
2.331760e+01	-6.804224e+00
2.345228e+01	-6.844134e+00
2.358774e+01	-6.884017e+00
2.372398e+01	-6.923417e+00
2.386101e+01	-6.963482e+00
2.399883e+01	-7.003505e+00
2.413745e+01	-7.043281e+00
2.427686e+01	-7.083838e+00
2.441709e+01	-7.124030e+00
2.455812e+01	-7.164596e+00
2.469997e+01	-7.204874e+00
2.484263e+01	-7.245463e+00
2.498612e+01	-7.285880e+00
2.513044e+01	-7.326799e+00
2.527559e+01	-7.367862e+00
2.542158e+01	-7.408560e+00
2.556842e+01	-7.449371e+00
2.571610e+01	-7.490739e+00
2.586463e+01	-7.531915e+00
2.601403e+01	-7.572887e+00
2.616428e+01	-7.614228e+00
2.631541e+01	-7.655781e+00
2.646740e+01	-7.697401e+00
2.662028e+01	-7.738391e+00
2.677404e+01	-7.780646e+00
2.692868e+01	-7.822469e+00
2.708422e+01	-7.863878e+00
2.724066e+01	-7.905747e+00
2.739800e+01	-7.947867e+00
2.755625e+01	-7.989889e+00
2.771541e+01	-8.031828e+00
2.787550e+01	-8.074318e+00
2.803650e+01	-8.115735e+00
2.819844e+01	-8.158848e+00
2.836131e+01	-8.201159e+00
2.852513e+01	-8.243688e+00
2.868989e+01	-8.286454e+00
2.885560e+01	-8.328918e+00
2.902227e+01	-8.371887e+00
2.918990e+01	-8.414331e+00
2.935850e+01	-8.457189e+00
2.952807e+01	-8.500041e+00
2.969863e+01	-8.543238e+00
2.987016e+01	-8.586406e+00
3.004269e+01	-8.629351e+00
3.021622e+01	-8.672940e+00
3.039075e+01	-8.715800e+00
3.056628e+01	-8.758935e+00
3.074283e+01	-8.802893e+00
3.092040e+01	-8.845969e+00
3.109900e+01	-8.889566e+00
3.127862e+01	-8.933450e+00
3.145929e+01	-8.976768e+00
3.164099e+01	-9.020162e+00
3.182375e+01	-9.064368e+00
3.200756e+01	-9.108360e+00
3.219244e+01	-9.152061e+00
3.237838e+01	-9.196411e+00
3.256540e+01	-9.240007e+00
3.275349e+01	-9.283941e+00
3.294268e+01	-9.327964e+00
3.313295e+01	-9.372440e+00
3.332433e+01	-9.416483e+00
3.351681e+01	-9.461198e+00
3.371040e+01	-9.505784e+00
3.390511e+01	-9.549853e+00
3.410094e+01	-9.594259e+00
3.429791e+01	-9.639622e+00
3.449601e+01	-9.684468e+00
3.469526e+01	-9.729107e+00
3.489566e+01	-9.773357e+00
3.509721e+01	-9.818170e+00
3.529993e+01	-9.862346e+00
3.550382e+01	-9.907332e+00
3.570889e+01	-9.952562e+00
3.591515e+01	-9.997383e+00
3.612259e+01	-1.004264e+01
3.633123e+01	-1.008798e+01
3.654108e+01	-1.013223e+01
3.675214e+01	-1.017777e+01
3.696442e+01	-1.022330e+01
3.717792e+01	-1.026864e+01
3.739266e+01	-1.031380e+01
3.760864e+01	-1.035940e+01
3.782587e+01	-1.040472e+01
3.804435e+01	-1.044935e+01
3.826409e+01	-1.049629e+01
3.848510e+01	-1.054162e+01
3.870739e+01	-1.058691e+01
3.893096e+01	-1.063245e+01
3.915583e+01	-1.067844e+01
3.938199e+01	-1.072444e+01
3.960946e+01	-1.077044e+01
3.983824e+01	-1.081582e+01
4.006834e+01	-1.086180e+01
4.029978e+01	-1.090804e+01
4.053255e+01	-1.095392e+01
4.076666e+01	-1.099925e+01
4.100213e+01	-1.104647e+01
4.123896e+01	-1.109180e+01
4.147715e+01	-1.113885e+01
4.171672e+01	-1.118386e+01
4.195767e+01	-1.123049e+01
4.220002e+01	-1.127688e+01
4.244377e+01	-1.132297e+01
4.268892e+01	-1.136943e+01
4.293549e+01	-1.141603e+01
4.318348e+01	-1.146277e+01
4.343291e+01	-1.150906e+01
4.368377e+01	-1.155548e+01
4.393609e+01	-1.160161e+01
4.418986e+01	-1.164865e+01
4.444510e+01	-1.169527e+01
4.470182e+01	-1.174137e+01
4.496001e+01	-1.178848e+01
4.521970e+01	-1.183535e+01
4.548089e+01	-1.188189e+01
4.574358e+01	-1.192924e+01
4.600779e+01	-1.197594e+01
4.627353e+01	-1.202229e+01
4.654081e+01	-1.206950e+01
4.680963e+01	-1.211679e+01
4.708000e+01	-1.216303e+01
4.735193e+01	-1.221012e+01
4.762543e+01	-1.225740e+01
4.790051e+01	-1.230375e+01
4.817719e+01	-1.235116e+01
4.845545e+01	-1.239820e+01
4.873533e+01	-1.244524e+01
4.901682e+01	-1.249307e+01
4.929994e+01	-1.253999e+01
4.958470e+01	-1.258738e+01
4.987110e+01	-1.263443e+01
5.015915e+01	-1.268157e+01
5.044887e+01	-1.272936e+01
5.074026e+01	-1.277648e+01
5.103333e+01	-1.282422e+01
5.132810e+01	-1.287184e+01
5.162457e+01	-1.291942e+01
5.192275e+01	-1.296700e+01
5.222265e+01	-1.301469e+01
5.252429e+01	-1.306151e+01
5.282767e+01	-1.310915e+01
5.313280e+01	-1.315681e+01
5.343969e+01	-1.320471e+01
5.374836e+01	-1.325217e+01
5.405880e+01	-1.329984e+01
5.437105e+01	-1.334730e+01
5.468509e+01	-1.339447e+01
5.500095e+01	-1.344291e+01
5.531863e+01	-1.349040e+01
5.563815e+01	-1.353873e+01
5.595951e+01	-1.358643e+01
5.628273e+01	-1.363430e+01
5.660782e+01	-1.368210e+01
5.693479e+01	-1.373025e+01
5.726364e+01	-1.377783e+01
5.759439e+01	-1.382688e+01
5.792705e+01	-1.387389e+01
5.826164e+01	-1.392261e+01
5.859815e+01	-1.397011e+01
5.893662e+01	-1.401805e+01
5.927703e+01	-1.406539e+01
5.961941e+01	-1.411428e+01
5.996377e+01	-1.416171e+01
6.031012e+01	-1.421002e+01
6.065847e+01	-1.425787e+01
6.100883e+01	-1.430585e+01
6.136121e+01	-1.435510e+01
6.171563e+01	-1.440328e+01
6.207210e+01	-1.445021e+01
6.243063e+01	-1.449890e+01
6.279122e+01	-1.454817e+01
6.315390e+01	-1.459597e+01
6.351868e+01	-1.464357e+01
6.388556e+01	-1.469225e+01
6.425456e+01	-1.474131e+01
6.462569e+01	-1.478905e+01
6.499897e+01	-1.483791e+01
6.537440e+01	-1.488584e+01
6.575200e+01	-1.493420e+01
6.613178e+01	-1.498271e+01
6.651375e+01	-1.503192e+01
6.689793e+01	-1.507906e+01
6.728433e+01	-1.512867e+01
6.767297e+01	-1.517642e+01
6.806384e+01	-1.522468e+01
6.845698e+01	-1.527328e+01
6.885238e+01	-1.532158e+01
6.925007e+01	-1.537127e+01
6.965005e+01	-1.541956e+01
7.005235e+01	-1.546812e+01
7.045697e+01	-1.551619e+01
7.086393e+01	-1.556579e+01
7.127323e+01	-1.561469e+01
7.168490e+01	-1.566261e+01
7.209895e+01	-1.571129e+01
7.251539e+01	-1.575974e+01
7.293424e+01	-1.580893e+01
7.335551e+01	-1.585647e+01
7.377920e+01	-1.590546e+01
7.420535e+01	-1.595439e+01
7.463396e+01	-1.600333e+01
7.506504e+01	-1.605250e+01
7.549861e+01	-1.610126e+01
7.593469e+01	-1.614964e+01
7.637328e+01	-1.619860e+01
7.681441e+01	-1.624735e+01
7.725809e+01	-1.629643e+01
7.770433e+01	-1.634574e+01
7.815315e+01	-1.639396e+01
7.860456e+01	-1.644214e+01
7.905857e+01	-1.649230e+01
7.951521e+01	-1.654134e+01
7.997449e+01	-1.658991e+01
8.043642e+01	-1.663907e+01
8.090102e+01	-1.668675e+01
8.136830e+01	-1.673807e+01
8.183828e+01	-1.678568e+01
8.231097e+01	-1.683508e+01
8.278640e+01	-1.688288e+01
8.326457e+01	-1.693333e+01
8.374550e+01	-1.698257e+01
8.422921e+01	-1.703058e+01
8.471572e+01	-1.707968e+01
8.520503e+01	-1.712846e+01
8.569717e+01	-1.717859e+01
8.619215e+01	-1.722669e+01
8.669000e+01	-1.727539e+01
8.719071e+01	-1.732500e+01
8.769432e+01	-1.737373e+01
8.820084e+01	-1.742173e+01
8.871029e+01	-1.747227e+01
8.922267e+01	-1.752075e+01
8.973802e+01	-1.757009e+01
9.025634e+01	-1.762081e+01
9.077766e+01	-1.766945e+01
9.130199e+01	-1.771798e+01
9.182935e+01	-1.776648e+01
9.235975e+01	-1.781697e+01
9.289321e+01	-1.786508e+01
9.342976e+01	-1.791404e+01
9.396941e+01	-1.796386e+01
9.451217e+01	-1.801292e+01
9.505807e+01	-1.806193e+01
9.560712e+01	-1.811184e+01
9.615934e+01	-1.816114e+01
9.671476e+01	-1.820991e+01
9.727338e+01	-1.826163e+01
9.783522e+01	-1.830972e+01
9.840032e+01	-1.835895e+01
9.896867e+01	-1.840782e+01
9.954031e+01	-1.845755e+01
1.001153e+02	-1.850769e+01
1.006935e+02	-1.855616e+01
1.012751e+02	-1.860571e+01
1.018601e+02	-1.865422e+01
1.024484e+02	-1.870394e+01
1.030402e+02	-1.875267e+01
1.036353e+02	-1.880237e+01
1.042339e+02	-1.885148e+01
1.048360e+02	-1.890136e+01
1.054415e+02	-1.895031e+01
1.060505e+02	-1.900029e+01
1.066631e+02	-1.905133e+01
1.072791e+02	-1.909900e+01
1.078988e+02	-1.914857e+01
1.085220e+02	-1.919750e+01
1.091488e+02	-1.924690e+01
1.097793e+02	-1.929725e+01
1.104133e+02	-1.934565e+01
1.110511e+02	-1.939473e+01
1.116925e+02	-1.944643e+01
1.123376e+02	-1.949601e+01
1.129865e+02	-1.954516e+01
1.136391e+02	-1.959343e+01
1.142955e+02	-1.964283e+01
1.149556e+02	-1.969270e+01
1.156196e+02	-1.974283e+01
1.162874e+02	-1.979170e+01
1.169591e+02	-1.984144e+01
1.176347e+02	-1.989088e+01
1.183141e+02	-1.993887e+01
1.189975e+02	-1.998904e+01
1.196848e+02	-2.003893e+01
1.203761e+02	-2.009027e+01
1.210714e+02	-2.014096e+01
1.217707e+02	-2.018701e+01
1.224740e+02	-2.023652e+01
1.231814e+02	-2.028695e+01
1.238929e+02	-2.033859e+01
1.246085e+02	-2.038616e+01
1.253283e+02	-2.043540e+01
1.260522e+02	-2.048651e+01
1.267802e+02	-2.053691e+01
1.275125e+02	-2.058400e+01
1.282490e+02	-2.063333e+01
1.289898e+02	-2.068232e+01
1.297348e+02	-2.073438e+01
1.304842e+02	-2.078346e+01
1.312378e+02	-2.083421e+01
1.319959e+02	-2.088293e+01
1.327583e+02	-2.093142e+01
1.335251e+02	-2.098094e+01
1.342963e+02	-2.103173e+01
1.350720e+02	-2.108001e+01
1.358522e+02	-2.113082e+01
1.366368e+02	-2.117931e+01
1.374260e+02	-2.122958e+01
1.382198e+02	-2.127936e+01
1.390182e+02	-2.132818e+01
1.398211e+02	-2.137772e+01
1.406287e+02	-2.142890e+01
1.414410e+02	-2.147730e+01
1.422579e+02	-2.152713e+01
1.430796e+02	-2.157652e+01
1.439060e+02	-2.162651e+01
1.447372e+02	-2.167557e+01
1.455732e+02	-2.172576e+01
1.464141e+02	-2.177614e+01
1.472597e+02	-2.182666e+01
1.481103e+02	-2.187667e+01
1.489658e+02	-2.192459e+01
1.498262e+02	-2.197469e+01
1.506916e+02	-2.202662e+01
1.515620e+02	-2.207366e+01
1.524374e+02	-2.212354e+01
1.533179e+02	-2.217391e+01
1.542034e+02	-2.222241e+01
1.550941e+02	-2.227459e+01
1.559899e+02	-2.232431e+01
1.568909e+02	-2.237253e+01
1.577971e+02	-2.242368e+01
1.587085e+02	-2.247347e+01
1.596252e+02	-2.252179e+01
1.605472e+02	-2.257043e+01
1.614745e+02	-2.262491e+01
1.624072e+02	-2.267273e+01
1.633453e+02	-2.272056e+01
1.642887e+02	-2.277138e+01
1.652377e+02	-2.281909e+01
1.661921e+02	-2.287085e+01
1.671520e+02	-2.292065e+01
1.681175e+02	-2.296985e+01
1.690885e+02	-2.302016e+01
1.700651e+02	-2.307083e+01
1.710474e+02	-2.311695e+01
1.720354e+02	-2.317027e+01
1.730291e+02	-2.322180e+01
1.740285e+02	-2.326933e+01
1.750337e+02	-2.331538e+01
1.760446e+02	-2.336945e+01
1.770615e+02	-2.341730e+01
1.780842e+02	-2.346995e+01
1.791128e+02	-2.352058e+01
1.801473e+02	-2.356709e+01
1.811878e+02	-2.361650e+01
1.822344e+02	-2.366755e+01
1.832870e+02	-2.371767e+01
1.843456e+02	-2.377053e+01
1.854104e+02	-2.381680e+01
1.864813e+02	-2.386896e+01
1.875584e+02	-2.391667e+01
1.886418e+02	-2.396544e+01
1.897313e+02	-2.401543e+01
1.908272e+02	-2.406701e+01
1.919294e+02	-2.411716e+01
1.930380e+02	-2.416720e+01
1.941530e+02	-2.421941e+01
1.952744e+02	-2.426832e+01
1.964023e+02	-2.431597e+01
1.975367e+02	-2.436362e+01
1.986777e+02	-2.441619e+01
1.998252e+02	-2.446492e+01
2.009794e+02	-2.451715e+01
2.021403e+02	-2.456440e+01
2.033078e+02	-2.461635e+01
2.044821e+02	-2.466458e+01
2.056632e+02	-2.471446e+01
2.068511e+02	-2.476621e+01
2.080459e+02	-2.481556e+01
2.092475e+02	-2.486345e+01
2.104561e+02	-2.491283e+01
2.116717e+02	-2.496364e+01
2.128943e+02	-2.501358e+01
2.141240e+02	-2.506363e+01
2.153608e+02	-2.511486e+01
2.166047e+02	-2.516382e+01
2.178558e+02	-2.521483e+01
2.191141e+02	-2.526243e+01
2.203797e+02	-2.531168e+01
2.216526e+02	-2.536466e+01
2.229329e+02	-2.541223e+01
2.242205e+02	-2.546276e+01
2.255156e+02	-2.551387e+01
2.268182e+02	-2.556535e+01
2.281283e+02	-2.561409e+01
2.294459e+02	-2.566222e+01
2.307712e+02	-2.571365e+01
2.321041e+02	-2.576256e+01
2.334447e+02	-2.581172e+01
2.347931e+02	-2.586499e+01
2.361493e+02	-2.591411e+01
2.375133e+02	-2.596541e+01
2.388851e+02	-2.601472e+01
2.402649e+02	-2.606162e+01
2.416527e+02	-2.611296e+01
2.430484e+02	-2.616453e+01
2.444523e+02	-2.621177e+01
2.458642e+02	-2.626065e+01
2.472843e+02	-2.631054e+01
2.487126e+02	-2.636154e+01
2.501492e+02	-2.641263e+01
2.515940e+02	-2.646058e+01
2.530472e+02	-2.651095e+01
2.545088e+02	-2.656216e+01
2.559789e+02	-2.661423e+01
2.574574e+02	-2.666037e+01
2.589444e+02	-2.670990e+01
2.604401e+02	-2.676367e+01
2.619444e+02	-2.681170e+01
2.634574e+02	-2.686095e+01
2.649791e+02	-2.690781e+01
2.665096e+02	-2.696010e+01
2.680489e+02	-2.701580e+01
2.695972e+02	-2.706088e+01
2.711544e+02	-2.711345e+01
2.727205e+02	-2.715978e+01
2.742958e+02	-2.721113e+01
2.758801e+02	-2.726171e+01
2.774736e+02	-2.731136e+01
2.790762e+02	-2.736627e+01
2.806882e+02	-2.741413e+01
2.823094e+02	-2.746021e+01
2.839400e+02	-2.751235e+01
2.855800e+02	-2.756061e+01
2.872295e+02	-2.761194e+01
2.888886e+02	-2.765971e+01
2.905572e+02	-2.771262e+01
2.922354e+02	-2.776275e+01
2.939234e+02	-2.781220e+01
2.956211e+02	-2.786276e+01
2.973286e+02	-2.791105e+01
2.990459e+02	-2.796453e+01
3.007732e+02	-2.801283e+01
3.025104e+02	-2.806428e+01
3.042577e+02	-2.810917e+01
3.060151e+02	-2.816235e+01
3.077826e+02	-2.821302e+01
3.095604e+02	-2.826592e+01
3.113484e+02	-2.831224e+01
3.131467e+02	-2.836446e+01
3.149554e+02	-2.841633e+01
3.167746e+02	-2.846128e+01
3.186043e+02	-2.851167e+01
3.204445e+02	-2.856568e+01
3.222954e+02	-2.861159e+01
3.241570e+02	-2.866438e+01
3.260293e+02	-2.871370e+01
3.279124e+02	-2.876444e+01
3.298064e+02	-2.881316e+01
3.317114e+02	-2.885957e+01
3.336273e+02	-2.891311e+01
3.355544e+02	-2.896576e+01
3.374925e+02	-2.901151e+01
3.394418e+02	-2.906437e+01
3.414024e+02	-2.911862e+01
3.433744e+02	-2.916426e+01
3.453577e+02	-2.921364e+01
3.473525e+02	-2.926857e+01
3.493588e+02	-2.930651e+01
3.513766e+02	-2.936350e+01
3.534062e+02	-2.941540e+01
3.554474e+02	-2.946533e+01
3.575005e+02	-2.950838e+01
3.595654e+02	-2.956315e+01
3.616422e+02	-2.961462e+01
3.637311e+02	-2.966435e+01
3.658320e+02	-2.971706e+01
3.679450e+02	-2.976729e+01
3.700702e+02	-2.981291e+01
3.722077e+02	-2.986402e+01
3.743576e+02	-2.991307e+01
3.765199e+02	-2.996667e+01
3.786946e+02	-3.001444e+01
3.808820e+02	-3.006409e+01
3.830819e+02	-3.011537e+01
3.852946e+02	-3.016502e+01
3.875200e+02	-3.021906e+01
3.897583e+02	-3.026063e+01
3.920096e+02	-3.031429e+01
3.942738e+02	-3.036483e+01
3.965511e+02	-3.040964e+01
3.988416e+02	-3.046955e+01
4.011452e+02	-3.052051e+01
4.034622e+02	-3.056374e+01
4.057926e+02	-3.061825e+01
4.081365e+02	-3.066639e+01
4.104938e+02	-3.071283e+01
4.128648e+02	-3.076752e+01
4.152495e+02	-3.082099e+01
4.176480e+02	-3.087018e+01
4.200603e+02	-3.091187e+01
4.224866e+02	-3.096688e+01
4.249268e+02	-3.102360e+01
4.273812e+02	-3.106937e+01
4.298497e+02	-3.111530e+01
4.323325e+02	-3.117026e+01
4.348297e+02	-3.121635e+01
4.373412e+02	-3.126854e+01
4.398673e+02	-3.131768e+01
4.424079e+02	-3.136731e+01
4.449633e+02	-3.142087e+01
4.475334e+02	-3.146519e+01
4.501183e+02	-3.151596e+01
4.527182e+02	-3.157282e+01
4.553330e+02	-3.161762e+01
4.579630e+02	-3.166628e+01
4.606082e+02	-3.171512e+01
4.632687e+02	-3.176625e+01
4.659445e+02	-3.181695e+01
4.686358e+02	-3.187060e+01
4.713426e+02	-3.192010e+01
4.740650e+02	-3.196685e+01
4.768032e+02	-3.202199e+01
4.795572e+02	-3.207273e+01
4.823271e+02	-3.211923e+01
4.851130e+02	-3.217163e+01
4.879150e+02	-3.222009e+01
4.907332e+02	-3.226439e+01
4.935676e+02	-3.232113e+01
4.964185e+02	-3.237713e+01
4.992858e+02	-3.242635e+01
5.021696e+02	-3.247070e+01
5.050701e+02	-3.252371e+01
5.079874e+02	-3.257422e+01
5.109215e+02	-3.262897e+01
5.138726e+02	-3.266592e+01
5.168407e+02	-3.272350e+01
5.198259e+02	-3.276980e+01
5.228284e+02	-3.282028e+01
5.258482e+02	-3.287899e+01
5.288855e+02	-3.292328e+01
5.319403e+02	-3.298407e+01
5.350128e+02	-3.302743e+01
5.381030e+02	-3.307590e+01
5.412111e+02	-3.312288e+01
5.443371e+02	-3.317465e+01
5.474812e+02	-3.321813e+01
5.506434e+02	-3.328072e+01
5.538239e+02	-3.333575e+01
5.570228e+02	-3.337815e+01
5.602401e+02	-3.342726e+01
5.634760e+02	-3.347816e+01
5.667306e+02	-3.352347e+01
5.700040e+02	-3.357656e+01
5.732964e+02	-3.362374e+01
5.766077e+02	-3.368116e+01
5.799382e+02	-3.373177e+01
5.832879e+02	-3.378275e+01
5.866569e+02	-3.381477e+01
5.900454e+02	-3.387540e+01
5.934535e+02	-3.393098e+01
5.968813e+02	-3.398260e+01
6.003288e+02	-3.403466e+01
6.037963e+02	-3.407967e+01
6.072838e+02	-3.413276e+01
6.107914e+02	-3.417881e+01
6.143194e+02	-3.422360e+01
6.178676e+02	-3.427927e+01
6.214364e+02	-3.434015e+01
6.250258e+02	-3.437794e+01
6.286359e+02	-3.443496e+01
6.322669e+02	-3.448303e+01
6.359189e+02	-3.453015e+01
6.395919e+02	-3.458586e+01
6.432862e+02	-3.463903e+01
6.470017e+02	-3.468235e+01
6.507388e+02	-3.472983e+01
6.544974e+02	-3.478115e+01
6.582778e+02	-3.483456e+01
6.620800e+02	-3.489172e+01
6.659041e+02	-3.492707e+01
6.697504e+02	-3.498097e+01
6.736188e+02	-3.504264e+01
6.775096e+02	-3.508422e+01
6.814229e+02	-3.512933e+01
6.853587e+02	-3.517974e+01
6.893173e+02	-3.524273e+01
6.932988e+02	-3.529214e+01
6.973033e+02	-3.533785e+01
7.013309e+02	-3.538854e+01
