Frequency(Hz)	Magnitude(dB)
1.000000e+01	-1.955619e+00
1.005776e+01	-1.973735e+00
1.011585e+01	-1.992041e+00
1.017428e+01	-2.010486e+00
1.023305e+01	-2.029179e+00
1.029215e+01	-2.047888e+00
1.035160e+01	-2.066668e+00
1.041139e+01	-2.085741e+00
1.047153e+01	-2.104824e+00
1.053201e+01	-2.124247e+00
1.059284e+01	-2.143475e+00
1.065403e+01	-2.163317e+00
1.071556e+01	-2.182984e+00
1.077746e+01	-2.202844e+00
1.083971e+01	-2.222666e+00
1.090232e+01	-2.242818e+00
1.096529e+01	-2.262952e+00
1.102862e+01	-2.283495e+00
1.109232e+01	-2.303848e+00
1.115639e+01	-2.324572e+00
1.122083e+01	-2.345292e+00
1.128564e+01	-2.366373e+00
1.135083e+01	-2.387475e+00
1.141639e+01	-2.408525e+00
1.148233e+01	-2.430025e+00
1.154865e+01	-2.451569e+00
1.161536e+01	-2.473291e+00
1.168245e+01	-2.495237e+00
1.174992e+01	-2.516882e+00
1.181779e+01	-2.538898e+00
1.188605e+01	-2.561224e+00
1.195470e+01	-2.583744e+00
1.202375e+01	-2.606119e+00
1.209320e+01	-2.628844e+00
1.216305e+01	-2.651280e+00
1.223330e+01	-2.674458e+00
1.230396e+01	-2.697641e+00
1.237503e+01	-2.720884e+00
1.244651e+01	-2.744065e+00
1.251840e+01	-2.767799e+00
1.259070e+01	-2.791216e+00
1.266343e+01	-2.815113e+00
1.273657e+01	-2.838936e+00
1.281014e+01	-2.863083e+00
1.288413e+01	-2.887224e+00
1.295855e+01	-2.911668e+00
1.303339e+01	-2.936212e+00
1.310867e+01	-2.960756e+00
1.318439e+01	-2.985599e+00
1.326054e+01	-3.010450e+00
1.333713e+01	-3.035627e+00
1.341417e+01	-3.060837e+00
1.349165e+01	-3.086059e+00
1.356958e+01	-3.111570e+00
1.364795e+01	-3.137370e+00
1.372678e+01	-3.163144e+00
1.380607e+01	-3.189152e+00
1.388581e+01	-3.215221e+00
1.396602e+01	-3.241600e+00
1.404668e+01	-3.267855e+00
1.412782e+01	-3.294275e+00
1.420942e+01	-3.321021e+00
1.429149e+01	-3.347988e+00
1.437404e+01	-3.374845e+00
1.445706e+01	-3.402037e+00
1.454057e+01	-3.429257e+00
1.462455e+01	-3.456596e+00
1.470902e+01	-3.484249e+00
1.479398e+01	-3.511620e+00
1.487943e+01	-3.539543e+00
1.496537e+01	-3.567342e+00
1.505181e+01	-3.595354e+00
1.513875e+01	-3.623499e+00
1.522619e+01	-3.652243e+00
1.531414e+01	-3.680693e+00
1.540259e+01	-3.709321e+00
1.549156e+01	-3.738157e+00
1.558103e+01	-3.767231e+00
1.567103e+01	-3.796202e+00
1.576155e+01	-3.825382e+00
1.585258e+01	-3.854769e+00
1.594415e+01	-3.884395e+00
1.603624e+01	-3.913970e+00
1.612886e+01	-3.943825e+00
1.622202e+01	-3.973758e+00
1.631572e+01	-4.003715e+00
1.640996e+01	-4.033766e+00
1.650474e+01	-4.064421e+00
1.660008e+01	-4.094711e+00
1.669596e+01	-4.125213e+00
1.679239e+01	-4.156146e+00
1.688938e+01	-4.186881e+00
1.698694e+01	-4.217792e+00
1.708505e+01	-4.249017e+00
1.718373e+01	-4.280431e+00
1.728299e+01	-4.311716e+00
1.738281e+01	-4.343244e+00
1.748322e+01	-4.375128e+00
1.758420e+01	-4.406543e+00
1.768576e+01	-4.438841e+00
1.778792e+01	-4.471103e+00
1.789066e+01	-4.503027e+00
1.799399e+01	-4.535648e+00
1.809793e+01	-4.568022e+00
1.820246e+01	-4.600928e+00
1.830760e+01	-4.633169e+00
1.841334e+01	-4.666165e+00
1.851969e+01	-4.699209e+00
1.862666e+01	-4.732464e+00
1.873425e+01	-4.765429e+00
1.884246e+01	-4.799269e+00
1.895129e+01	-4.832797e+00
1.906075e+01	-4.866026e+00
1.917085e+01	-4.899959e+00
1.928158e+01	-4.933814e+00
1.939295e+01	-4.967775e+00
1.950496e+01	-5.002166e+00
1.961762e+01	-5.036515e+00
1.973093e+01	-5.070794e+00
1.984490e+01	-5.105229e+00
1.995952e+01	-5.140051e+00
2.007480e+01	-5.174486e+00
2.019076e+01	-5.209538e+00
2.030738e+01	-5.244673e+00
2.042467e+01	-5.279799e+00
2.054264e+01	-5.314760e+00
2.066130e+01	-5.350406e+00
2.078064e+01	-5.385788e+00
2.090066e+01	-5.421501e+00
2.102139e+01	-5.457383e+00
2.114280e+01	-5.492977e+00
2.126492e+01	-5.529003e+00
2.138775e+01	-5.565214e+00
2.151128e+01	-5.601459e+00
2.163553e+01	-5.637397e+00
2.176050e+01	-5.673876e+00
2.188619e+01	-5.710457e+00
2.201260e+01	-5.747166e+00
2.213974e+01	-5.783576e+00
2.226762e+01	-5.820951e+00
2.239624e+01	-5.857825e+00
2.252560e+01	-5.895040e+00
2.265571e+01	-5.932019e+00
2.278656e+01	-5.969370e+00
2.291818e+01	-6.006696e+00
2.305055e+01	-6.043778e+00
2.318369e+01	-6.082054e+00
2.331760e+01	-6.119844e+00
2.345228e+01	-6.157460e+00
2.358774e+01	-6.195862e+00
2.372398e+01	-6.233625e+00
2.386101e+01	-6.271922e+00
2.399883e+01	-6.309871e+00
2.413745e+01	-6.348537e+00
2.427686e+01	-6.387088e+00
2.441709e+01	-6.425334e+00
2.455812e+01	-6.464424e+00
2.469997e+01	-6.502900e+00
2.484263e+01	-6.542128e+00
2.498612e+01	-6.580952e+00
2.513044e+01	-6.620486e+00
2.527559e+01	-6.658999e+00
2.542158e+01	-6.698844e+00
2.556842e+01	-6.737816e+00
2.571610e+01	-6.776853e+00
2.586463e+01	-6.816796e+00
2.601403e+01	-6.856633e+00
2.616428e+01	-6.896452e+00
2.631541e+01	-6.936083e+00
2.646740e+01	-6.975875e+00
2.662028e+01	-7.015905e+00
2.677404e+01	-7.055887e+00
2.692868e+01	-7.096332e+00
2.708422e+01	-7.136678e+00
2.724066e+01	-7.177157e+00
2.739800e+01	-7.217468e+00
2.755625e+01	-7.258279e+00
2.771541e+01	-7.299140e+00
2.787550e+01	-7.339289e+00
2.803650e+01	-7.380420e+00
2.819844e+01	-7.421280e+00
2.836131e+01	-7.462399e+00
2.852513e+01	-7.503753e+00
2.868989e+01	-7.544672e+00
2.885560e+01	-7.585711e+00
2.902227e+01	-7.627326e+00
2.918990e+01	-7.669078e+00
2.935850e+01	-7.710139e+00
2.952807e+01	-7.752237e+00
2.969863e+01	-7.793763e+00
2.987016e+01	-7.835209e+00
3.004269e+01	-7.877073e+00
3.021622e+01	-7.918746e+00
3.039075e+01	-7.960923e+00
3.056628e+01	-8.002709e+00
3.074283e+01	-8.045189e+00
3.092040e+01	-8.087077e+00
3.109900e+01	-8.129441e+00
3.127862e+01	-8.171985e+00
3.145929e+01	-8.214129e+00
3.164099e+01	-8.256529e+00
3.182375e+01	-8.299391e+00
3.200756e+01	-8.342557e+00
3.219244e+01	-8.384706e+00
3.237838e+01	-8.427693e+00
3.256540e+01	-8.470670e+00
3.275349e+01	-8.513545e+00
3.294268e+01	-8.556596e+00
3.313295e+01	-8.599962e+00
3.332433e+01	-8.642906e+00
3.351681e+01	-8.686111e+00
3.371040e+01	-8.729398e+00
3.390511e+01	-8.772376e+00
3.410094e+01	-8.816334e+00
3.429791e+01	-8.860049e+00
3.449601e+01	-8.903151e+00
3.469526e+01	-8.946578e+00
3.489566e+01	-8.990865e+00
3.509721e+01	-9.034439e+00
3.529993e+01	-9.077786e+00
3.550382e+01	-9.121909e+00
3.570889e+01	-9.165718e+00
3.591515e+01	-9.210268e+00
3.612259e+01	-9.253959e+00
3.633123e+01	-9.298158e+00
3.654108e+01	-9.341920e+00
3.675214e+01	-9.386443e+00
3.696442e+01	-9.430321e+00
3.717792e+01	-9.474981e+00
3.739266e+01	-9.519546e+00
3.760864e+01	-9.563531e+00
3.782587e+01	-9.607849e+00
3.804435e+01	-9.653139e+00
3.826409e+01	-9.697574e+00
3.848510e+01	-9.742317e+00
3.870739e+01	-9.787091e+00
3.893096e+01	-9.831950e+00
3.915583e+01	-9.876441e+00
3.938199e+01	-9.921489e+00
3.960946e+01	-9.966456e+00
3.983824e+01	-1.001171e+01
4.006834e+01	-1.005616e+01
4.029978e+01	-1.010188e+01
4.053255e+01	-1.014771e+01
4.076666e+01	-1.019195e+01
4.100213e+01	-1.023707e+01
4.123896e+01	-1.028290e+01
4.147715e+01	-1.032818e+01
4.171672e+01	-1.037393e+01
4.195767e+01	-1.041932e+01
4.220002e+01	-1.046443e+01
4.244377e+01	-1.051001e+01
4.268892e+01	-1.055588e+01
4.293549e+01	-1.060088e+01
4.318348e+01	-1.064679e+01
4.343291e+01	-1.069285e+01
4.368377e+01	-1.073842e+01
4.393609e+01	-1.078401e+01
4.418986e+01	-1.083004e+01
4.444510e+01	-1.087599e+01
4.470182e+01	-1.092251e+01
4.496001e+01	-1.096810e+01
4.521970e+01	-1.101406e+01
4.548089e+01	-1.105959e+01
4.574358e+01	-1.110681e+01
4.600779e+01	-1.115241e+01
4.627353e+01	-1.119904e+01
4.654081e+01	-1.124464e+01
4.680963e+01	-1.129112e+01
4.708000e+01	-1.133760e+01
4.735193e+01	-1.138387e+01
4.762543e+01	-1.143065e+01
4.790051e+01	-1.147660e+01
4.817719e+01	-1.152304e+01
4.845545e+01	-1.156983e+01
4.873533e+01	-1.161654e+01
4.901682e+01	-1.166248e+01
4.929994e+01	-1.171008e+01
4.958470e+01	-1.175627e+01
4.987110e+01	-1.180339e+01
5.015915e+01	-1.184926e+01
5.044887e+01	-1.189715e+01
5.074026e+01	-1.194359e+01
5.103333e+01	-1.199077e+01
5.132810e+01	-1.203691e+01
5.162457e+01	-1.208387e+01
5.192275e+01	-1.213034e+01
5.222265e+01	-1.217730e+01
5.252429e+01	-1.222452e+01
5.282767e+01	-1.227171e+01
5.313280e+01	-1.231907e+01
5.343969e+01	-1.236602e+01
5.374836e+01	-1.241344e+01
5.405880e+01	-1.246074e+01
5.437105e+01	-1.250785e+01
5.468509e+01	-1.255460e+01
5.500095e+01	-1.260194e+01
5.531863e+01	-1.264994e+01
5.563815e+01	-1.269681e+01
5.595951e+01	-1.274395e+01
5.628273e+01	-1.279181e+01
5.660782e+01	-1.283889e+01
5.693479e+01	-1.288643e+01
5.726364e+01	-1.293369e+01
5.759439e+01	-1.298152e+01
5.792705e+01	-1.302861e+01
5.826164e+01	-1.307582e+01
5.859815e+01	-1.312361e+01
5.893662e+01	-1.317108e+01
5.927703e+01	-1.321944e+01
5.961941e+01	-1.326682e+01
5.996377e+01	-1.331459e+01
6.031012e+01	-1.336188e+01
6.065847e+01	-1.340966e+01
6.100883e+01	-1.345848e+01
6.136121e+01	-1.350575e+01
6.171563e+01	-1.355352e+01
6.207210e+01	-1.360141e+01
6.243063e+01	-1.364878e+01
6.279122e+01	-1.369662e+01
6.315390e+01	-1.374480e+01
6.351868e+01	-1.379298e+01
6.388556e+01	-1.383951e+01
6.425456e+01	-1.388912e+01
6.462569e+01	-1.393638e+01
6.499897e+01	-1.398476e+01
6.537440e+01	-1.403214e+01
6.575200e+01	-1.407978e+01
6.613178e+01	-1.412729e+01
6.651375e+01	-1.417615e+01
6.689793e+01	-1.422521e+01
6.728433e+01	-1.427315e+01
6.767297e+01	-1.432112e+01
6.806384e+01	-1.436873e+01
6.845698e+01	-1.441881e+01
6.885238e+01	-1.446597e+01
6.925007e+01	-1.451489e+01
6.965005e+01	-1.456270e+01
7.005235e+01	-1.461057e+01
7.045697e+01	-1.465906e+01
7.086393e+01	-1.470678e+01
7.127323e+01	-1.475611e+01
7.168490e+01	-1.480400e+01
7.209895e+01	-1.485324e+01
7.251539e+01	-1.490163e+01
7.293424e+01	-1.494964e+01
7.335551e+01	-1.499729e+01
7.377920e+01	-1.504662e+01
7.420535e+01	-1.509557e+01
7.463396e+01	-1.514377e+01
7.506504e+01	-1.519235e+01
7.549861e+01	-1.523958e+01
7.593469e+01	-1.528848e+01
7.637328e+01	-1.533749e+01
7.681441e+01	-1.538673e+01
7.725809e+01	-1.543412e+01
7.770433e+01	-1.548447e+01
7.815315e+01	-1.553184e+01
7.860456e+01	-1.557928e+01
7.905857e+01	-1.562851e+01
7.951521e+01	-1.567783e+01
7.997449e+01	-1.572621e+01
8.043642e+01	-1.577468e+01
8.090102e+01	-1.582323e+01
8.136830e+01	-1.587256e+01
8.183828e+01	-1.592107e+01
8.231097e+01	-1.596962e+01
8.278640e+01	-1.601813e+01
8.326457e+01	-1.606830e+01
8.374550e+01	-1.611738e+01
8.422921e+01	-1.616502e+01
8.471572e+01	-1.621322e+01
8.520503e+01	-1.626237e+01
8.569717e+01	-1.631242e+01
8.619215e+01	-1.636173e+01
8.669000e+01	-1.640949e+01
8.719071e+01	-1.645812e+01
8.769432e+01	-1.650675e+01
8.820084e+01	-1.655667e+01
8.871029e+01	-1.660527e+01
8.922267e+01	-1.665376e+01
8.973802e+01	-1.670344e+01
9.025634e+01	-1.675278e+01
9.077766e+01	-1.680172e+01
9.130199e+01	-1.685046e+01
9.182935e+01	-1.689958e+01
9.235975e+01	-1.694854e+01
9.289321e+01	-1.699686e+01
9.342976e+01	-1.704618e+01
9.396941e+01	-1.709510e+01
9.451217e+01	-1.714479e+01
9.505807e+01	-1.719278e+01
9.560712e+01	-1.724149e+01
9.615934e+01	-1.729117e+01
9.671476e+01	-1.734081e+01
9.727338e+01	-1.739001e+01
9.783522e+01	-1.743826e+01
9.840032e+01	-1.748781e+01
9.896867e+01	-1.753773e+01
9.954031e+01	-1.758545e+01
1.001153e+02	-1.763514e+01
1.006935e+02	-1.768439e+01
1.012751e+02	-1.773390e+01
1.018601e+02	-1.778318e+01
1.024484e+02	-1.783219e+01
1.030402e+02	-1.788152e+01
1.036353e+02	-1.793023e+01
1.042339e+02	-1.797859e+01
1.048360e+02	-1.802880e+01
1.054415e+02	-1.807827e+01
1.060505e+02	-1.812778e+01
1.066631e+02	-1.817682e+01
1.072791e+02	-1.822605e+01
1.078988e+02	-1.827553e+01
1.085220e+02	-1.832509e+01
1.091488e+02	-1.837507e+01
1.097793e+02	-1.842348e+01
1.104133e+02	-1.847203e+01
1.110511e+02	-1.852192e+01
1.116925e+02	-1.857105e+01
1.123376e+02	-1.862016e+01
1.129865e+02	-1.867044e+01
1.136391e+02	-1.871873e+01
1.142955e+02	-1.876837e+01
1.149556e+02	-1.881883e+01
1.156196e+02	-1.886669e+01
1.162874e+02	-1.891753e+01
1.169591e+02	-1.896725e+01
1.176347e+02	-1.901709e+01
1.183141e+02	-1.906478e+01
1.189975e+02	-1.911367e+01
1.196848e+02	-1.916553e+01
1.203761e+02	-1.921209e+01
1.210714e+02	-1.926312e+01
1.217707e+02	-1.931196e+01
1.224740e+02	-1.936090e+01
1.231814e+02	-1.941147e+01
1.238929e+02	-1.946123e+01
1.246085e+02	-1.950824e+01
1.253283e+02	-1.955876e+01
1.260522e+02	-1.960718e+01
1.267802e+02	-1.965846e+01
1.275125e+02	-1.970690e+01
1.282490e+02	-1.975747e+01
1.289898e+02	-1.980690e+01
1.297348e+02	-1.985597e+01
1.304842e+02	-1.990410e+01
1.312378e+02	-1.995518e+01
1.319959e+02	-2.000515e+01
1.327583e+02	-2.005490e+01
1.335251e+02	-2.010491e+01
1.342963e+02	-2.015411e+01
1.350720e+02	-2.020332e+01
1.358522e+02	-2.025291e+01
1.366368e+02	-2.030353e+01
1.374260e+02	-2.035107e+01
1.382198e+02	-2.040015e+01
1.390182e+02	-2.044977e+01
1.398211e+02	-2.050235e+01
1.406287e+02	-2.055118e+01
1.414410e+02	-2.060075e+01
1.422579e+02	-2.065039e+01
1.430796e+02	-2.069887e+01
1.439060e+02	-2.074993e+01
1.447372e+02	-2.079862e+01
1.455732e+02	-2.084873e+01
1.464141e+02	-2.089884e+01
1.472597e+02	-2.094615e+01
1.481103e+02	-2.099632e+01
1.489658e+02	-2.104595e+01
1.498262e+02	-2.109712e+01
1.506916e+02	-2.114620e+01
1.515620e+02	-2.119517e+01
1.524374e+02	-2.124484e+01
1.533179e+02	-2.129442e+01
1.542034e+02	-2.134412e+01
1.550941e+02	-2.139392e+01
1.559899e+02	-2.144493e+01
1.568909e+02	-2.149297e+01
1.577971e+02	-2.154319e+01
1.587085e+02	-2.159157e+01
1.596252e+02	-2.164218e+01
1.605472e+02	-2.169294e+01
1.614745e+02	-2.174164e+01
1.624072e+02	-2.179133e+01
1.633453e+02	-2.184156e+01
1.642887e+02	-2.189159e+01
1.652377e+02	-2.194110e+01
1.661921e+02	-2.199062e+01
1.671520e+02	-2.204152e+01
1.681175e+02	-2.208675e+01
1.690885e+02	-2.214032e+01
1.700651e+02	-2.219025e+01
1.710474e+02	-2.224028e+01
1.720354e+02	-2.228924e+01
1.730291e+02	-2.233867e+01
1.740285e+02	-2.238929e+01
1.750337e+02	-2.243795e+01
1.760446e+02	-2.248812e+01
1.770615e+02	-2.253951e+01
1.780842e+02	-2.258889e+01
1.791128e+02	-2.263666e+01
1.801473e+02	-2.268784e+01
1.811878e+02	-2.273631e+01
1.822344e+02	-2.278692e+01
1.832870e+02	-2.283635e+01
1.843456e+02	-2.288588e+01
1.854104e+02	-2.293696e+01
1.864813e+02	-2.298749e+01
1.875584e+02	-2.303617e+01
1.886418e+02	-2.308774e+01
1.897313e+02	-2.313723e+01
1.908272e+02	-2.318622e+01
1.919294e+02	-2.323322e+01
1.930380e+02	-2.328543e+01
1.941530e+02	-2.333569e+01
1.952744e+02	-2.338552e+01
1.964023e+02	-2.343568e+01
1.975367e+02	-2.348275e+01
1.986777e+02	-2.353548e+01
1.998252e+02	-2.358289e+01
2.009794e+02	-2.363354e+01
2.021403e+02	-2.368166e+01
2.033078e+02	-2.373306e+01
2.044821e+02	-2.378284e+01
2.056632e+02	-2.383312e+01
2.068511e+02	-2.388505e+01
2.080459e+02	-2.393198e+01
2.092475e+02	-2.397900e+01
2.104561e+02	-2.403163e+01
2.116717e+02	-2.408130e+01
2.128943e+02	-2.413432e+01
2.141240e+02	-2.418081e+01
2.153608e+02	-2.423137e+01
2.166047e+02	-2.428213e+01
2.178558e+02	-2.433085e+01
2.191141e+02	-2.438138e+01
2.203797e+02	-2.443095e+01
2.216526e+02	-2.448237e+01
2.229329e+02	-2.452979e+01
2.242205e+02	-2.458159e+01
2.255156e+02	-2.463059e+01
2.268182e+02	-2.467906e+01
2.281283e+02	-2.473261e+01
2.294459e+02	-2.478021e+01
2.307712e+02	-2.482961e+01
2.321041e+02	-2.487830e+01
2.334447e+02	-2.492915e+01
2.347931e+02	-2.497939e+01
2.361493e+02	-2.503176e+01
2.375133e+02	-2.507935e+01
2.388851e+02	-2.513044e+01
2.402649e+02	-2.518181e+01
2.416527e+02	-2.522729e+01
2.430484e+02	-2.528261e+01
2.444523e+02	-2.532773e+01
2.458642e+02	-2.537979e+01
2.472843e+02	-2.542658e+01
2.487126e+02	-2.548253e+01
2.501492e+02	-2.552645e+01
2.515940e+02	-2.558043e+01
2.530472e+02	-2.562556e+01
2.545088e+02	-2.568009e+01
2.559789e+02	-2.573158e+01
2.574574e+02	-2.578137e+01
2.589444e+02	-2.583052e+01
2.604401e+02	-2.587658e+01
2.619444e+02	-2.592805e+01
2.634574e+02	-2.597596e+01
2.649791e+02	-2.603117e+01
2.665096e+02	-2.607882e+01
2.680489e+02	-2.612950e+01
2.695972e+02	-2.617680e+01
2.711544e+02	-2.622811e+01
2.727205e+02	-2.627861e+01
2.742958e+02	-2.632652e+01
2.758801e+02	-2.638011e+01
2.774736e+02	-2.642737e+01
2.790762e+02	-2.648136e+01
2.806882e+02	-2.652972e+01
2.823094e+02	-2.657662e+01
2.839400e+02	-2.662873e+01
2.855800e+02	-2.667813e+01
2.872295e+02	-2.672595e+01
2.888886e+02	-2.677501e+01
2.905572e+02	-2.682810e+01
2.922354e+02	-2.687900e+01
2.939234e+02	-2.692847e+01
2.956211e+02	-2.697694e+01
2.973286e+02	-2.702702e+01
2.990459e+02	-2.707758e+01
3.007732e+02	-2.712834e+01
3.025104e+02	-2.718284e+01
3.042577e+02	-2.722606e+01
3.060151e+02	-2.728007e+01
3.077826e+02	-2.732669e+01
3.095604e+02	-2.737844e+01
3.113484e+02	-2.742615e+01
3.131467e+02	-2.747743e+01
3.149554e+02	-2.752929e+01
3.167746e+02	-2.757878e+01
3.186043e+02	-2.762596e+01
3.204445e+02	-2.767852e+01
3.222954e+02	-2.772549e+01
3.241570e+02	-2.777998e+01
3.260293e+02	-2.782875e+01
3.279124e+02	-2.788124e+01
3.298064e+02	-2.792470e+01
3.317114e+02	-2.797966e+01
3.336273e+02	-2.802652e+01
3.355544e+02	-2.807875e+01
3.374925e+02	-2.812649e+01
3.394418e+02	-2.817912e+01
3.414024e+02	-2.823143e+01
3.433744e+02	-2.828408e+01
3.453577e+02	-2.832421e+01
3.473525e+02	-2.837956e+01
3.493588e+02	-2.843141e+01
3.513766e+02	-2.847581e+01
3.534062e+02	-2.853015e+01
3.554474e+02	-2.857546e+01
3.575005e+02	-2.862715e+01
3.595654e+02	-2.867632e+01
3.616422e+02	-2.872805e+01
3.637311e+02	-2.877574e+01
3.658320e+02	-2.882858e+01
3.679450e+02	-2.888123e+01
3.700702e+02	-2.893217e+01
3.722077e+02	-2.897971e+01
3.743576e+02	-2.902828e+01
3.765199e+02	-2.908059e+01
3.786946e+02	-2.912784e+01
3.808820e+02	-2.918376e+01
3.830819e+02	-2.922874e+01
3.852946e+02	-2.927706e+01
3.875200e+02	-2.933080e+01
3.897583e+02	-2.937632e+01
3.920096e+02	-2.943031e+01
3.942738e+02	-2.948210e+01
3.965511e+02	-2.953494e+01
3.988416e+02	-2.958177e+01
4.011452e+02	-2.963436e+01
4.034622e+02	-2.968074e+01
4.057926e+02	-2.973836e+01
4.081365e+02	-2.978054e+01
4.104938e+02	-2.983215e+01
4.128648e+02	-2.988783e+01
4.152495e+02	-2.993452e+01
4.176480e+02	-2.998486e+01
4.200603e+02	-3.003083e+01
4.224866e+02	-3.007804e+01
4.249268e+02	-3.013013e+01
4.273812e+02	-3.018440e+01
4.298497e+02	-3.023243e+01
4.323325e+02	-3.028411e+01
4.348297e+02	-3.032552e+01
4.373412e+02	-3.038377e+01
4.398673e+02	-3.043480e+01
4.424079e+02	-3.047885e+01
4.449633e+02	-3.053359e+01
4.475334e+02	-3.057814e+01
4.501183e+02	-3.063534e+01
4.527182e+02	-3.067496e+01
4.553330e+02	-3.073329e+01
4.579630e+02	-3.078336e+01
4.606082e+02	-3.083419e+01
4.632687e+02	-3.088004e+01
4.659445e+02	-3.093439e+01
4.686358e+02	-3.098026e+01
4.713426e+02	-3.102955e+01
4.740650e+02	-3.108824e+01
4.768032e+02	-3.113629e+01
4.795572e+02	-3.118623e+01
4.823271e+02	-3.123110e+01
4.851130e+02	-3.128385e+01
4.879150e+02	-3.132842e+01
4.907332e+02	-3.138427e+01
4.935676e+02	-3.143282e+01
4.964185e+02	-3.148229e+01
4.992858e+02	-3.153597e+01
5.021696e+02	-3.158249e+01
5.050701e+02	-3.163449e+01
5.079874e+02	-3.168423e+01
5.109215e+02	-3.174101e+01
5.138726e+02	-3.179287e+01
5.168407e+02	-3.183297e+01
5.198259e+02	-3.188639e+01
5.228284e+02	-3.193970e+01
5.258482e+02	-3.198988e+01
5.288855e+02	-3.203702e+01
5.319403e+02	-3.208439e+01
5.350128e+02	-3.214077e+01
5.381030e+02	-3.218607e+01
5.412111e+02	-3.223770e+01
5.443371e+02	-3.229070e+01
5.474812e+02	-3.233454e+01
5.506434e+02	-3.238768e+01
5.538239e+02	-3.244098e+01
5.570228e+02	-3.248675e+01
5.602401e+02	-3.253660e+01
5.634760e+02	-3.258790e+01
5.667306e+02	-3.264002e+01
5.700040e+02	-3.268874e+01
5.732964e+02	-3.274095e+01
5.766077e+02	-3.279766e+01
5.799382e+02	-3.284736e+01
5.832879e+02	-3.289512e+01
5.866569e+02	-3.294240e+01
5.900454e+02	-3.298508e+01
5.934535e+02	-3.303254e+01
5.968813e+02	-3.309046e+01
6.003288e+02	-3.314794e+01
6.037963e+02	-3.319381e+01
6.072838e+02	-3.324348e+01
6.107914e+02	-3.328964e+01
6.143194e+02	-3.334386e+01
6.178676e+02	-3.339791e+01
6.214364e+02	-3.344790e+01
6.250258e+02	-3.349480e+01
6.286359e+02	-3.354091e+01
6.322669e+02	-3.358536e+01
6.359189e+02	-3.365017e+01
6.395919e+02	-3.369488e+01
6.432862e+02	-3.374227e+01
6.470017e+02	-3.379197e+01
6.507388e+02	-3.384770e+01
6.544974e+02	-3.389222e+01
6.582778e+02	-3.394552e+01
6.620800e+02	-3.399027e+01
6.659041e+02	-3.404463e+01
6.697504e+02	-3.410222e+01
6.736188e+02	-3.415196e+01
6.775096e+02	-3.419968e+01
6.814229e+02	-3.425042e+01
6.853587e+02	-3.429555e+01
6.893173e+02	-3.433878e+01
6.932988e+02	-3.439946e+01
6.973033e+02	-3.444500e+01
7.013309e+02	-3.450320e+01
