Frequency(Hz)	Magnitude(dB)
1.000000e+01	-2.175011e+00
1.005776e+01	-2.194565e+00
1.011585e+01	-2.214558e+00
1.017428e+01	-2.234740e+00
1.023305e+01	-2.254746e+00
1.029215e+01	-2.275278e+00
1.035160e+01	-2.295453e+00
1.041139e+01	-2.316080e+00
1.047153e+01	-2.337138e+00
1.053201e+01	-2.357756e+00
1.059284e+01	-2.378876e+00
1.065403e+01	-2.400189e+00
1.071556e+01	-2.421162e+00
1.077746e+01	-2.442679e+00
1.083971e+01	-2.464277e+00
1.090232e+01	-2.485960e+00
1.096529e+01	-2.507873e+00
1.102862e+01	-2.530016e+00
1.109232e+01	-2.551971e+00
1.115639e+01	-2.574591e+00
1.122083e+01	-2.597131e+00
1.128564e+01	-2.619349e+00
1.135083e+01	-2.642277e+00
1.141639e+01	-2.665204e+00
1.148233e+01	-2.688077e+00
1.154865e+01	-2.711390e+00
1.161536e+01	-2.734352e+00
1.168245e+01	-2.758007e+00
1.174992e+01	-2.781852e+00
1.181779e+01	-2.805398e+00
1.188605e+01	-2.829192e+00
1.195470e+01	-2.853505e+00
1.202375e+01	-2.877387e+00
1.209320e+01	-2.901610e+00
1.216305e+01	-2.925944e+00
1.223330e+01	-2.950410e+00
1.230396e+01	-2.975725e+00
1.237503e+01	-3.000283e+00
1.244651e+01	-3.025514e+00
1.251840e+01	-3.050578e+00
1.259070e+01	-3.075854e+00
1.266343e+01	-3.101194e+00
1.273657e+01	-3.126752e+00
1.281014e+01	-3.152647e+00
1.288413e+01	-3.178431e+00
1.295855e+01	-3.204578e+00
1.303339e+01	-3.230834e+00
1.310867e+01	-3.257059e+00
1.318439e+01	-3.283627e+00
1.326054e+01	-3.310344e+00
1.333713e+01	-3.337036e+00
1.341417e+01	-3.364000e+00
1.349165e+01	-3.390957e+00
1.356958e+01	-3.418325e+00
1.364795e+01	-3.445451e+00
1.372678e+01	-3.472791e+00
1.380607e+01	-3.500472e+00
1.388581e+01	-3.528301e+00
1.396602e+01	-3.556322e+00
1.404668e+01	-3.584071e+00
1.412782e+01	-3.612236e+00
1.420942e+01	-3.640747e+00
1.429149e+01	-3.669164e+00
1.437404e+01	-3.697818e+00
1.445706e+01	-3.726629e+00
1.454057e+01	-3.755293e+00
1.462455e+01	-3.784407e+00
1.470902e+01	-3.813304e+00
1.479398e+01	-3.842913e+00
1.487943e+01	-3.872460e+00
1.496537e+01	-3.901955e+00
1.505181e+01	-3.931479e+00
1.513875e+01	-3.961509e+00
1.522619e+01	-3.991655e+00
1.531414e+01	-4.021639e+00
1.540259e+01	-4.051890e+00
1.549156e+01	-4.082234e+00
1.558103e+01	-4.112784e+00
1.567103e+01	-4.143818e+00
1.576155e+01	-4.174141e+00
1.585258e+01	-4.205344e+00
1.594415e+01	-4.236361e+00
1.603624e+01	-4.267540e+00
1.612886e+01	-4.299177e+00
1.622202e+01	-4.330462e+00
1.631572e+01	-4.362215e+00
1.640996e+01	-4.393838e+00
1.650474e+01	-4.425720e+00
1.660008e+01	-4.457755e+00
1.669596e+01	-4.490031e+00
1.679239e+01	-4.522465e+00
1.688938e+01	-4.554778e+00
1.698694e+01	-4.587422e+00
1.708505e+01	-4.620036e+00
1.718373e+01	-4.652901e+00
1.728299e+01	-4.685900e+00
1.738281e+01	-4.718959e+00
1.748322e+01	-4.752242e+00
1.758420e+01	-4.785253e+00
1.768576e+01	-4.818689e+00
1.778792e+01	-4.852951e+00
1.789066e+01	-4.886245e+00
1.799399e+01	-4.919868e+00
1.809793e+01	-4.954023e+00
1.820246e+01	-4.988258e+00
1.830760e+01	-5.022459e+00
1.841334e+01	-5.057108e+00
1.851969e+01	-5.091274e+00
1.862666e+01	-5.125658e+00
1.873425e+01	-5.160458e+00
1.884246e+01	-5.195470e+00
1.895129e+01	-5.230278e+00
1.906075e+01	-5.265631e+00
1.917085e+01	-5.300530e+00
1.928158e+01	-5.335857e+00
1.939295e+01	-5.371361e+00
1.950496e+01	-5.406867e+00
1.961762e+01	-5.442749e+00
1.973093e+01	-5.478620e+00
1.984490e+01	-5.514461e+00
1.995952e+01	-5.550530e+00
2.007480e+01	-5.586600e+00
2.019076e+01	-5.622913e+00
2.030738e+01	-5.659116e+00
2.042467e+01	-5.695888e+00
2.054264e+01	-5.731894e+00
2.066130e+01	-5.768928e+00
2.078064e+01	-5.806313e+00
2.090066e+01	-5.842739e+00
2.102139e+01	-5.879589e+00
2.114280e+01	-5.917313e+00
2.126492e+01	-5.954042e+00
2.138775e+01	-5.991645e+00
2.151128e+01	-6.029041e+00
2.163553e+01	-6.066932e+00
2.176050e+01	-6.104437e+00
2.188619e+01	-6.142042e+00
2.201260e+01	-6.179976e+00
2.213974e+01	-6.218287e+00
2.226762e+01	-6.255950e+00
2.239624e+01	-6.295004e+00
2.252560e+01	-6.332733e+00
2.265571e+01	-6.371425e+00
2.278656e+01	-6.410050e+00
2.291818e+01	-6.448778e+00
2.305055e+01	-6.487361e+00
2.318369e+01	-6.526001e+00
2.331760e+01	-6.565177e+00
2.345228e+01	-6.603866e+00
2.358774e+01	-6.643225e+00
2.372398e+01	-6.682349e+00
2.386101e+01	-6.721710e+00
2.399883e+01	-6.761436e+00
2.413745e+01	-6.801187e+00
2.427686e+01	-6.840583e+00
2.441709e+01	-6.880009e+00
2.455812e+01	-6.919809e+00
2.469997e+01	-6.959546e+00
2.484263e+01	-6.999638e+00
2.498612e+01	-7.039961e+00
2.513044e+01	-7.080227e+00
2.527559e+01	-7.120222e+00
2.542158e+01	-7.160387e+00
2.556842e+01	-7.201233e+00
2.571610e+01	-7.241745e+00
2.586463e+01	-7.282279e+00
2.601403e+01	-7.322791e+00
2.616428e+01	-7.363651e+00
2.631541e+01	-7.404632e+00
2.646740e+01	-7.446007e+00
2.662028e+01	-7.486757e+00
2.677404e+01	-7.528132e+00
2.692868e+01	-7.569072e+00
2.708422e+01	-7.610462e+00
2.724066e+01	-7.652296e+00
2.739800e+01	-7.693555e+00
2.755625e+01	-7.734673e+00
2.771541e+01	-7.776649e+00
2.787550e+01	-7.818406e+00
2.803650e+01	-7.860255e+00
2.819844e+01	-7.902018e+00
2.836131e+01	-7.944003e+00
2.852513e+01	-7.985677e+00
2.868989e+01	-8.027658e+00
2.885560e+01	-8.070448e+00
2.902227e+01	-8.112823e+00
2.918990e+01	-8.154838e+00
2.935850e+01	-8.197359e+00
2.952807e+01	-8.239877e+00
2.969863e+01	-8.282082e+00
2.987016e+01	-8.324891e+00
3.004269e+01	-8.367282e+00
3.021622e+01	-8.410338e+00
3.039075e+01	-8.453362e+00
3.056628e+01	-8.495994e+00
3.074283e+01	-8.539072e+00
3.092040e+01	-8.582151e+00
3.109900e+01	-8.624990e+00
3.127862e+01	-8.668588e+00
3.145929e+01	-8.711695e+00
3.164099e+01	-8.755130e+00
3.182375e+01	-8.798526e+00
3.200756e+01	-8.842093e+00
3.219244e+01	-8.885397e+00
3.237838e+01	-8.929152e+00
3.256540e+01	-8.972779e+00
3.275349e+01	-9.016073e+00
3.294268e+01	-9.060002e+00
3.313295e+01	-9.104097e+00
3.332433e+01	-9.148348e+00
3.351681e+01	-9.191534e+00
3.371040e+01	-9.235799e+00
3.390511e+01	-9.279993e+00
3.410094e+01	-9.324447e+00
3.429791e+01	-9.368246e+00
3.449601e+01	-9.412686e+00
3.469526e+01	-9.456965e+00
3.489566e+01	-9.501280e+00
3.509721e+01	-9.545791e+00
3.529993e+01	-9.590135e+00
3.550382e+01	-9.634926e+00
3.570889e+01	-9.679480e+00
3.591515e+01	-9.724448e+00
3.612259e+01	-9.768952e+00
3.633123e+01	-9.813463e+00
3.654108e+01	-9.858594e+00
3.675214e+01	-9.903503e+00
3.696442e+01	-9.948270e+00
3.717792e+01	-9.993287e+00
3.739266e+01	-1.003802e+01
3.760864e+01	-1.008340e+01
3.782587e+01	-1.012860e+01
3.804435e+01	-1.017365e+01
3.826409e+01	-1.021905e+01
3.848510e+01	-1.026449e+01
3.870739e+01	-1.030967e+01
3.893096e+01	-1.035515e+01
3.915583e+01	-1.040085e+01
3.938199e+01	-1.044590e+01
3.960946e+01	-1.049174e+01
3.983824e+01	-1.053693e+01
4.006834e+01	-1.058219e+01
4.029978e+01	-1.062820e+01
4.053255e+01	-1.067439e+01
4.076666e+01	-1.071927e+01
4.100213e+01	-1.076550e+01
4.123896e+01	-1.081197e+01
4.147715e+01	-1.085693e+01
4.171672e+01	-1.090313e+01
4.195767e+01	-1.094906e+01
4.220002e+01	-1.099559e+01
4.244377e+01	-1.104159e+01
4.268892e+01	-1.108754e+01
4.293549e+01	-1.113355e+01
4.318348e+01	-1.118041e+01
4.343291e+01	-1.122584e+01
4.368377e+01	-1.127260e+01
4.393609e+01	-1.131854e+01
4.418986e+01	-1.136467e+01
4.444510e+01	-1.141127e+01
4.470182e+01	-1.145773e+01
4.496001e+01	-1.150477e+01
4.521970e+01	-1.155058e+01
4.548089e+01	-1.159750e+01
4.574358e+01	-1.164362e+01
4.600779e+01	-1.169050e+01
4.627353e+01	-1.173744e+01
4.654081e+01	-1.178445e+01
4.680963e+01	-1.183035e+01
4.708000e+01	-1.187748e+01
4.735193e+01	-1.192373e+01
4.762543e+01	-1.197129e+01
4.790051e+01	-1.201806e+01
4.817719e+01	-1.206517e+01
4.845545e+01	-1.211194e+01
4.873533e+01	-1.215905e+01
4.901682e+01	-1.220631e+01
4.929994e+01	-1.225264e+01
4.958470e+01	-1.229946e+01
4.987110e+01	-1.234767e+01
5.015915e+01	-1.239465e+01
5.044887e+01	-1.244181e+01
5.074026e+01	-1.248851e+01
5.103333e+01	-1.253553e+01
5.132810e+01	-1.258294e+01
5.162457e+01	-1.263092e+01
5.192275e+01	-1.267780e+01
5.222265e+01	-1.272516e+01
5.252429e+01	-1.277196e+01
5.282767e+01	-1.281941e+01
5.313280e+01	-1.286740e+01
5.343969e+01	-1.291493e+01
5.374836e+01	-1.296201e+01
5.405880e+01	-1.300979e+01
5.437105e+01	-1.305672e+01
5.468509e+01	-1.310471e+01
5.500095e+01	-1.315148e+01
5.531863e+01	-1.320014e+01
5.563815e+01	-1.324767e+01
5.595951e+01	-1.329480e+01
5.628273e+01	-1.334234e+01
5.660782e+01	-1.339053e+01
5.693479e+01	-1.343906e+01
5.726364e+01	-1.348667e+01
5.759439e+01	-1.353400e+01
5.792705e+01	-1.358164e+01
5.826164e+01	-1.362956e+01
5.859815e+01	-1.367824e+01
5.893662e+01	-1.372403e+01
5.927703e+01	-1.377341e+01
5.961941e+01	-1.382139e+01
5.996377e+01	-1.386937e+01
6.031012e+01	-1.391722e+01
6.065847e+01	-1.396648e+01
6.100883e+01	-1.401226e+01
6.136121e+01	-1.406103e+01
6.171563e+01	-1.410945e+01
6.207210e+01	-1.415729e+01
6.243063e+01	-1.420579e+01
6.279122e+01	-1.425329e+01
6.315390e+01	-1.430194e+01
6.351868e+01	-1.435032e+01
6.388556e+01	-1.439841e+01
6.425456e+01	-1.444703e+01
6.462569e+01	-1.449468e+01
6.499897e+01	-1.454309e+01
6.537440e+01	-1.459083e+01
6.575200e+01	-1.463980e+01
6.613178e+01	-1.468778e+01
6.651375e+01	-1.473597e+01
6.689793e+01	-1.478411e+01
6.728433e+01	-1.483287e+01
6.767297e+01	-1.488180e+01
6.806384e+01	-1.492885e+01
6.845698e+01	-1.497795e+01
6.885238e+01	-1.502660e+01
6.925007e+01	-1.507447e+01
6.965005e+01	-1.512366e+01
7.005235e+01	-1.517173e+01
7.045697e+01	-1.522072e+01
7.086393e+01	-1.526949e+01
7.127323e+01	-1.531708e+01
7.168490e+01	-1.536680e+01
7.209895e+01	-1.541582e+01
7.251539e+01	-1.546373e+01
7.293424e+01	-1.551243e+01
7.335551e+01	-1.555971e+01
7.377920e+01	-1.560915e+01
7.420535e+01	-1.565797e+01
7.463396e+01	-1.570617e+01
7.506504e+01	-1.575569e+01
7.549861e+01	-1.580444e+01
7.593469e+01	-1.585243e+01
7.637328e+01	-1.590179e+01
7.681441e+01	-1.594988e+01
7.725809e+01	-1.599857e+01
7.770433e+01	-1.604751e+01
7.815315e+01	-1.609560e+01
7.860456e+01	-1.614445e+01
7.905857e+01	-1.619445e+01
7.951521e+01	-1.624304e+01
7.997449e+01	-1.629130e+01
8.043642e+01	-1.634064e+01
8.090102e+01	-1.638963e+01
8.136830e+01	-1.643796e+01
8.183828e+01	-1.648745e+01
8.231097e+01	-1.653580e+01
8.278640e+01	-1.658491e+01
8.326457e+01	-1.663446e+01
8.374550e+01	-1.668277e+01
8.422921e+01	-1.673272e+01
8.471572e+01	-1.678297e+01
8.520503e+01	-1.682946e+01
8.569717e+01	-1.687833e+01
8.619215e+01	-1.692756e+01
8.669000e+01	-1.697782e+01
8.719071e+01	-1.702634e+01
8.769432e+01	-1.707478e+01
8.820084e+01	-1.712521e+01
8.871029e+01	-1.717425e+01
8.922267e+01	-1.722229e+01
8.973802e+01	-1.727210e+01
9.025634e+01	-1.731910e+01
9.077766e+01	-1.736937e+01
9.130199e+01	-1.741926e+01
9.182935e+01	-1.746776e+01
9.235975e+01	-1.751712e+01
9.289321e+01	-1.756678e+01
9.342976e+01	-1.761557e+01
9.396941e+01	-1.766443e+01
9.451217e+01	-1.771418e+01
9.505807e+01	-1.776299e+01
9.560712e+01	-1.781166e+01
9.615934e+01	-1.786067e+01
9.671476e+01	-1.791180e+01
9.727338e+01	-1.796120e+01
9.783522e+01	-1.800846e+01
9.840032e+01	-1.805658e+01
9.896867e+01	-1.810635e+01
9.954031e+01	-1.815699e+01
1.001153e+02	-1.820450e+01
1.006935e+02	-1.825664e+01
1.012751e+02	-1.830437e+01
1.018601e+02	-1.835387e+01
1.024484e+02	-1.840293e+01
1.030402e+02	-1.845394e+01
1.036353e+02	-1.850164e+01
1.042339e+02	-1.855118e+01
1.048360e+02	-1.860050e+01
1.054415e+02	-1.864943e+01
1.060505e+02	-1.869978e+01
1.066631e+02	-1.874865e+01
1.072791e+02	-1.879921e+01
1.078988e+02	-1.884868e+01
1.085220e+02	-1.889566e+01
1.091488e+02	-1.894620e+01
1.097793e+02	-1.899627e+01
1.104133e+02	-1.904496e+01
1.110511e+02	-1.909384e+01
1.116925e+02	-1.914539e+01
1.123376e+02	-1.919326e+01
1.129865e+02	-1.924244e+01
1.136391e+02	-1.929236e+01
1.142955e+02	-1.933996e+01
1.149556e+02	-1.939050e+01
1.156196e+02	-1.944080e+01
1.162874e+02	-1.949011e+01
1.169591e+02	-1.953759e+01
1.176347e+02	-1.958814e+01
1.183141e+02	-1.964006e+01
1.189975e+02	-1.968939e+01
1.196848e+02	-1.973770e+01
1.203761e+02	-1.978807e+01
1.210714e+02	-1.983731e+01
1.217707e+02	-1.988664e+01
1.224740e+02	-1.993611e+01
1.231814e+02	-1.998566e+01
1.238929e+02	-2.003501e+01
1.246085e+02	-2.008559e+01
1.253283e+02	-2.013370e+01
1.260522e+02	-2.018272e+01
1.267802e+02	-2.023384e+01
1.275125e+02	-2.028162e+01
1.282490e+02	-2.033111e+01
1.289898e+02	-2.038103e+01
1.297348e+02	-2.043226e+01
1.304842e+02	-2.048124e+01
1.312378e+02	-2.052897e+01
1.319959e+02	-2.057981e+01
1.327583e+02	-2.062886e+01
1.335251e+02	-2.067901e+01
1.342963e+02	-2.072708e+01
1.350720e+02	-2.078007e+01
1.358522e+02	-2.082569e+01
1.366368e+02	-2.088035e+01
1.374260e+02	-2.092635e+01
1.382198e+02	-2.097728e+01
1.390182e+02	-2.102521e+01
1.398211e+02	-2.107604e+01
1.406287e+02	-2.112584e+01
1.414410e+02	-2.117711e+01
1.422579e+02	-2.122608e+01
1.430796e+02	-2.127412e+01
1.439060e+02	-2.132386e+01
1.447372e+02	-2.137389e+01
1.455732e+02	-2.142567e+01
1.464141e+02	-2.147447e+01
1.472597e+02	-2.152270e+01
1.481103e+02	-2.157355e+01
1.489658e+02	-2.162275e+01
1.498262e+02	-2.167194e+01
1.506916e+02	-2.172530e+01
1.515620e+02	-2.176948e+01
1.524374e+02	-2.182069e+01
1.533179e+02	-2.187191e+01
1.542034e+02	-2.191937e+01
1.550941e+02	-2.196863e+01
1.559899e+02	-2.201935e+01
1.568909e+02	-2.207021e+01
1.577971e+02	-2.212034e+01
1.587085e+02	-2.217100e+01
1.596252e+02	-2.221993e+01
1.605472e+02	-2.226739e+01
1.614745e+02	-2.231847e+01
1.624072e+02	-2.236902e+01
1.633453e+02	-2.241693e+01
1.642887e+02	-2.246714e+01
1.652377e+02	-2.251923e+01
1.661921e+02	-2.256615e+01
1.671520e+02	-2.261626e+01
1.681175e+02	-2.266856e+01
1.690885e+02	-2.271622e+01
1.700651e+02	-2.276708e+01
1.710474e+02	-2.281771e+01
1.720354e+02	-2.286570e+01
1.730291e+02	-2.291632e+01
1.740285e+02	-2.296496e+01
1.750337e+02	-2.301447e+01
1.760446e+02	-2.306625e+01
1.770615e+02	-2.311430e+01
1.780842e+02	-2.316622e+01
1.791128e+02	-2.321560e+01
1.801473e+02	-2.326578e+01
1.811878e+02	-2.331182e+01
1.822344e+02	-2.336220e+01
1.832870e+02	-2.341339e+01
1.843456e+02	-2.346641e+01
1.854104e+02	-2.351270e+01
1.864813e+02	-2.356220e+01
1.875584e+02	-2.361199e+01
1.886418e+02	-2.366257e+01
1.897313e+02	-2.371316e+01
1.908272e+02	-2.376218e+01
1.919294e+02	-2.381103e+01
1.930380e+02	-2.386281e+01
1.941530e+02	-2.391426e+01
1.952744e+02	-2.396358e+01
1.964023e+02	-2.401145e+01
1.975367e+02	-2.406415e+01
1.986777e+02	-2.411328e+01
1.998252e+02	-2.416042e+01
2.009794e+02	-2.421127e+01
2.021403e+02	-2.426397e+01
2.033078e+02	-2.431215e+01
2.044821e+02	-2.436133e+01
2.056632e+02	-2.441134e+01
2.068511e+02	-2.446306e+01
2.080459e+02	-2.451276e+01
2.092475e+02	-2.455933e+01
2.104561e+02	-2.461048e+01
2.116717e+02	-2.466140e+01
2.128943e+02	-2.471113e+01
2.141240e+02	-2.476310e+01
2.153608e+02	-2.481195e+01
2.166047e+02	-2.485987e+01
2.178558e+02	-2.490778e+01
2.191141e+02	-2.495960e+01
2.203797e+02	-2.500866e+01
2.216526e+02	-2.506047e+01
2.229329e+02	-2.510867e+01
2.242205e+02	-2.516010e+01
2.255156e+02	-2.520903e+01
2.268182e+02	-2.526096e+01
2.281283e+02	-2.530933e+01
2.294459e+02	-2.536172e+01
2.307712e+02	-2.540902e+01
2.321041e+02	-2.545999e+01
2.334447e+02	-2.551189e+01
2.347931e+02	-2.556132e+01
2.361493e+02	-2.560733e+01
2.375133e+02	-2.565733e+01
2.388851e+02	-2.570840e+01
2.402649e+02	-2.575943e+01
2.416527e+02	-2.580453e+01
2.430484e+02	-2.585894e+01
2.444523e+02	-2.590856e+01
2.458642e+02	-2.596231e+01
2.472843e+02	-2.600592e+01
2.487126e+02	-2.605836e+01
2.501492e+02	-2.610809e+01
2.515940e+02	-2.615630e+01
2.530472e+02	-2.620934e+01
2.545088e+02	-2.625905e+01
2.559789e+02	-2.630658e+01
2.574574e+02	-2.635839e+01
2.589444e+02	-2.641090e+01
2.604401e+02	-2.645732e+01
2.619444e+02	-2.650698e+01
2.634574e+02	-2.655983e+01
2.649791e+02	-2.660712e+01
2.665096e+02	-2.665585e+01
2.680489e+02	-2.670818e+01
2.695972e+02	-2.675863e+01
2.711544e+02	-2.680707e+01
2.727205e+02	-2.685669e+01
2.742958e+02	-2.690899e+01
2.758801e+02	-2.695537e+01
2.774736e+02	-2.700950e+01
2.790762e+02	-2.706027e+01
2.806882e+02	-2.710546e+01
2.823094e+02	-2.715971e+01
2.839400e+02	-2.720547e+01
2.855800e+02	-2.726074e+01
2.872295e+02	-2.730869e+01
2.888886e+02	-2.735614e+01
2.905572e+02	-2.740798e+01
2.922354e+02	-2.745574e+01
2.939234e+02	-2.750605e+01
2.956211e+02	-2.755864e+01
2.973286e+02	-2.760733e+01
2.990459e+02	-2.765652e+01
3.007732e+02	-2.770698e+01
3.025104e+02	-2.775666e+01
3.042577e+02	-2.780569e+01
3.060151e+02	-2.785754e+01
3.077826e+02	-2.791065e+01
3.095604e+02	-2.795954e+01
3.113484e+02	-2.800750e+01
3.131467e+02	-2.805829e+01
3.149554e+02	-2.811056e+01
3.167746e+02	-2.815859e+01
3.186043e+02	-2.820593e+01
3.204445e+02	-2.825903e+01
3.222954e+02	-2.830732e+01
3.241570e+02	-2.835863e+01
3.260293e+02	-2.840713e+01
3.279124e+02	-2.845774e+01
3.298064e+02	-2.851488e+01
3.317114e+02	-2.855791e+01
3.336273e+02	-2.860839e+01
3.355544e+02	-2.866186e+01
3.374925e+02	-2.870748e+01
3.394418e+02	-2.876147e+01
3.414024e+02	-2.880755e+01
3.433744e+02	-2.885722e+01
3.453577e+02	-2.890994e+01
3.473525e+02	-2.895994e+01
3.493588e+02	-2.900695e+01
3.513766e+02	-2.905590e+01
3.534062e+02	-2.910901e+01
3.554474e+02	-2.915900e+01
3.575005e+02	-2.920668e+01
3.595654e+02	-2.925907e+01
3.616422e+02	-2.930890e+01
3.637311e+02	-2.936024e+01
3.658320e+02	-2.941080e+01
3.679450e+02	-2.946468e+01
3.700702e+02	-2.950971e+01
3.722077e+02	-2.956224e+01
3.743576e+02	-2.960965e+01
3.765199e+02	-2.966021e+01
3.786946e+02	-2.971386e+01
3.808820e+02	-2.975656e+01
3.830819e+02	-2.981128e+01
3.852946e+02	-2.986375e+01
3.875200e+02	-2.990872e+01
3.897583e+02	-2.995999e+01
3.920096e+02	-3.000782e+01
3.942738e+02	-3.005479e+01
3.965511e+02	-3.011176e+01
3.988416e+02	-3.016316e+01
4.011452e+02	-3.021737e+01
4.034622e+02	-3.026453e+01
4.057926e+02	-3.031210e+01
4.081365e+02	-3.036060e+01
4.104938e+02	-3.040951e+01
4.128648e+02	-3.046265e+01
4.152495e+02	-3.050997e+01
4.176480e+02	-3.055934e+01
4.200603e+02	-3.061209e+01
4.224866e+02	-3.065765e+01
4.249268e+02	-3.070924e+01
4.273812e+02	-3.076493e+01
4.298497e+02	-3.080955e+01
4.323325e+02	-3.086264e+01
4.348297e+02	-3.090866e+01
4.373412e+02	-3.096263e+01
4.398673e+02	-3.100876e+01
4.424079e+02	-3.106092e+01
4.449633e+02	-3.111309e+01
4.475334e+02	-3.116216e+01
4.501183e+02	-3.121656e+01
4.527182e+02	-3.127049e+01
4.553330e+02	-3.130930e+01
4.579630e+02	-3.136326e+01
4.606082e+02	-3.141785e+01
4.632687e+02	-3.146711e+01
4.659445e+02	-3.151460e+01
4.686358e+02	-3.155946e+01
4.713426e+02	-3.160951e+01
4.740650e+02	-3.166192e+01
4.768032e+02	-3.171750e+01
4.795572e+02	-3.176054e+01
4.823271e+02	-3.180787e+01
4.851130e+02	-3.186266e+01
4.879150e+02	-3.191619e+01
4.907332e+02	-3.196695e+01
4.935676e+02	-3.201762e+01
4.964185e+02	-3.206659e+01
4.992858e+02	-3.212114e+01
5.021696e+02	-3.217307e+01
5.050701e+02	-3.221441e+01
5.079874e+02	-3.226880e+01
5.109215e+02	-3.231696e+01
5.138726e+02	-3.235820e+01
5.168407e+02	-3.240989e+01
5.198259e+02	-3.246486e+01
5.228284e+02	-3.251791e+01
5.258482e+02	-3.256978e+01
5.288855e+02	-3.261581e+01
5.319403e+02	-3.267010e+01
5.350128e+02	-3.271662e+01
5.381030e+02	-3.276699e+01
5.412111e+02	-3.281774e+01
5.443371e+02	-3.286952e+01
5.474812e+02	-3.292150e+01
5.506434e+02	-3.297155e+01
5.538239e+02	-3.301308e+01
5.570228e+02	-3.306782e+01
5.602401e+02	-3.311542e+01
5.634760e+02	-3.317353e+01
5.667306e+02	-3.322425e+01
5.700040e+02	-3.327450e+01
5.732964e+02	-3.332102e+01
5.766077e+02	-3.337052e+01
5.799382e+02	-3.341916e+01
5.832879e+02	-3.346739e+01
5.866569e+02	-3.351906e+01
5.900454e+02	-3.356886e+01
5.934535e+02	-3.361922e+01
5.968813e+02	-3.367550e+01
6.003288e+02	-3.372617e+01
6.037963e+02	-3.377116e+01
6.072838e+02	-3.382341e+01
6.107914e+02	-3.387215e+01
6.143194e+02	-3.393502e+01
6.178676e+02	-3.397666e+01
6.214364e+02	-3.402683e+01
6.250258e+02	-3.407784e+01
6.286359e+02	-3.412068e+01
6.322669e+02	-3.418227e+01
6.359189e+02	-3.422912e+01
6.395919e+02	-3.428586e+01
6.432862e+02	-3.431929e+01
6.470017e+02	-3.438053e+01
6.507388e+02	-3.443840e+01
6.544974e+02	-3.447655e+01
6.582778e+02	-3.452400e+01
6.620800e+02	-3.458575e+01
6.659041e+02	-3.463152e+01
6.697504e+02	-3.468694e+01
6.736188e+02	-3.472790e+01
6.775096e+02	-3.478540e+01
6.814229e+02	-3.482562e+01
6.853587e+02	-3.488157e+01
6.893173e+02	-3.492721e+01
6.932988e+02	-3.498322e+01
6.973033e+02	-3.503101e+01
7.013309e+02	-3.508002e+01
