Frequency(Hz)	Magnitude(dB)
1.000000e+01	-2.177369e+00
1.005776e+01	-2.196894e+00
1.011585e+01	-2.217226e+00
1.017428e+01	-2.236878e+00
1.023305e+01	-2.257355e+00
1.029215e+01	-2.277442e+00
1.035160e+01	-2.297961e+00
1.041139e+01	-2.318887e+00
1.047153e+01	-2.339376e+00
1.053201e+01	-2.360402e+00
1.059284e+01	-2.381436e+00
1.065403e+01	-2.402673e+00
1.071556e+01	-2.424018e+00
1.077746e+01	-2.445441e+00
1.083971e+01	-2.467042e+00
1.090232e+01	-2.488737e+00
1.096529e+01	-2.510524e+00
1.102862e+01	-2.532642e+00
1.109232e+01	-2.555033e+00
1.115639e+01	-2.577266e+00
1.122083e+01	-2.599769e+00
1.128564e+01	-2.622220e+00
1.135083e+01	-2.644981e+00
1.141639e+01	-2.667920e+00
1.148233e+01	-2.690954e+00
1.154865e+01	-2.714143e+00
1.161536e+01	-2.737272e+00
1.168245e+01	-2.760795e+00
1.174992e+01	-2.784341e+00
1.181779e+01	-2.808343e+00
1.188605e+01	-2.832102e+00
1.195470e+01	-2.856215e+00
1.202375e+01	-2.880131e+00
1.209320e+01	-2.904387e+00
1.216305e+01	-2.929207e+00
1.223330e+01	-2.953825e+00
1.230396e+01	-2.978476e+00
1.237503e+01	-3.003464e+00
1.244651e+01	-3.028339e+00
1.251840e+01	-3.053701e+00
1.259070e+01	-3.078953e+00
1.266343e+01	-3.104274e+00
1.273657e+01	-3.129916e+00
1.281014e+01	-3.155845e+00
1.288413e+01	-3.181525e+00
1.295855e+01	-3.207778e+00
1.303339e+01	-3.233872e+00
1.310867e+01	-3.260211e+00
1.318439e+01	-3.286678e+00
1.326054e+01	-3.313378e+00
1.333713e+01	-3.340266e+00
1.341417e+01	-3.367161e+00
1.349165e+01	-3.394192e+00
1.356958e+01	-3.421343e+00
1.364795e+01	-3.448660e+00
1.372678e+01	-3.475992e+00
1.380607e+01	-3.503940e+00
1.388581e+01	-3.531697e+00
1.396602e+01	-3.559299e+00
1.404668e+01	-3.587661e+00
1.412782e+01	-3.615857e+00
1.420942e+01	-3.644006e+00
1.429149e+01	-3.672412e+00
1.437404e+01	-3.701343e+00
1.445706e+01	-3.729907e+00
1.454057e+01	-3.758788e+00
1.462455e+01	-3.787898e+00
1.470902e+01	-3.816988e+00
1.479398e+01	-3.846340e+00
1.487943e+01	-3.875857e+00
1.496537e+01	-3.905514e+00
1.505181e+01	-3.935344e+00
1.513875e+01	-3.965218e+00
1.522619e+01	-3.995141e+00
1.531414e+01	-4.025310e+00
1.540259e+01	-4.055512e+00
1.549156e+01	-4.086069e+00
1.558103e+01	-4.116635e+00
1.567103e+01	-4.147451e+00
1.576155e+01	-4.178151e+00
1.585258e+01	-4.209042e+00
1.594415e+01	-4.239930e+00
1.603624e+01	-4.271264e+00
1.612886e+01	-4.302819e+00
1.622202e+01	-4.334405e+00
1.631572e+01	-4.365889e+00
1.640996e+01	-4.397692e+00
1.650474e+01	-4.429382e+00
1.660008e+01	-4.461782e+00
1.669596e+01	-4.494124e+00
1.679239e+01	-4.526268e+00
1.688938e+01	-4.558427e+00
1.698694e+01	-4.591280e+00
1.708505e+01	-4.624022e+00
1.718373e+01	-4.656790e+00
1.728299e+01	-4.689808e+00
1.738281e+01	-4.722886e+00
1.748322e+01	-4.756163e+00
1.758420e+01	-4.789460e+00
1.768576e+01	-4.823025e+00
1.778792e+01	-4.856719e+00
1.789066e+01	-4.890296e+00
1.799399e+01	-4.924121e+00
1.809793e+01	-4.958176e+00
1.820246e+01	-4.992483e+00
1.830760e+01	-5.026553e+00
1.841334e+01	-5.060804e+00
1.851969e+01	-5.095436e+00
1.862666e+01	-5.129967e+00
1.873425e+01	-5.164859e+00
1.884246e+01	-5.199525e+00
1.895129e+01	-5.234430e+00
1.906075e+01	-5.269519e+00
1.917085e+01	-5.305205e+00
1.928158e+01	-5.340336e+00
1.939295e+01	-5.375625e+00
1.950496e+01	-5.411218e+00
1.961762e+01	-5.446978e+00
1.973093e+01	-5.482821e+00
1.984490e+01	-5.518541e+00
1.995952e+01	-5.555010e+00
2.007480e+01	-5.591175e+00
2.019076e+01	-5.627101e+00
2.030738e+01	-5.663364e+00
2.042467e+01	-5.699976e+00
2.054264e+01	-5.736907e+00
2.066130e+01	-5.773295e+00
2.078064e+01	-5.810221e+00
2.090066e+01	-5.847137e+00
2.102139e+01	-5.884288e+00
2.114280e+01	-5.921475e+00
2.126492e+01	-5.958450e+00
2.138775e+01	-5.996199e+00
2.151128e+01	-6.033657e+00
2.163553e+01	-6.071153e+00
2.176050e+01	-6.108846e+00
2.188619e+01	-6.146756e+00
2.201260e+01	-6.184845e+00
2.213974e+01	-6.222690e+00
2.226762e+01	-6.261055e+00
2.239624e+01	-6.298994e+00
2.252560e+01	-6.337291e+00
2.265571e+01	-6.375697e+00
2.278656e+01	-6.414618e+00
2.291818e+01	-6.453332e+00
2.305055e+01	-6.491826e+00
2.318369e+01	-6.530830e+00
2.331760e+01	-6.569668e+00
2.345228e+01	-6.608926e+00
2.358774e+01	-6.648029e+00
2.372398e+01	-6.687146e+00
2.386101e+01	-6.726452e+00
2.399883e+01	-6.765989e+00
2.413745e+01	-6.805697e+00
2.427686e+01	-6.844822e+00
2.441709e+01	-6.884777e+00
2.455812e+01	-6.924283e+00
2.469997e+01	-6.964247e+00
2.484263e+01	-7.004441e+00
2.498612e+01	-7.044813e+00
2.513044e+01	-7.085073e+00
2.527559e+01	-7.124892e+00
2.542158e+01	-7.165450e+00
2.556842e+01	-7.205510e+00
2.571610e+01	-7.246264e+00
2.586463e+01	-7.286800e+00
2.601403e+01	-7.327639e+00
2.616428e+01	-7.368625e+00
2.631541e+01	-7.409481e+00
2.646740e+01	-7.450273e+00
2.662028e+01	-7.491722e+00
2.677404e+01	-7.532564e+00
2.692868e+01	-7.573916e+00
2.708422e+01	-7.615461e+00
2.724066e+01	-7.657115e+00
2.739800e+01	-7.698120e+00
2.755625e+01	-7.739705e+00
2.771541e+01	-7.781686e+00
2.787550e+01	-7.823099e+00
2.803650e+01	-7.865065e+00
2.819844e+01	-7.906775e+00
2.836131e+01	-7.948862e+00
2.852513e+01	-7.990814e+00
2.868989e+01	-8.032432e+00
2.885560e+01	-8.075070e+00
2.902227e+01	-8.117660e+00
2.918990e+01	-8.159791e+00
2.935850e+01	-8.201982e+00
2.952807e+01	-8.244284e+00
2.969863e+01	-8.286822e+00
2.987016e+01	-8.329920e+00
3.004269e+01	-8.372406e+00
3.021622e+01	-8.415209e+00
3.039075e+01	-8.458548e+00
3.056628e+01	-8.501702e+00
3.074283e+01	-8.544451e+00
3.092040e+01	-8.587096e+00
3.109900e+01	-8.630306e+00
3.127862e+01	-8.673523e+00
3.145929e+01	-8.716915e+00
3.164099e+01	-8.760139e+00
3.182375e+01	-8.803669e+00
3.200756e+01	-8.847145e+00
3.219244e+01	-8.890593e+00
3.237838e+01	-8.934262e+00
3.256540e+01	-8.977773e+00
3.275349e+01	-9.021873e+00
3.294268e+01	-9.065613e+00
3.313295e+01	-9.109543e+00
3.332433e+01	-9.153286e+00
3.351681e+01	-9.197096e+00
3.371040e+01	-9.241115e+00
3.390511e+01	-9.285499e+00
3.410094e+01	-9.329666e+00
3.429791e+01	-9.373413e+00
3.449601e+01	-9.418087e+00
3.469526e+01	-9.462097e+00
3.489566e+01	-9.507010e+00
3.509721e+01	-9.551158e+00
3.529993e+01	-9.595816e+00
3.550382e+01	-9.640427e+00
3.570889e+01	-9.684959e+00
3.591515e+01	-9.729477e+00
3.612259e+01	-9.774008e+00
3.633123e+01	-9.818908e+00
3.654108e+01	-9.863720e+00
3.675214e+01	-9.908427e+00
3.696442e+01	-9.953726e+00
3.717792e+01	-9.998670e+00
3.739266e+01	-1.004357e+01
3.760864e+01	-1.008891e+01
3.782587e+01	-1.013382e+01
3.804435e+01	-1.017906e+01
3.826409e+01	-1.022431e+01
3.848510e+01	-1.026947e+01
3.870739e+01	-1.031493e+01
3.893096e+01	-1.036036e+01
3.915583e+01	-1.040600e+01
3.938199e+01	-1.045156e+01
3.960946e+01	-1.049730e+01
3.983824e+01	-1.054275e+01
4.006834e+01	-1.058825e+01
4.029978e+01	-1.063348e+01
4.053255e+01	-1.067999e+01
4.076666e+01	-1.072520e+01
4.100213e+01	-1.077146e+01
4.123896e+01	-1.081681e+01
4.147715e+01	-1.086277e+01
4.171672e+01	-1.090879e+01
4.195767e+01	-1.095447e+01
4.220002e+01	-1.100089e+01
4.244377e+01	-1.104660e+01
4.268892e+01	-1.109311e+01
4.293549e+01	-1.113951e+01
4.318348e+01	-1.118530e+01
4.343291e+01	-1.123134e+01
4.368377e+01	-1.127855e+01
4.393609e+01	-1.132404e+01
4.418986e+01	-1.137065e+01
4.444510e+01	-1.141696e+01
4.470182e+01	-1.146322e+01
4.496001e+01	-1.150991e+01
4.521970e+01	-1.155653e+01
4.548089e+01	-1.160340e+01
4.574358e+01	-1.164927e+01
4.600779e+01	-1.169624e+01
4.627353e+01	-1.174281e+01
4.654081e+01	-1.178935e+01
4.680963e+01	-1.183642e+01
4.708000e+01	-1.188294e+01
4.735193e+01	-1.193040e+01
4.762543e+01	-1.197720e+01
4.790051e+01	-1.202397e+01
4.817719e+01	-1.207080e+01
4.845545e+01	-1.211798e+01
4.873533e+01	-1.216447e+01
4.901682e+01	-1.221128e+01
4.929994e+01	-1.225817e+01
4.958470e+01	-1.230532e+01
4.987110e+01	-1.235233e+01
5.015915e+01	-1.240036e+01
5.044887e+01	-1.244674e+01
5.074026e+01	-1.249373e+01
5.103333e+01	-1.254114e+01
5.132810e+01	-1.258788e+01
5.162457e+01	-1.263632e+01
5.192275e+01	-1.268350e+01
5.222265e+01	-1.273037e+01
5.252429e+01	-1.277719e+01
5.282767e+01	-1.282530e+01
5.313280e+01	-1.287296e+01
5.343969e+01	-1.292107e+01
5.374836e+01	-1.296817e+01
5.405880e+01	-1.301515e+01
5.437105e+01	-1.306317e+01
5.468509e+01	-1.311004e+01
5.500095e+01	-1.315753e+01
5.531863e+01	-1.320639e+01
5.563815e+01	-1.325287e+01
5.595951e+01	-1.330061e+01
5.628273e+01	-1.334848e+01
5.660782e+01	-1.339583e+01
5.693479e+01	-1.344428e+01
5.726364e+01	-1.349221e+01
5.759439e+01	-1.353961e+01
5.792705e+01	-1.358793e+01
5.826164e+01	-1.363567e+01
5.859815e+01	-1.368298e+01
5.893662e+01	-1.373060e+01
5.927703e+01	-1.377922e+01
5.961941e+01	-1.382694e+01
5.996377e+01	-1.387433e+01
6.031012e+01	-1.392268e+01
6.065847e+01	-1.397096e+01
6.100883e+01	-1.401870e+01
6.136121e+01	-1.406727e+01
6.171563e+01	-1.411465e+01
6.207210e+01	-1.416317e+01
6.243063e+01	-1.421107e+01
6.279122e+01	-1.425972e+01
6.315390e+01	-1.430787e+01
6.351868e+01	-1.435538e+01
6.388556e+01	-1.440404e+01
6.425456e+01	-1.445230e+01
6.462569e+01	-1.450092e+01
6.499897e+01	-1.454846e+01
6.537440e+01	-1.459681e+01
6.575200e+01	-1.464610e+01
6.613178e+01	-1.469296e+01
6.651375e+01	-1.474143e+01
6.689793e+01	-1.478950e+01
6.728433e+01	-1.483952e+01
6.767297e+01	-1.488784e+01
6.806384e+01	-1.493537e+01
6.845698e+01	-1.498412e+01
6.885238e+01	-1.503295e+01
6.925007e+01	-1.508010e+01
6.965005e+01	-1.512913e+01
7.005235e+01	-1.517684e+01
7.045697e+01	-1.522671e+01
7.086393e+01	-1.527484e+01
7.127323e+01	-1.532398e+01
7.168490e+01	-1.537210e+01
7.209895e+01	-1.542030e+01
7.251539e+01	-1.546923e+01
7.293424e+01	-1.551782e+01
7.335551e+01	-1.556595e+01
7.377920e+01	-1.561509e+01
7.420535e+01	-1.566413e+01
7.463396e+01	-1.571259e+01
7.506504e+01	-1.576198e+01
7.549861e+01	-1.580929e+01
7.593469e+01	-1.585825e+01
7.637328e+01	-1.590641e+01
7.681441e+01	-1.595625e+01
7.725809e+01	-1.600476e+01
7.770433e+01	-1.605372e+01
7.815315e+01	-1.610306e+01
7.860456e+01	-1.615096e+01
7.905857e+01	-1.620016e+01
7.951521e+01	-1.624893e+01
7.997449e+01	-1.629890e+01
8.043642e+01	-1.634682e+01
8.090102e+01	-1.639554e+01
8.136830e+01	-1.644389e+01
8.183828e+01	-1.649293e+01
8.231097e+01	-1.654136e+01
8.278640e+01	-1.659136e+01
8.326457e+01	-1.664065e+01
8.374550e+01	-1.668988e+01
8.422921e+01	-1.673860e+01
8.471572e+01	-1.678752e+01
8.520503e+01	-1.683552e+01
8.569717e+01	-1.688536e+01
8.619215e+01	-1.693372e+01
8.669000e+01	-1.698248e+01
8.719071e+01	-1.703171e+01
8.769432e+01	-1.708214e+01
8.820084e+01	-1.713107e+01
8.871029e+01	-1.717992e+01
8.922267e+01	-1.722769e+01
8.973802e+01	-1.727766e+01
9.025634e+01	-1.732661e+01
9.077766e+01	-1.737570e+01
9.130199e+01	-1.742481e+01
9.182935e+01	-1.747395e+01
9.235975e+01	-1.752382e+01
9.289321e+01	-1.757183e+01
9.342976e+01	-1.762163e+01
9.396941e+01	-1.766998e+01
9.451217e+01	-1.772057e+01
9.505807e+01	-1.776843e+01
9.560712e+01	-1.781764e+01
9.615934e+01	-1.786624e+01
9.671476e+01	-1.791689e+01
9.727338e+01	-1.796575e+01
9.783522e+01	-1.801528e+01
9.840032e+01	-1.806402e+01
9.896867e+01	-1.811435e+01
9.954031e+01	-1.816354e+01
1.001153e+02	-1.821181e+01
1.006935e+02	-1.826305e+01
1.012751e+02	-1.831014e+01
1.018601e+02	-1.835988e+01
1.024484e+02	-1.840897e+01
1.030402e+02	-1.845715e+01
1.036353e+02	-1.850756e+01
1.042339e+02	-1.855779e+01
1.048360e+02	-1.860589e+01
1.054415e+02	-1.865574e+01
1.060505e+02	-1.870521e+01
1.066631e+02	-1.875482e+01
1.072791e+02	-1.880436e+01
1.078988e+02	-1.885391e+01
1.085220e+02	-1.890208e+01
1.091488e+02	-1.895212e+01
1.097793e+02	-1.900220e+01
1.104133e+02	-1.905133e+01
1.110511e+02	-1.909981e+01
1.116925e+02	-1.914940e+01
1.123376e+02	-1.919958e+01
1.129865e+02	-1.924931e+01
1.136391e+02	-1.929947e+01
1.142955e+02	-1.934669e+01
1.149556e+02	-1.939818e+01
1.156196e+02	-1.944619e+01
1.162874e+02	-1.949681e+01
1.169591e+02	-1.954412e+01
1.176347e+02	-1.959640e+01
1.183141e+02	-1.964480e+01
1.189975e+02	-1.969554e+01
1.196848e+02	-1.974278e+01
1.203761e+02	-1.979294e+01
1.210714e+02	-1.984274e+01
1.217707e+02	-1.989108e+01
1.224740e+02	-1.994259e+01
1.231814e+02	-1.999102e+01
1.238929e+02	-2.003984e+01
1.246085e+02	-2.008919e+01
1.253283e+02	-2.013898e+01
1.260522e+02	-2.018871e+01
1.267802e+02	-2.023894e+01
1.275125e+02	-2.028917e+01
1.282490e+02	-2.033762e+01
1.289898e+02	-2.038740e+01
1.297348e+02	-2.043529e+01
1.304842e+02	-2.048655e+01
1.312378e+02	-2.053727e+01
1.319959e+02	-2.058659e+01
1.327583e+02	-2.063535e+01
1.335251e+02	-2.068290e+01
1.342963e+02	-2.073485e+01
1.350720e+02	-2.078381e+01
1.358522e+02	-2.083421e+01
1.366368e+02	-2.088266e+01
1.374260e+02	-2.093229e+01
1.382198e+02	-2.098099e+01
1.390182e+02	-2.103340e+01
1.398211e+02	-2.108267e+01
1.406287e+02	-2.113066e+01
1.414410e+02	-2.118160e+01
1.422579e+02	-2.122964e+01
1.430796e+02	-2.127886e+01
1.439060e+02	-2.132771e+01
1.447372e+02	-2.138041e+01
1.455732e+02	-2.142868e+01
1.464141e+02	-2.147864e+01
1.472597e+02	-2.152973e+01
1.481103e+02	-2.157753e+01
1.489658e+02	-2.163026e+01
1.498262e+02	-2.167898e+01
1.506916e+02	-2.172943e+01
1.515620e+02	-2.177762e+01
1.524374e+02	-2.182796e+01
1.533179e+02	-2.187699e+01
1.542034e+02	-2.192710e+01
1.550941e+02	-2.197529e+01
1.559899e+02	-2.202624e+01
1.568909e+02	-2.207714e+01
1.577971e+02	-2.212401e+01
1.587085e+02	-2.217492e+01
1.596252e+02	-2.222562e+01
1.605472e+02	-2.227462e+01
1.614745e+02	-2.232285e+01
1.624072e+02	-2.237580e+01
1.633453e+02	-2.242339e+01
1.642887e+02	-2.247385e+01
1.652377e+02	-2.252393e+01
1.661921e+02	-2.257334e+01
1.671520e+02	-2.262260e+01
1.681175e+02	-2.267230e+01
1.690885e+02	-2.272422e+01
1.700651e+02	-2.277396e+01
1.710474e+02	-2.282401e+01
1.720354e+02	-2.287227e+01
1.730291e+02	-2.292052e+01
1.740285e+02	-2.297156e+01
1.750337e+02	-2.302138e+01
1.760446e+02	-2.307084e+01
1.770615e+02	-2.312150e+01
1.780842e+02	-2.317113e+01
1.791128e+02	-2.322132e+01
1.801473e+02	-2.327145e+01
1.811878e+02	-2.331958e+01
1.822344e+02	-2.336944e+01
1.832870e+02	-2.342025e+01
1.843456e+02	-2.346987e+01
1.854104e+02	-2.352220e+01
1.864813e+02	-2.357201e+01
1.875584e+02	-2.361835e+01
1.886418e+02	-2.366535e+01
1.897313e+02	-2.372116e+01
1.908272e+02	-2.376855e+01
1.919294e+02	-2.381808e+01
1.930380e+02	-2.386911e+01
1.941530e+02	-2.391714e+01
1.952744e+02	-2.396598e+01
1.964023e+02	-2.401866e+01
1.975367e+02	-2.406754e+01
1.986777e+02	-2.411723e+01
1.998252e+02	-2.416681e+01
2.009794e+02	-2.421873e+01
2.021403e+02	-2.426933e+01
2.033078e+02	-2.431658e+01
2.044821e+02	-2.436613e+01
2.056632e+02	-2.441971e+01
2.068511e+02	-2.446802e+01
2.080459e+02	-2.451933e+01
2.092475e+02	-2.456813e+01
2.104561e+02	-2.461534e+01
2.116717e+02	-2.466554e+01
2.128943e+02	-2.471872e+01
2.141240e+02	-2.476597e+01
2.153608e+02	-2.481686e+01
2.166047e+02	-2.486559e+01
2.178558e+02	-2.491693e+01
2.191141e+02	-2.496456e+01
2.203797e+02	-2.501530e+01
2.216526e+02	-2.506756e+01
2.229329e+02	-2.511476e+01
2.242205e+02	-2.516321e+01
2.255156e+02	-2.521728e+01
2.268182e+02	-2.526508e+01
2.281283e+02	-2.531527e+01
2.294459e+02	-2.536544e+01
2.307712e+02	-2.541559e+01
2.321041e+02	-2.546596e+01
2.334447e+02	-2.551535e+01
2.347931e+02	-2.556522e+01
2.361493e+02	-2.561319e+01
2.375133e+02	-2.566707e+01
2.388851e+02	-2.571697e+01
2.402649e+02	-2.576505e+01
2.416527e+02	-2.581484e+01
2.430484e+02	-2.586720e+01
2.444523e+02	-2.591438e+01
2.458642e+02	-2.596332e+01
2.472843e+02	-2.601455e+01
2.487126e+02	-2.606512e+01
2.501492e+02	-2.611426e+01
2.515940e+02	-2.616675e+01
2.530472e+02	-2.621694e+01
2.545088e+02	-2.626247e+01
2.559789e+02	-2.631555e+01
2.574574e+02	-2.636376e+01
2.589444e+02	-2.641543e+01
2.604401e+02	-2.646408e+01
2.619444e+02	-2.651480e+01
2.634574e+02	-2.655931e+01
2.649791e+02	-2.661443e+01
2.665096e+02	-2.666479e+01
2.680489e+02	-2.671595e+01
2.695972e+02	-2.676240e+01
2.711544e+02	-2.681311e+01
2.727205e+02	-2.686057e+01
2.742958e+02	-2.690934e+01
2.758801e+02	-2.696316e+01
2.774736e+02	-2.701093e+01
2.790762e+02	-2.705959e+01
2.806882e+02	-2.711510e+01
2.823094e+02	-2.716095e+01
2.839400e+02	-2.721561e+01
2.855800e+02	-2.726320e+01
2.872295e+02	-2.731615e+01
2.888886e+02	-2.736229e+01
2.905572e+02	-2.741181e+01
2.922354e+02	-2.746492e+01
2.939234e+02	-2.751066e+01
2.956211e+02	-2.756243e+01
2.973286e+02	-2.761315e+01
2.990459e+02	-2.766425e+01
3.007732e+02	-2.771418e+01
3.025104e+02	-2.776716e+01
3.042577e+02	-2.781049e+01
3.060151e+02	-2.786146e+01
3.077826e+02	-2.791468e+01
3.095604e+02	-2.796500e+01
3.113484e+02	-2.801068e+01
3.131467e+02	-2.806347e+01
3.149554e+02	-2.811264e+01
3.167746e+02	-2.816040e+01
3.186043e+02	-2.821131e+01
3.204445e+02	-2.826363e+01
3.222954e+02	-2.831111e+01
3.241570e+02	-2.836528e+01
3.260293e+02	-2.841432e+01
3.279124e+02	-2.846019e+01
3.298064e+02	-2.851447e+01
3.317114e+02	-2.856216e+01
3.336273e+02	-2.861131e+01
3.355544e+02	-2.866752e+01
3.374925e+02	-2.871417e+01
3.394418e+02	-2.876412e+01
3.414024e+02	-2.881447e+01
3.433744e+02	-2.886047e+01
3.453577e+02	-2.891340e+01
3.473525e+02	-2.896488e+01
3.493588e+02	-2.901170e+01
3.513766e+02	-2.906131e+01
3.534062e+02	-2.911833e+01
3.554474e+02	-2.916769e+01
3.575005e+02	-2.921757e+01
3.595654e+02	-2.926729e+01
3.616422e+02	-2.931157e+01
3.637311e+02	-2.936480e+01
3.658320e+02	-2.941543e+01
3.679450e+02	-2.946497e+01
3.700702e+02	-2.951729e+01
3.722077e+02	-2.956274e+01
3.743576e+02	-2.961873e+01
3.765199e+02	-2.966342e+01
3.786946e+02	-2.971689e+01
3.808820e+02	-2.977030e+01
3.830819e+02	-2.981987e+01
3.852946e+02	-2.986213e+01
3.875200e+02	-2.991936e+01
3.897583e+02	-2.996529e+01
3.920096e+02	-3.002449e+01
3.942738e+02	-3.007167e+01
3.965511e+02	-3.010997e+01
3.988416e+02	-3.016655e+01
4.011452e+02	-3.021462e+01
4.034622e+02	-3.026717e+01
4.057926e+02	-3.031896e+01
4.081365e+02	-3.036901e+01
4.104938e+02	-3.041890e+01
4.128648e+02	-3.046857e+01
4.152495e+02	-3.052461e+01
4.176480e+02	-3.057097e+01
4.200603e+02	-3.061298e+01
4.224866e+02	-3.066651e+01
4.249268e+02	-3.071315e+01
4.273812e+02	-3.076648e+01
4.298497e+02	-3.081724e+01
4.323325e+02	-3.086312e+01
4.348297e+02	-3.092128e+01
4.373412e+02	-3.097270e+01
4.398673e+02	-3.102067e+01
4.424079e+02	-3.106787e+01
4.449633e+02	-3.111821e+01
4.475334e+02	-3.116958e+01
4.501183e+02	-3.122307e+01
4.527182e+02	-3.126802e+01
4.553330e+02	-3.132119e+01
4.579630e+02	-3.136960e+01
4.606082e+02	-3.141634e+01
4.632687e+02	-3.147525e+01
4.659445e+02	-3.152350e+01
4.686358e+02	-3.157099e+01
4.713426e+02	-3.162252e+01
4.740650e+02	-3.167342e+01
4.768032e+02	-3.171594e+01
4.795572e+02	-3.176694e+01
4.823271e+02	-3.182398e+01
4.851130e+02	-3.187302e+01
4.879150e+02	-3.192273e+01
4.907332e+02	-3.197346e+01
4.935676e+02	-3.202124e+01
4.964185e+02	-3.207959e+01
4.992858e+02	-3.212314e+01
5.021696e+02	-3.216968e+01
5.050701e+02	-3.222055e+01
5.079874e+02	-3.227095e+01
5.109215e+02	-3.231981e+01
5.138726e+02	-3.237552e+01
5.168407e+02	-3.242538e+01
5.198259e+02	-3.247311e+01
5.228284e+02	-3.252704e+01
5.258482e+02	-3.257621e+01
5.288855e+02	-3.262856e+01
5.319403e+02	-3.267604e+01
5.350128e+02	-3.272037e+01
5.381030e+02	-3.277650e+01
5.412111e+02	-3.282687e+01
5.443371e+02	-3.287437e+01
5.474812e+02	-3.293101e+01
5.506434e+02	-3.297369e+01
5.538239e+02	-3.303239e+01
5.570228e+02	-3.307848e+01
5.602401e+02	-3.313167e+01
5.634760e+02	-3.317853e+01
5.667306e+02	-3.323939e+01
5.700040e+02	-3.327422e+01
5.732964e+02	-3.332715e+01
5.766077e+02	-3.338058e+01
5.799382e+02	-3.343135e+01
5.832879e+02	-3.348084e+01
5.866569e+02	-3.353661e+01
5.900454e+02	-3.357580e+01
5.934535e+02	-3.362652e+01
5.968813e+02	-3.367748e+01
6.003288e+02	-3.373471e+01
6.037963e+02	-3.378131e+01
6.072838e+02	-3.383181e+01
6.107914e+02	-3.388404e+01
6.143194e+02	-3.392969e+01
6.178676e+02	-3.398386e+01
6.214364e+02	-3.403406e+01
6.250258e+02	-3.408027e+01
6.286359e+02	-3.412995e+01
6.322669e+02	-3.418637e+01
6.359189e+02	-3.423017e+01
6.395919e+02	-3.428131e+01
6.432862e+02	-3.433551e+01
6.470017e+02	-3.438612e+01
6.507388e+02	-3.443737e+01
6.544974e+02	-3.448425e+01
6.582778e+02	-3.453230e+01
6.620800e+02	-3.458293e+01
6.659041e+02	-3.464503e+01
6.697504e+02	-3.469445e+01
6.736188e+02	-3.473229e+01
6.775096e+02	-3.478907e+01
6.814229e+02	-3.483698e+01
6.853587e+02	-3.488950e+01
6.893173e+02	-3.494327e+01
6.932988e+02	-3.499577e+01
6.973033e+02	-3.504412e+01
7.013309e+02	-3.509778e+01
