Frequency(Hz)	Magnitude(dB)
1.000000e+01	-2.308510e+00
1.005776e+01	-2.329058e+00
1.011585e+01	-2.350027e+00
1.017428e+01	-2.370798e+00
1.023305e+01	-2.392019e+00
1.029215e+01	-2.413298e+00
1.035160e+01	-2.434693e+00
1.041139e+01	-2.456221e+00
1.047153e+01	-2.477847e+00
1.053201e+01	-2.499714e+00
1.059284e+01	-2.521440e+00
1.065403e+01	-2.543781e+00
1.071556e+01	-2.566185e+00
1.077746e+01	-2.588406e+00
1.083971e+01	-2.610765e+00
1.090232e+01	-2.633585e+00
1.096529e+01	-2.656470e+00
1.102862e+01	-2.679395e+00
1.109232e+01	-2.702577e+00
1.115639e+01	-2.725598e+00
1.122083e+01	-2.749169e+00
1.128564e+01	-2.772748e+00
1.135083e+01	-2.796252e+00
1.141639e+01	-2.820340e+00
1.148233e+01	-2.844142e+00
1.154865e+01	-2.868157e+00
1.161536e+01	-2.892359e+00
1.168245e+01	-2.916882e+00
1.174992e+01	-2.941600e+00
1.181779e+01	-2.966136e+00
1.188605e+01	-2.990739e+00
1.195470e+01	-3.016055e+00
1.202375e+01	-3.041054e+00
1.209320e+01	-3.066113e+00
1.216305e+01	-3.091783e+00
1.223330e+01	-3.117372e+00
1.230396e+01	-3.142826e+00
1.237503e+01	-3.168506e+00
1.244651e+01	-3.194930e+00
1.251840e+01	-3.220806e+00
1.259070e+01	-3.247023e+00
1.266343e+01	-3.273494e+00
1.273657e+01	-3.300139e+00
1.281014e+01	-3.326805e+00
1.288413e+01	-3.353530e+00
1.295855e+01	-3.380665e+00
1.303339e+01	-3.407712e+00
1.310867e+01	-3.435020e+00
1.318439e+01	-3.462525e+00
1.326054e+01	-3.489688e+00
1.333713e+01	-3.517751e+00
1.341417e+01	-3.545599e+00
1.349165e+01	-3.573517e+00
1.356958e+01	-3.601619e+00
1.364795e+01	-3.630087e+00
1.372678e+01	-3.658610e+00
1.380607e+01	-3.686916e+00
1.388581e+01	-3.715651e+00
1.396602e+01	-3.744273e+00
1.404668e+01	-3.773576e+00
1.412782e+01	-3.802666e+00
1.420942e+01	-3.831622e+00
1.429149e+01	-3.861410e+00
1.437404e+01	-3.890832e+00
1.445706e+01	-3.920033e+00
1.454057e+01	-3.950305e+00
1.462455e+01	-3.980228e+00
1.470902e+01	-4.010209e+00
1.479398e+01	-4.040352e+00
1.487943e+01	-4.070924e+00
1.496537e+01	-4.101147e+00
1.505181e+01	-4.131861e+00
1.513875e+01	-4.162785e+00
1.522619e+01	-4.193672e+00
1.531414e+01	-4.224676e+00
1.540259e+01	-4.256055e+00
1.549156e+01	-4.287074e+00
1.558103e+01	-4.318373e+00
1.567103e+01	-4.350103e+00
1.576155e+01	-4.381609e+00
1.585258e+01	-4.413479e+00
1.594415e+01	-4.445627e+00
1.603624e+01	-4.477958e+00
1.612886e+01	-4.509837e+00
1.622202e+01	-4.542593e+00
1.631572e+01	-4.575217e+00
1.640996e+01	-4.607765e+00
1.650474e+01	-4.640459e+00
1.660008e+01	-4.673601e+00
1.669596e+01	-4.706171e+00
1.679239e+01	-4.739462e+00
1.688938e+01	-4.772726e+00
1.698694e+01	-4.806132e+00
1.708505e+01	-4.839834e+00
1.718373e+01	-4.873205e+00
1.728299e+01	-4.907360e+00
1.738281e+01	-4.941124e+00
1.748322e+01	-4.974816e+00
1.758420e+01	-5.009429e+00
1.768576e+01	-5.043715e+00
1.778792e+01	-5.078399e+00
1.789066e+01	-5.112650e+00
1.799399e+01	-5.147453e+00
1.809793e+01	-5.182176e+00
1.820246e+01	-5.216996e+00
1.830760e+01	-5.252228e+00
1.841334e+01	-5.287544e+00
1.851969e+01	-5.322682e+00
1.862666e+01	-5.358047e+00
1.873425e+01	-5.393418e+00
1.884246e+01	-5.429140e+00
1.895129e+01	-5.464829e+00
1.906075e+01	-5.500548e+00
1.917085e+01	-5.536819e+00
1.928158e+01	-5.572737e+00
1.939295e+01	-5.608812e+00
1.950496e+01	-5.645174e+00
1.961762e+01	-5.681897e+00
1.973093e+01	-5.718286e+00
1.984490e+01	-5.755115e+00
1.995952e+01	-5.791604e+00
2.007480e+01	-5.828885e+00
2.019076e+01	-5.865946e+00
2.030738e+01	-5.902644e+00
2.042467e+01	-5.940153e+00
2.054264e+01	-5.977160e+00
2.066130e+01	-6.014977e+00
2.078064e+01	-6.052452e+00
2.090066e+01	-6.090238e+00
2.102139e+01	-6.127876e+00
2.114280e+01	-6.165906e+00
2.126492e+01	-6.203590e+00
2.138775e+01	-6.241768e+00
2.151128e+01	-6.280155e+00
2.163553e+01	-6.318564e+00
2.176050e+01	-6.356655e+00
2.188619e+01	-6.395265e+00
2.201260e+01	-6.433861e+00
2.213974e+01	-6.472559e+00
2.226762e+01	-6.511502e+00
2.239624e+01	-6.550469e+00
2.252560e+01	-6.589306e+00
2.265571e+01	-6.628353e+00
2.278656e+01	-6.667677e+00
2.291818e+01	-6.706919e+00
2.305055e+01	-6.746277e+00
2.318369e+01	-6.785317e+00
2.331760e+01	-6.825316e+00
2.345228e+01	-6.864625e+00
2.358774e+01	-6.904736e+00
2.372398e+01	-6.945000e+00
2.386101e+01	-6.984419e+00
2.399883e+01	-7.024248e+00
2.413745e+01	-7.064531e+00
2.427686e+01	-7.104710e+00
2.441709e+01	-7.145045e+00
2.455812e+01	-7.185607e+00
2.469997e+01	-7.226364e+00
2.484263e+01	-7.266764e+00
2.498612e+01	-7.307176e+00
2.513044e+01	-7.348337e+00
2.527559e+01	-7.388850e+00
2.542158e+01	-7.430337e+00
2.556842e+01	-7.471315e+00
2.571610e+01	-7.512395e+00
2.586463e+01	-7.553577e+00
2.601403e+01	-7.594972e+00
2.616428e+01	-7.636495e+00
2.631541e+01	-7.677817e+00
2.646740e+01	-7.719108e+00
2.662028e+01	-7.760922e+00
2.677404e+01	-7.802744e+00
2.692868e+01	-7.843874e+00
2.708422e+01	-7.886180e+00
2.724066e+01	-7.927786e+00
2.739800e+01	-7.969776e+00
2.755625e+01	-8.012037e+00
2.771541e+01	-8.053749e+00
2.787550e+01	-8.096363e+00
2.803650e+01	-8.139254e+00
2.819844e+01	-8.181215e+00
2.836131e+01	-8.223389e+00
2.852513e+01	-8.266110e+00
2.868989e+01	-8.308814e+00
2.885560e+01	-8.351269e+00
2.902227e+01	-8.394317e+00
2.918990e+01	-8.436974e+00
2.935850e+01	-8.479986e+00
2.952807e+01	-8.522280e+00
2.969863e+01	-8.565644e+00
2.987016e+01	-8.608805e+00
3.004269e+01	-8.651951e+00
3.021622e+01	-8.695567e+00
3.039075e+01	-8.738656e+00
3.056628e+01	-8.782045e+00
3.074283e+01	-8.825152e+00
3.092040e+01	-8.868799e+00
3.109900e+01	-8.912268e+00
3.127862e+01	-8.956234e+00
3.145929e+01	-9.000196e+00
3.164099e+01	-9.043387e+00
3.182375e+01	-9.087287e+00
3.200756e+01	-9.131207e+00
3.219244e+01	-9.175265e+00
3.237838e+01	-9.218955e+00
3.256540e+01	-9.263284e+00
3.275349e+01	-9.307230e+00
3.294268e+01	-9.351855e+00
3.313295e+01	-9.395825e+00
3.332433e+01	-9.440185e+00
3.351681e+01	-9.484542e+00
3.371040e+01	-9.528550e+00
3.390511e+01	-9.573352e+00
3.410094e+01	-9.618290e+00
3.429791e+01	-9.662925e+00
3.449601e+01	-9.707083e+00
3.469526e+01	-9.752188e+00
3.489566e+01	-9.796715e+00
3.509721e+01	-9.841633e+00
3.529993e+01	-9.886305e+00
3.550382e+01	-9.931434e+00
3.570889e+01	-9.976495e+00
3.591515e+01	-1.002169e+01
3.612259e+01	-1.006702e+01
3.633123e+01	-1.011165e+01
3.654108e+01	-1.015697e+01
3.675214e+01	-1.020196e+01
3.696442e+01	-1.024706e+01
3.717792e+01	-1.029269e+01
3.739266e+01	-1.033782e+01
3.760864e+01	-1.038298e+01
3.782587e+01	-1.042901e+01
3.804435e+01	-1.047419e+01
3.826409e+01	-1.051937e+01
3.848510e+01	-1.056589e+01
3.870739e+01	-1.061103e+01
3.893096e+01	-1.065670e+01
3.915583e+01	-1.070259e+01
3.938199e+01	-1.074809e+01
3.960946e+01	-1.079417e+01
3.983824e+01	-1.084009e+01
4.006834e+01	-1.088569e+01
4.029978e+01	-1.093168e+01
4.053255e+01	-1.097769e+01
4.076666e+01	-1.102414e+01
4.100213e+01	-1.106980e+01
4.123896e+01	-1.111633e+01
4.147715e+01	-1.116204e+01
4.171672e+01	-1.120882e+01
4.195767e+01	-1.125483e+01
4.220002e+01	-1.130078e+01
4.244377e+01	-1.134733e+01
4.268892e+01	-1.139403e+01
4.293549e+01	-1.144010e+01
4.318348e+01	-1.148673e+01
4.343291e+01	-1.153328e+01
4.368377e+01	-1.157924e+01
4.393609e+01	-1.162629e+01
4.418986e+01	-1.167297e+01
4.444510e+01	-1.171953e+01
4.470182e+01	-1.176666e+01
4.496001e+01	-1.181271e+01
4.521970e+01	-1.185977e+01
4.548089e+01	-1.190696e+01
4.574358e+01	-1.195307e+01
4.600779e+01	-1.199986e+01
4.627353e+01	-1.204721e+01
4.654081e+01	-1.209490e+01
4.680963e+01	-1.214130e+01
4.708000e+01	-1.218810e+01
4.735193e+01	-1.223494e+01
4.762543e+01	-1.228240e+01
4.790051e+01	-1.232947e+01
4.817719e+01	-1.237621e+01
4.845545e+01	-1.242362e+01
4.873533e+01	-1.247083e+01
4.901682e+01	-1.251778e+01
4.929994e+01	-1.256522e+01
4.958470e+01	-1.261194e+01
4.987110e+01	-1.265963e+01
5.015915e+01	-1.270654e+01
5.044887e+01	-1.275451e+01
5.074026e+01	-1.280195e+01
5.103333e+01	-1.284936e+01
5.132810e+01	-1.289685e+01
5.162457e+01	-1.294410e+01
5.192275e+01	-1.299117e+01
5.222265e+01	-1.303925e+01
5.252429e+01	-1.308640e+01
5.282767e+01	-1.313423e+01
5.313280e+01	-1.318160e+01
5.343969e+01	-1.322945e+01
5.374836e+01	-1.327639e+01
5.405880e+01	-1.332509e+01
5.437105e+01	-1.337220e+01
5.468509e+01	-1.342035e+01
5.500095e+01	-1.346841e+01
5.531863e+01	-1.351585e+01
5.563815e+01	-1.356368e+01
5.595951e+01	-1.361178e+01
5.628273e+01	-1.365921e+01
5.660782e+01	-1.370636e+01
5.693479e+01	-1.375498e+01
5.726364e+01	-1.380367e+01
5.759439e+01	-1.384994e+01
5.792705e+01	-1.389960e+01
5.826164e+01	-1.394658e+01
5.859815e+01	-1.399505e+01
5.893662e+01	-1.404463e+01
5.927703e+01	-1.409114e+01
5.961941e+01	-1.413843e+01
5.996377e+01	-1.418708e+01
6.031012e+01	-1.423572e+01
6.065847e+01	-1.428402e+01
6.100883e+01	-1.433199e+01
6.136121e+01	-1.438031e+01
6.171563e+01	-1.442870e+01
6.207210e+01	-1.447594e+01
6.243063e+01	-1.452461e+01
6.279122e+01	-1.457376e+01
6.315390e+01	-1.461992e+01
6.351868e+01	-1.467030e+01
6.388556e+01	-1.471773e+01
6.425456e+01	-1.476657e+01
6.462569e+01	-1.481405e+01
6.499897e+01	-1.486302e+01
6.537440e+01	-1.491119e+01
6.575200e+01	-1.496083e+01
6.613178e+01	-1.500913e+01
6.651375e+01	-1.505634e+01
6.689793e+01	-1.510461e+01
6.728433e+01	-1.515346e+01
6.767297e+01	-1.520216e+01
6.806384e+01	-1.525029e+01
6.845698e+01	-1.529826e+01
6.885238e+01	-1.534676e+01
6.925007e+01	-1.539680e+01
6.965005e+01	-1.544513e+01
7.005235e+01	-1.549334e+01
7.045697e+01	-1.554245e+01
7.086393e+01	-1.559054e+01
7.127323e+01	-1.563974e+01
7.168490e+01	-1.568833e+01
7.209895e+01	-1.573595e+01
7.251539e+01	-1.578556e+01
7.293424e+01	-1.583435e+01
7.335551e+01	-1.588403e+01
7.377920e+01	-1.593025e+01
7.420535e+01	-1.598064e+01
7.463396e+01	-1.602926e+01
7.506504e+01	-1.607891e+01
7.549861e+01	-1.612630e+01
7.593469e+01	-1.617569e+01
7.637328e+01	-1.622509e+01
7.681441e+01	-1.627359e+01
7.725809e+01	-1.632147e+01
7.770433e+01	-1.637188e+01
7.815315e+01	-1.641980e+01
7.860456e+01	-1.646783e+01
7.905857e+01	-1.651780e+01
7.951521e+01	-1.656694e+01
7.997449e+01	-1.661551e+01
8.043642e+01	-1.666525e+01
8.090102e+01	-1.671253e+01
8.136830e+01	-1.676282e+01
8.183828e+01	-1.681252e+01
8.231097e+01	-1.686166e+01
8.278640e+01	-1.690866e+01
8.326457e+01	-1.695764e+01
8.374550e+01	-1.700777e+01
8.422921e+01	-1.705703e+01
8.471572e+01	-1.710533e+01
8.520503e+01	-1.715441e+01
8.569717e+01	-1.720386e+01
8.619215e+01	-1.725304e+01
8.669000e+01	-1.730282e+01
8.719071e+01	-1.734973e+01
8.769432e+01	-1.739948e+01
8.820084e+01	-1.744817e+01
8.871029e+01	-1.749874e+01
8.922267e+01	-1.754699e+01
8.973802e+01	-1.759704e+01
9.025634e+01	-1.764507e+01
9.077766e+01	-1.769450e+01
9.130199e+01	-1.774440e+01
9.182935e+01	-1.779396e+01
9.235975e+01	-1.784118e+01
9.289321e+01	-1.789267e+01
9.342976e+01	-1.794105e+01
9.396941e+01	-1.798926e+01
9.451217e+01	-1.804017e+01
9.505807e+01	-1.808770e+01
9.560712e+01	-1.813794e+01
9.615934e+01	-1.818777e+01
9.671476e+01	-1.823590e+01
9.727338e+01	-1.828620e+01
9.783522e+01	-1.833458e+01
9.840032e+01	-1.838347e+01
9.896867e+01	-1.843314e+01
9.954031e+01	-1.848383e+01
1.001153e+02	-1.853199e+01
1.006935e+02	-1.858185e+01
1.012751e+02	-1.863080e+01
1.018601e+02	-1.868010e+01
1.024484e+02	-1.872929e+01
1.030402e+02	-1.877878e+01
1.036353e+02	-1.882823e+01
1.042339e+02	-1.887742e+01
1.048360e+02	-1.892757e+01
1.054415e+02	-1.897726e+01
1.060505e+02	-1.902694e+01
1.066631e+02	-1.907551e+01
1.072791e+02	-1.912296e+01
1.078988e+02	-1.917384e+01
1.085220e+02	-1.922442e+01
1.091488e+02	-1.927304e+01
1.097793e+02	-1.932280e+01
1.104133e+02	-1.937243e+01
1.110511e+02	-1.942182e+01
1.116925e+02	-1.947071e+01
1.123376e+02	-1.952095e+01
1.129865e+02	-1.956997e+01
1.136391e+02	-1.961990e+01
1.142955e+02	-1.966902e+01
1.149556e+02	-1.971714e+01
1.156196e+02	-1.976841e+01
1.162874e+02	-1.981724e+01
1.169591e+02	-1.986870e+01
1.176347e+02	-1.991709e+01
1.183141e+02	-1.996497e+01
1.189975e+02	-2.001457e+01
1.196848e+02	-2.006497e+01
1.203761e+02	-2.011407e+01
1.210714e+02	-2.016324e+01
1.217707e+02	-2.021445e+01
1.224740e+02	-2.026247e+01
1.231814e+02	-2.031259e+01
1.238929e+02	-2.036308e+01
1.246085e+02	-2.041260e+01
1.253283e+02	-2.046024e+01
1.260522e+02	-2.051170e+01
1.267802e+02	-2.056181e+01
1.275125e+02	-2.061010e+01
1.282490e+02	-2.066080e+01
1.289898e+02	-2.070999e+01
1.297348e+02	-2.076018e+01
1.304842e+02	-2.080931e+01
1.312378e+02	-2.085869e+01
1.319959e+02	-2.090877e+01
1.327583e+02	-2.095829e+01
1.335251e+02	-2.100720e+01
1.342963e+02	-2.105805e+01
1.350720e+02	-2.110668e+01
1.358522e+02	-2.115517e+01
1.366368e+02	-2.120620e+01
1.374260e+02	-2.125639e+01
1.382198e+02	-2.130468e+01
1.390182e+02	-2.135440e+01
1.398211e+02	-2.140356e+01
1.406287e+02	-2.145463e+01
1.414410e+02	-2.150385e+01
1.422579e+02	-2.155405e+01
1.430796e+02	-2.160452e+01
1.439060e+02	-2.165388e+01
1.447372e+02	-2.170226e+01
1.455732e+02	-2.175172e+01
1.464141e+02	-2.180272e+01
1.472597e+02	-2.185175e+01
1.481103e+02	-2.190310e+01
1.489658e+02	-2.195350e+01
1.498262e+02	-2.200099e+01
1.506916e+02	-2.204941e+01
1.515620e+02	-2.210193e+01
1.524374e+02	-2.214990e+01
1.533179e+02	-2.220099e+01
1.542034e+02	-2.224981e+01
1.550941e+02	-2.229886e+01
1.559899e+02	-2.235012e+01
1.568909e+02	-2.239842e+01
1.577971e+02	-2.244919e+01
1.587085e+02	-2.249870e+01
1.596252e+02	-2.255109e+01
1.605472e+02	-2.259663e+01
1.614745e+02	-2.264859e+01
1.624072e+02	-2.269791e+01
1.633453e+02	-2.274965e+01
1.642887e+02	-2.279652e+01
1.652377e+02	-2.284595e+01
1.661921e+02	-2.289497e+01
1.671520e+02	-2.294800e+01
1.681175e+02	-2.299766e+01
1.690885e+02	-2.304719e+01
1.700651e+02	-2.309642e+01
1.710474e+02	-2.314575e+01
1.720354e+02	-2.319356e+01
1.730291e+02	-2.324666e+01
1.740285e+02	-2.329667e+01
1.750337e+02	-2.334141e+01
1.760446e+02	-2.339594e+01
1.770615e+02	-2.344535e+01
1.780842e+02	-2.349242e+01
1.791128e+02	-2.354219e+01
1.801473e+02	-2.359407e+01
1.811878e+02	-2.364582e+01
1.822344e+02	-2.369204e+01
1.832870e+02	-2.374651e+01
1.843456e+02	-2.379473e+01
1.854104e+02	-2.384422e+01
1.864813e+02	-2.389280e+01
1.875584e+02	-2.394378e+01
1.886418e+02	-2.399054e+01
1.897313e+02	-2.404608e+01
1.908272e+02	-2.409260e+01
1.919294e+02	-2.414293e+01
1.930380e+02	-2.419283e+01
1.941530e+02	-2.424192e+01
1.952744e+02	-2.429456e+01
1.964023e+02	-2.434124e+01
1.975367e+02	-2.439448e+01
1.986777e+02	-2.444160e+01
1.998252e+02	-2.448751e+01
2.009794e+02	-2.454168e+01
2.021403e+02	-2.459131e+01
2.033078e+02	-2.464163e+01
2.044821e+02	-2.469154e+01
2.056632e+02	-2.474183e+01
2.068511e+02	-2.478853e+01
2.080459e+02	-2.484291e+01
2.092475e+02	-2.489077e+01
2.104561e+02	-2.493890e+01
2.116717e+02	-2.499096e+01
2.128943e+02	-2.504122e+01
2.141240e+02	-2.509214e+01
2.153608e+02	-2.514179e+01
2.166047e+02	-2.518925e+01
2.178558e+02	-2.524331e+01
2.191141e+02	-2.529134e+01
2.203797e+02	-2.534289e+01
2.216526e+02	-2.539044e+01
2.229329e+02	-2.543936e+01
2.242205e+02	-2.549295e+01
2.255156e+02	-2.553906e+01
2.268182e+02	-2.558941e+01
2.281283e+02	-2.563903e+01
2.294459e+02	-2.568883e+01
2.307712e+02	-2.574171e+01
2.321041e+02	-2.578583e+01
2.334447e+02	-2.583709e+01
2.347931e+02	-2.588656e+01
2.361493e+02	-2.593737e+01
2.375133e+02	-2.599344e+01
2.388851e+02	-2.604128e+01
2.402649e+02	-2.608951e+01
2.416527e+02	-2.613779e+01
2.430484e+02	-2.618757e+01
2.444523e+02	-2.623811e+01
2.458642e+02	-2.628836e+01
2.472843e+02	-2.633705e+01
2.487126e+02	-2.638872e+01
2.501492e+02	-2.643760e+01
2.515940e+02	-2.648907e+01
2.530472e+02	-2.654141e+01
2.545088e+02	-2.658630e+01
2.559789e+02	-2.663703e+01
2.574574e+02	-2.669308e+01
2.589444e+02	-2.673596e+01
2.604401e+02	-2.678962e+01
2.619444e+02	-2.683867e+01
2.634574e+02	-2.689195e+01
2.649791e+02	-2.693874e+01
2.665096e+02	-2.698838e+01
2.680489e+02	-2.703779e+01
2.695972e+02	-2.709069e+01
2.711544e+02	-2.713748e+01
2.727205e+02	-2.718826e+01
2.742958e+02	-2.723832e+01
2.758801e+02	-2.728729e+01
2.774736e+02	-2.734010e+01
2.790762e+02	-2.738662e+01
2.806882e+02	-2.744163e+01
2.823094e+02	-2.749008e+01
2.839400e+02	-2.753530e+01
2.855800e+02	-2.759342e+01
2.872295e+02	-2.763949e+01
2.888886e+02	-2.768690e+01
2.905572e+02	-2.773729e+01
2.922354e+02	-2.778959e+01
2.939234e+02	-2.783777e+01
2.956211e+02	-2.788914e+01
2.973286e+02	-2.793692e+01
2.990459e+02	-2.798813e+01
3.007732e+02	-2.803804e+01
3.025104e+02	-2.808666e+01
3.042577e+02	-2.814075e+01
3.060151e+02	-2.818698e+01
3.077826e+02	-2.824164e+01
3.095604e+02	-2.828849e+01
3.113484e+02	-2.833694e+01
3.131467e+02	-2.839064e+01
3.149554e+02	-2.843679e+01
3.167746e+02	-2.849539e+01
3.186043e+02	-2.854218e+01
3.204445e+02	-2.858864e+01
3.222954e+02	-2.864164e+01
3.241570e+02	-2.869179e+01
3.260293e+02	-2.874203e+01
3.279124e+02	-2.878631e+01
3.298064e+02	-2.883571e+01
3.317114e+02	-2.889066e+01
3.336273e+02	-2.894109e+01
3.355544e+02	-2.898906e+01
3.374925e+02	-2.903845e+01
3.394418e+02	-2.909005e+01
3.414024e+02	-2.913819e+01
3.433744e+02	-2.918916e+01
3.453577e+02	-2.923856e+01
3.473525e+02	-2.929160e+01
3.493588e+02	-2.933846e+01
3.513766e+02	-2.939052e+01
3.534062e+02	-2.944188e+01
3.554474e+02	-2.949273e+01
3.575005e+02	-2.953930e+01
3.595654e+02	-2.958934e+01
3.616422e+02	-2.964699e+01
3.637311e+02	-2.968865e+01
3.658320e+02	-2.974178e+01
3.679450e+02	-2.979025e+01
3.700702e+02	-2.984427e+01
3.722077e+02	-2.989143e+01
3.743576e+02	-2.994359e+01
3.765199e+02	-2.998732e+01
3.786946e+02	-3.004141e+01
3.808820e+02	-3.008791e+01
3.830819e+02	-3.013931e+01
3.852946e+02	-3.019358e+01
3.875200e+02	-3.024105e+01
3.897583e+02	-3.028477e+01
3.920096e+02	-3.033766e+01
3.942738e+02	-3.039243e+01
3.965511e+02	-3.044741e+01
3.988416e+02	-3.049319e+01
4.011452e+02	-3.054439e+01
4.034622e+02	-3.059481e+01
4.057926e+02	-3.064825e+01
4.081365e+02	-3.069059e+01
4.104938e+02	-3.074302e+01
4.128648e+02	-3.078479e+01
4.152495e+02	-3.084609e+01
4.176480e+02	-3.089640e+01
4.200603e+02	-3.094124e+01
4.224866e+02	-3.099115e+01
4.249268e+02	-3.104309e+01
4.273812e+02	-3.109441e+01
4.298497e+02	-3.114319e+01
4.323325e+02	-3.119294e+01
4.348297e+02	-3.124452e+01
4.373412e+02	-3.129644e+01
4.398673e+02	-3.134760e+01
4.424079e+02	-3.139818e+01
4.449633e+02	-3.144442e+01
4.475334e+02	-3.149542e+01
4.501183e+02	-3.154168e+01
4.527182e+02	-3.159781e+01
4.553330e+02	-3.164433e+01
4.579630e+02	-3.169455e+01
4.606082e+02	-3.174586e+01
4.632687e+02	-3.179829e+01
4.659445e+02	-3.184178e+01
4.686358e+02	-3.189246e+01
4.713426e+02	-3.194136e+01
4.740650e+02	-3.199994e+01
4.768032e+02	-3.203645e+01
4.795572e+02	-3.209587e+01
4.823271e+02	-3.214662e+01
4.851130e+02	-3.219365e+01
4.879150e+02	-3.224932e+01
4.907332e+02	-3.229743e+01
4.935676e+02	-3.234252e+01
4.964185e+02	-3.240050e+01
4.992858e+02	-3.245091e+01
5.021696e+02	-3.249723e+01
5.050701e+02	-3.254472e+01
5.079874e+02	-3.259840e+01
5.109215e+02	-3.264467e+01
5.138726e+02	-3.269845e+01
5.168407e+02	-3.274473e+01
5.198259e+02	-3.279821e+01
5.228284e+02	-3.284585e+01
5.258482e+02	-3.289293e+01
5.288855e+02	-3.294898e+01
5.319403e+02	-3.299993e+01
5.350128e+02	-3.305437e+01
5.381030e+02	-3.309759e+01
5.412111e+02	-3.314936e+01
5.443371e+02	-3.321162e+01
5.474812e+02	-3.325224e+01
5.506434e+02	-3.330165e+01
5.538239e+02	-3.334819e+01
5.570228e+02	-3.340501e+01
5.602401e+02	-3.345108e+01
5.634760e+02	-3.350791e+01
5.667306e+02	-3.355437e+01
5.700040e+02	-3.359888e+01
5.732964e+02	-3.365468e+01
5.766077e+02	-3.370410e+01
5.799382e+02	-3.375708e+01
5.832879e+02	-3.379755e+01
5.866569e+02	-3.385058e+01
5.900454e+02	-3.390372e+01
5.934535e+02	-3.395058e+01
5.968813e+02	-3.400355e+01
6.003288e+02	-3.405212e+01
6.037963e+02	-3.410853e+01
6.072838e+02	-3.415288e+01
6.107914e+02	-3.421157e+01
6.143194e+02	-3.425023e+01
6.178676e+02	-3.430956e+01
6.214364e+02	-3.436476e+01
6.250258e+02	-3.440367e+01
6.286359e+02	-3.445142e+01
6.322669e+02	-3.450372e+01
6.359189e+02	-3.455890e+01
6.395919e+02	-3.460920e+01
6.432862e+02	-3.466464e+01
6.470017e+02	-3.471536e+01
6.507388e+02	-3.475579e+01
6.544974e+02	-3.481269e+01
6.582778e+02	-3.486526e+01
6.620800e+02	-3.491303e+01
6.659041e+02	-3.496234e+01
6.697504e+02	-3.501298e+01
6.736188e+02	-3.506697e+01
6.775096e+02	-3.511901e+01
6.814229e+02	-3.516274e+01
6.853587e+02	-3.521980e+01
6.893173e+02	-3.526452e+01
6.932988e+02	-3.530644e+01
6.973033e+02	-3.536425e+01
7.013309e+02	-3.541523e+01
