Frequency(Hz)	Magnitude(dB)
1.000000e+01	-2.141386e+00
1.005776e+01	-2.160775e+00
1.011585e+01	-2.180627e+00
1.017428e+01	-2.200272e+00
1.023305e+01	-2.220463e+00
1.029215e+01	-2.240609e+00
1.035160e+01	-2.260837e+00
1.041139e+01	-2.280964e+00
1.047153e+01	-2.301636e+00
1.053201e+01	-2.322162e+00
1.059284e+01	-2.342818e+00
1.065403e+01	-2.363863e+00
1.071556e+01	-2.385217e+00
1.077746e+01	-2.406139e+00
1.083971e+01	-2.427500e+00
1.090232e+01	-2.448939e+00
1.096529e+01	-2.470759e+00
1.102862e+01	-2.492282e+00
1.109232e+01	-2.514160e+00
1.115639e+01	-2.536408e+00
1.122083e+01	-2.558611e+00
1.128564e+01	-2.580824e+00
1.135083e+01	-2.603516e+00
1.141639e+01	-2.625898e+00
1.148233e+01	-2.648954e+00
1.154865e+01	-2.671682e+00
1.161536e+01	-2.694865e+00
1.168245e+01	-2.718131e+00
1.174992e+01	-2.741562e+00
1.181779e+01	-2.764701e+00
1.188605e+01	-2.788261e+00
1.195470e+01	-2.812305e+00
1.202375e+01	-2.836269e+00
1.209320e+01	-2.860192e+00
1.216305e+01	-2.884482e+00
1.223330e+01	-2.908705e+00
1.230396e+01	-2.933294e+00
1.237503e+01	-2.957697e+00
1.244651e+01	-2.982592e+00
1.251840e+01	-3.007517e+00
1.259070e+01	-3.032818e+00
1.266343e+01	-3.057868e+00
1.273657e+01	-3.083414e+00
1.281014e+01	-3.108925e+00
1.288413e+01	-3.134612e+00
1.295855e+01	-3.160168e+00
1.303339e+01	-3.186177e+00
1.310867e+01	-3.212333e+00
1.318439e+01	-3.238407e+00
1.326054e+01	-3.264938e+00
1.333713e+01	-3.291306e+00
1.341417e+01	-3.317866e+00
1.349165e+01	-3.344721e+00
1.356958e+01	-3.371602e+00
1.364795e+01	-3.398775e+00
1.372678e+01	-3.426066e+00
1.380607e+01	-3.453398e+00
1.388581e+01	-3.480862e+00
1.396602e+01	-3.508673e+00
1.404668e+01	-3.536363e+00
1.412782e+01	-3.564364e+00
1.420942e+01	-3.592625e+00
1.429149e+01	-3.620679e+00
1.437404e+01	-3.648708e+00
1.445706e+01	-3.677438e+00
1.454057e+01	-3.705942e+00
1.462455e+01	-3.735007e+00
1.470902e+01	-3.763802e+00
1.479398e+01	-3.792668e+00
1.487943e+01	-3.822102e+00
1.496537e+01	-3.851401e+00
1.505181e+01	-3.880750e+00
1.513875e+01	-3.910467e+00
1.522619e+01	-3.940424e+00
1.531414e+01	-3.970021e+00
1.540259e+01	-4.000385e+00
1.549156e+01	-4.030587e+00
1.558103e+01	-4.060706e+00
1.567103e+01	-4.090839e+00
1.576155e+01	-4.121769e+00
1.585258e+01	-4.152829e+00
1.594415e+01	-4.183413e+00
1.603624e+01	-4.214206e+00
1.612886e+01	-4.245151e+00
1.622202e+01	-4.276830e+00
1.631572e+01	-4.308122e+00
1.640996e+01	-4.339648e+00
1.650474e+01	-4.371528e+00
1.660008e+01	-4.403200e+00
1.669596e+01	-4.434834e+00
1.679239e+01	-4.467439e+00
1.688938e+01	-4.499395e+00
1.698694e+01	-4.532007e+00
1.708505e+01	-4.564255e+00
1.718373e+01	-4.597155e+00
1.728299e+01	-4.629513e+00
1.738281e+01	-4.662415e+00
1.748322e+01	-4.695506e+00
1.758420e+01	-4.728425e+00
1.768576e+01	-4.761706e+00
1.778792e+01	-4.795150e+00
1.789066e+01	-4.828590e+00
1.799399e+01	-4.862193e+00
1.809793e+01	-4.896229e+00
1.820246e+01	-4.929949e+00
1.830760e+01	-4.963955e+00
1.841334e+01	-4.998285e+00
1.851969e+01	-5.032312e+00
1.862666e+01	-5.067007e+00
1.873425e+01	-5.101512e+00
1.884246e+01	-5.135737e+00
1.895129e+01	-5.170539e+00
1.906075e+01	-5.205633e+00
1.917085e+01	-5.240449e+00
1.928158e+01	-5.275639e+00
1.939295e+01	-5.310829e+00
1.950496e+01	-5.346173e+00
1.961762e+01	-5.381804e+00
1.973093e+01	-5.417622e+00
1.984490e+01	-5.452858e+00
1.995952e+01	-5.488732e+00
2.007480e+01	-5.524973e+00
2.019076e+01	-5.560576e+00
2.030738e+01	-5.596974e+00
2.042467e+01	-5.633294e+00
2.054264e+01	-5.669562e+00
2.066130e+01	-5.706261e+00
2.078064e+01	-5.742704e+00
2.090066e+01	-5.779341e+00
2.102139e+01	-5.816340e+00
2.114280e+01	-5.853419e+00
2.126492e+01	-5.890526e+00
2.138775e+01	-5.927836e+00
2.151128e+01	-5.965305e+00
2.163553e+01	-6.002705e+00
2.176050e+01	-6.040016e+00
2.188619e+01	-6.077797e+00
2.201260e+01	-6.115552e+00
2.213974e+01	-6.153629e+00
2.226762e+01	-6.191389e+00
2.239624e+01	-6.229003e+00
2.252560e+01	-6.267337e+00
2.265571e+01	-6.305659e+00
2.278656e+01	-6.344095e+00
2.291818e+01	-6.382278e+00
2.305055e+01	-6.420797e+00
2.318369e+01	-6.459289e+00
2.331760e+01	-6.498110e+00
2.345228e+01	-6.537276e+00
2.358774e+01	-6.576346e+00
2.372398e+01	-6.615183e+00
2.386101e+01	-6.654302e+00
2.399883e+01	-6.693565e+00
2.413745e+01	-6.732778e+00
2.427686e+01	-6.772894e+00
2.441709e+01	-6.812297e+00
2.455812e+01	-6.852110e+00
2.469997e+01	-6.891363e+00
2.484263e+01	-6.931469e+00
2.498612e+01	-6.971238e+00
2.513044e+01	-7.011399e+00
2.527559e+01	-7.051446e+00
2.542158e+01	-7.091527e+00
2.556842e+01	-7.131679e+00
2.571610e+01	-7.172174e+00
2.586463e+01	-7.213051e+00
2.601403e+01	-7.253454e+00
2.616428e+01	-7.293926e+00
2.631541e+01	-7.334278e+00
2.646740e+01	-7.375823e+00
2.662028e+01	-7.416866e+00
2.677404e+01	-7.457743e+00
2.692868e+01	-7.498616e+00
2.708422e+01	-7.539917e+00
2.724066e+01	-7.580624e+00
2.739800e+01	-7.622415e+00
2.755625e+01	-7.663544e+00
2.771541e+01	-7.705294e+00
2.787550e+01	-7.747328e+00
2.803650e+01	-7.788650e+00
2.819844e+01	-7.830524e+00
2.836131e+01	-7.871918e+00
2.852513e+01	-7.914295e+00
2.868989e+01	-7.955730e+00
2.885560e+01	-7.997967e+00
2.902227e+01	-8.040533e+00
2.918990e+01	-8.082203e+00
2.935850e+01	-8.124913e+00
2.952807e+01	-8.167557e+00
2.969863e+01	-8.209425e+00
2.987016e+01	-8.251633e+00
3.004269e+01	-8.294522e+00
3.021622e+01	-8.337024e+00
3.039075e+01	-8.380379e+00
3.056628e+01	-8.422529e+00
3.074283e+01	-8.465810e+00
3.092040e+01	-8.508713e+00
3.109900e+01	-8.551494e+00
3.127862e+01	-8.594532e+00
3.145929e+01	-8.637773e+00
3.164099e+01	-8.681155e+00
3.182375e+01	-8.724291e+00
3.200756e+01	-8.767556e+00
3.219244e+01	-8.810814e+00
3.237838e+01	-8.854471e+00
3.256540e+01	-8.898115e+00
3.275349e+01	-8.941536e+00
3.294268e+01	-8.985060e+00
3.313295e+01	-9.029234e+00
3.332433e+01	-9.073065e+00
3.351681e+01	-9.116805e+00
3.371040e+01	-9.160587e+00
3.390511e+01	-9.204522e+00
3.410094e+01	-9.248935e+00
3.429791e+01	-9.293080e+00
3.449601e+01	-9.337516e+00
3.469526e+01	-9.380827e+00
3.489566e+01	-9.425619e+00
3.509721e+01	-9.469658e+00
3.529993e+01	-9.514322e+00
3.550382e+01	-9.558837e+00
3.570889e+01	-9.603263e+00
3.591515e+01	-9.647639e+00
3.612259e+01	-9.692665e+00
3.633123e+01	-9.737451e+00
3.654108e+01	-9.781614e+00
3.675214e+01	-9.826831e+00
3.696442e+01	-9.871141e+00
3.717792e+01	-9.916018e+00
3.739266e+01	-9.961374e+00
3.760864e+01	-1.000662e+01
3.782587e+01	-1.005108e+01
3.804435e+01	-1.009676e+01
3.826409e+01	-1.014225e+01
3.848510e+01	-1.018732e+01
3.870739e+01	-1.023192e+01
3.893096e+01	-1.027744e+01
3.915583e+01	-1.032334e+01
3.938199e+01	-1.036729e+01
3.960946e+01	-1.041381e+01
3.983824e+01	-1.045985e+01
4.006834e+01	-1.050525e+01
4.029978e+01	-1.055042e+01
4.053255e+01	-1.059596e+01
4.076666e+01	-1.064166e+01
4.100213e+01	-1.068722e+01
4.123896e+01	-1.073300e+01
4.147715e+01	-1.077924e+01
4.171672e+01	-1.082500e+01
4.195767e+01	-1.087050e+01
4.220002e+01	-1.091697e+01
4.244377e+01	-1.096214e+01
4.268892e+01	-1.100828e+01
4.293549e+01	-1.105484e+01
4.318348e+01	-1.110090e+01
4.343291e+01	-1.114722e+01
4.368377e+01	-1.119327e+01
4.393609e+01	-1.123946e+01
4.418986e+01	-1.128616e+01
4.444510e+01	-1.133216e+01
4.470182e+01	-1.137923e+01
4.496001e+01	-1.142484e+01
4.521970e+01	-1.147106e+01
4.548089e+01	-1.151777e+01
4.574358e+01	-1.156461e+01
4.600779e+01	-1.161163e+01
4.627353e+01	-1.165774e+01
4.654081e+01	-1.170473e+01
4.680963e+01	-1.175054e+01
4.708000e+01	-1.179688e+01
4.735193e+01	-1.184418e+01
4.762543e+01	-1.189141e+01
4.790051e+01	-1.193783e+01
4.817719e+01	-1.198523e+01
4.845545e+01	-1.203113e+01
4.873533e+01	-1.207856e+01
4.901682e+01	-1.212559e+01
4.929994e+01	-1.217239e+01
4.958470e+01	-1.221924e+01
4.987110e+01	-1.226609e+01
5.015915e+01	-1.231331e+01
5.044887e+01	-1.236075e+01
5.074026e+01	-1.240793e+01
5.103333e+01	-1.245498e+01
5.132810e+01	-1.250157e+01
5.162457e+01	-1.254915e+01
5.192275e+01	-1.259697e+01
5.222265e+01	-1.264494e+01
5.252429e+01	-1.269109e+01
5.282767e+01	-1.273857e+01
5.313280e+01	-1.278609e+01
5.343969e+01	-1.283328e+01
5.374836e+01	-1.288091e+01
5.405880e+01	-1.292854e+01
5.437105e+01	-1.297564e+01
5.468509e+01	-1.302292e+01
5.500095e+01	-1.307045e+01
5.531863e+01	-1.311866e+01
5.563815e+01	-1.316619e+01
5.595951e+01	-1.321363e+01
5.628273e+01	-1.326114e+01
5.660782e+01	-1.331003e+01
5.693479e+01	-1.335680e+01
5.726364e+01	-1.340466e+01
5.759439e+01	-1.345195e+01
5.792705e+01	-1.350053e+01
5.826164e+01	-1.354805e+01
5.859815e+01	-1.359545e+01
5.893662e+01	-1.364346e+01
5.927703e+01	-1.369123e+01
5.961941e+01	-1.373819e+01
5.996377e+01	-1.378755e+01
6.031012e+01	-1.383529e+01
6.065847e+01	-1.388241e+01
6.100883e+01	-1.393107e+01
6.136121e+01	-1.397902e+01
6.171563e+01	-1.402684e+01
6.207210e+01	-1.407598e+01
6.243063e+01	-1.412290e+01
6.279122e+01	-1.417098e+01
6.315390e+01	-1.421942e+01
6.351868e+01	-1.426769e+01
6.388556e+01	-1.431609e+01
6.425456e+01	-1.436328e+01
6.462569e+01	-1.441159e+01
6.499897e+01	-1.446034e+01
6.537440e+01	-1.450905e+01
6.575200e+01	-1.455630e+01
6.613178e+01	-1.460513e+01
6.651375e+01	-1.465343e+01
6.689793e+01	-1.470217e+01
6.728433e+01	-1.474970e+01
6.767297e+01	-1.479799e+01
6.806384e+01	-1.484731e+01
6.845698e+01	-1.489485e+01
6.885238e+01	-1.494441e+01
6.925007e+01	-1.499225e+01
6.965005e+01	-1.504106e+01
7.005235e+01	-1.508964e+01
7.045697e+01	-1.513799e+01
7.086393e+01	-1.518530e+01
7.127323e+01	-1.523447e+01
7.168490e+01	-1.528284e+01
7.209895e+01	-1.533138e+01
7.251539e+01	-1.538120e+01
7.293424e+01	-1.542837e+01
7.335551e+01	-1.547801e+01
7.377920e+01	-1.552541e+01
7.420535e+01	-1.557415e+01
7.463396e+01	-1.562385e+01
7.506504e+01	-1.567320e+01
7.549861e+01	-1.572065e+01
7.593469e+01	-1.576931e+01
7.637328e+01	-1.581870e+01
7.681441e+01	-1.586676e+01
7.725809e+01	-1.591550e+01
7.770433e+01	-1.596496e+01
7.815315e+01	-1.601309e+01
7.860456e+01	-1.606191e+01
7.905857e+01	-1.611197e+01
7.951521e+01	-1.615930e+01
7.997449e+01	-1.620852e+01
8.043642e+01	-1.625646e+01
8.090102e+01	-1.630552e+01
8.136830e+01	-1.635410e+01
8.183828e+01	-1.640470e+01
8.231097e+01	-1.645373e+01
8.278640e+01	-1.650271e+01
8.326457e+01	-1.655001e+01
8.374550e+01	-1.659894e+01
8.422921e+01	-1.664881e+01
8.471572e+01	-1.669724e+01
8.520503e+01	-1.674709e+01
8.569717e+01	-1.679434e+01
8.619215e+01	-1.684328e+01
8.669000e+01	-1.689362e+01
8.719071e+01	-1.694245e+01
8.769432e+01	-1.699122e+01
8.820084e+01	-1.704084e+01
8.871029e+01	-1.708882e+01
8.922267e+01	-1.713700e+01
8.973802e+01	-1.718760e+01
9.025634e+01	-1.723670e+01
9.077766e+01	-1.728453e+01
9.130199e+01	-1.733524e+01
9.182935e+01	-1.738275e+01
9.235975e+01	-1.743299e+01
9.289321e+01	-1.748247e+01
9.342976e+01	-1.753026e+01
9.396941e+01	-1.757924e+01
9.451217e+01	-1.763007e+01
9.505807e+01	-1.767830e+01
9.560712e+01	-1.772845e+01
9.615934e+01	-1.777621e+01
9.671476e+01	-1.782566e+01
9.727338e+01	-1.787500e+01
9.783522e+01	-1.792403e+01
9.840032e+01	-1.797388e+01
9.896867e+01	-1.802322e+01
9.954031e+01	-1.807232e+01
1.001153e+02	-1.812191e+01
1.006935e+02	-1.817041e+01
1.012751e+02	-1.822046e+01
1.018601e+02	-1.826986e+01
1.024484e+02	-1.831887e+01
1.030402e+02	-1.836914e+01
1.036353e+02	-1.841743e+01
1.042339e+02	-1.846623e+01
1.048360e+02	-1.851512e+01
1.054415e+02	-1.856571e+01
1.060505e+02	-1.861457e+01
1.066631e+02	-1.866372e+01
1.072791e+02	-1.871407e+01
1.078988e+02	-1.876384e+01
1.085220e+02	-1.881182e+01
1.091488e+02	-1.886148e+01
1.097793e+02	-1.891105e+01
1.104133e+02	-1.896050e+01
1.110511e+02	-1.900990e+01
1.116925e+02	-1.905856e+01
1.123376e+02	-1.910888e+01
1.129865e+02	-1.915828e+01
1.136391e+02	-1.920797e+01
1.142955e+02	-1.925699e+01
1.149556e+02	-1.930545e+01
1.156196e+02	-1.935560e+01
1.162874e+02	-1.940522e+01
1.169591e+02	-1.945526e+01
1.176347e+02	-1.950319e+01
1.183141e+02	-1.955427e+01
1.189975e+02	-1.960334e+01
1.196848e+02	-1.965144e+01
1.203761e+02	-1.970089e+01
1.210714e+02	-1.975059e+01
1.217707e+02	-1.980277e+01
1.224740e+02	-1.985093e+01
1.231814e+02	-1.990079e+01
1.238929e+02	-1.995061e+01
1.246085e+02	-2.000039e+01
1.253283e+02	-2.004955e+01
1.260522e+02	-2.009826e+01
1.267802e+02	-2.014893e+01
1.275125e+02	-2.019773e+01
1.282490e+02	-2.024705e+01
1.289898e+02	-2.029634e+01
1.297348e+02	-2.034642e+01
1.304842e+02	-2.039526e+01
1.312378e+02	-2.044689e+01
1.319959e+02	-2.049473e+01
1.327583e+02	-2.054516e+01
1.335251e+02	-2.059334e+01
1.342963e+02	-2.064290e+01
1.350720e+02	-2.069297e+01
1.358522e+02	-2.074296e+01
1.366368e+02	-2.079103e+01
1.374260e+02	-2.084209e+01
1.382198e+02	-2.089002e+01
1.390182e+02	-2.094023e+01
1.398211e+02	-2.099119e+01
1.406287e+02	-2.104071e+01
1.414410e+02	-2.109021e+01
1.422579e+02	-2.113938e+01
1.430796e+02	-2.118935e+01
1.439060e+02	-2.123912e+01
1.447372e+02	-2.129106e+01
1.455732e+02	-2.133906e+01
1.464141e+02	-2.138755e+01
1.472597e+02	-2.143719e+01
1.481103e+02	-2.148675e+01
1.489658e+02	-2.153840e+01
1.498262e+02	-2.158822e+01
1.506916e+02	-2.163749e+01
1.515620e+02	-2.168327e+01
1.524374e+02	-2.173551e+01
1.533179e+02	-2.178663e+01
1.542034e+02	-2.183401e+01
1.550941e+02	-2.188658e+01
1.559899e+02	-2.193583e+01
1.568909e+02	-2.198589e+01
1.577971e+02	-2.203478e+01
1.587085e+02	-2.208413e+01
1.596252e+02	-2.213466e+01
1.605472e+02	-2.218482e+01
1.614745e+02	-2.223443e+01
1.624072e+02	-2.228282e+01
1.633453e+02	-2.233283e+01
1.642887e+02	-2.238194e+01
1.652377e+02	-2.243258e+01
1.661921e+02	-2.248275e+01
1.671520e+02	-2.253172e+01
1.681175e+02	-2.258226e+01
1.690885e+02	-2.263334e+01
1.700651e+02	-2.268122e+01
1.710474e+02	-2.273186e+01
1.720354e+02	-2.278237e+01
1.730291e+02	-2.282995e+01
1.740285e+02	-2.288112e+01
1.750337e+02	-2.293149e+01
1.760446e+02	-2.297974e+01
1.770615e+02	-2.302910e+01
1.780842e+02	-2.308021e+01
1.791128e+02	-2.313026e+01
1.801473e+02	-2.317811e+01
1.811878e+02	-2.323082e+01
1.822344e+02	-2.327881e+01
1.832870e+02	-2.332715e+01
1.843456e+02	-2.337950e+01
1.854104e+02	-2.342488e+01
1.864813e+02	-2.347883e+01
1.875584e+02	-2.352633e+01
1.886418e+02	-2.357999e+01
1.897313e+02	-2.362891e+01
1.908272e+02	-2.367699e+01
1.919294e+02	-2.372834e+01
1.930380e+02	-2.377788e+01
1.941530e+02	-2.382838e+01
1.952744e+02	-2.387540e+01
1.964023e+02	-2.392717e+01
1.975367e+02	-2.397623e+01
1.986777e+02	-2.402738e+01
1.998252e+02	-2.407642e+01
2.009794e+02	-2.412533e+01
2.021403e+02	-2.417648e+01
2.033078e+02	-2.422718e+01
2.044821e+02	-2.427616e+01
2.056632e+02	-2.432444e+01
2.068511e+02	-2.437475e+01
2.080459e+02	-2.442603e+01
2.092475e+02	-2.447770e+01
2.104561e+02	-2.452521e+01
2.116717e+02	-2.457279e+01
2.128943e+02	-2.462560e+01
2.141240e+02	-2.467594e+01
2.153608e+02	-2.472702e+01
2.166047e+02	-2.477140e+01
2.178558e+02	-2.482585e+01
2.191141e+02	-2.487376e+01
2.203797e+02	-2.492399e+01
2.216526e+02	-2.497790e+01
2.229329e+02	-2.502520e+01
2.242205e+02	-2.507300e+01
2.255156e+02	-2.512513e+01
2.268182e+02	-2.517187e+01
2.281283e+02	-2.522273e+01
2.294459e+02	-2.527544e+01
2.307712e+02	-2.532502e+01
2.321041e+02	-2.537212e+01
2.334447e+02	-2.542206e+01
2.347931e+02	-2.547496e+01
2.361493e+02	-2.552818e+01
2.375133e+02	-2.557220e+01
2.388851e+02	-2.562403e+01
2.402649e+02	-2.566920e+01
2.416527e+02	-2.572397e+01
2.430484e+02	-2.577162e+01
2.444523e+02	-2.582132e+01
2.458642e+02	-2.587241e+01
2.472843e+02	-2.592552e+01
2.487126e+02	-2.597147e+01
2.501492e+02	-2.602380e+01
2.515940e+02	-2.606976e+01
2.530472e+02	-2.612476e+01
2.545088e+02	-2.617510e+01
2.559789e+02	-2.622118e+01
2.574574e+02	-2.627018e+01
2.589444e+02	-2.632486e+01
2.604401e+02	-2.637177e+01
2.619444e+02	-2.642102e+01
2.634574e+02	-2.646959e+01
2.649791e+02	-2.651921e+01
2.665096e+02	-2.657290e+01
2.680489e+02	-2.662516e+01
2.695972e+02	-2.667269e+01
2.711544e+02	-2.672176e+01
2.727205e+02	-2.677248e+01
2.742958e+02	-2.682211e+01
2.758801e+02	-2.687202e+01
2.774736e+02	-2.692084e+01
2.790762e+02	-2.696902e+01
2.806882e+02	-2.702268e+01
2.823094e+02	-2.707162e+01
2.839400e+02	-2.712045e+01
2.855800e+02	-2.717097e+01
2.872295e+02	-2.722383e+01
2.888886e+02	-2.727193e+01
2.905572e+02	-2.732151e+01
2.922354e+02	-2.737005e+01
2.939234e+02	-2.741973e+01
2.956211e+02	-2.747121e+01
2.973286e+02	-2.752352e+01
2.990459e+02	-2.757179e+01
3.007732e+02	-2.762137e+01
3.025104e+02	-2.767218e+01
3.042577e+02	-2.772458e+01
3.060151e+02	-2.777114e+01
3.077826e+02	-2.782003e+01
3.095604e+02	-2.787158e+01
3.113484e+02	-2.791822e+01
3.131467e+02	-2.797318e+01
3.149554e+02	-2.802162e+01
3.167746e+02	-2.807131e+01
3.186043e+02	-2.812487e+01
3.204445e+02	-2.816945e+01
3.222954e+02	-2.822124e+01
3.241570e+02	-2.827155e+01
3.260293e+02	-2.831987e+01
3.279124e+02	-2.837653e+01
3.298064e+02	-2.842398e+01
3.317114e+02	-2.846912e+01
3.336273e+02	-2.852179e+01
3.355544e+02	-2.857365e+01
3.374925e+02	-2.862761e+01
3.394418e+02	-2.867127e+01
3.414024e+02	-2.872405e+01
3.433744e+02	-2.877545e+01
3.453577e+02	-2.882313e+01
3.473525e+02	-2.887425e+01
3.493588e+02	-2.892658e+01
3.513766e+02	-2.897127e+01
3.534062e+02	-2.902272e+01
3.554474e+02	-2.907078e+01
3.575005e+02	-2.912387e+01
3.595654e+02	-2.916898e+01
3.616422e+02	-2.922518e+01
3.637311e+02	-2.927264e+01
3.658320e+02	-2.932262e+01
3.679450e+02	-2.937060e+01
3.700702e+02	-2.942539e+01
3.722077e+02	-2.947043e+01
3.743576e+02	-2.952360e+01
3.765199e+02	-2.957172e+01
3.786946e+02	-2.962205e+01
3.808820e+02	-2.967505e+01
3.830819e+02	-2.972283e+01
3.852946e+02	-2.977633e+01
3.875200e+02	-2.982307e+01
3.897583e+02	-2.987053e+01
3.920096e+02	-2.992270e+01
3.942738e+02	-2.997747e+01
3.965511e+02	-3.002685e+01
3.988416e+02	-3.007423e+01
4.011452e+02	-3.012249e+01
4.034622e+02	-3.016902e+01
4.057926e+02	-3.022364e+01
4.081365e+02	-3.027407e+01
4.104938e+02	-3.032421e+01
4.128648e+02	-3.037588e+01
4.152495e+02	-3.042517e+01
4.176480e+02	-3.047643e+01
4.200603e+02	-3.052239e+01
4.224866e+02	-3.057781e+01
4.249268e+02	-3.062622e+01
4.273812e+02	-3.067773e+01
4.298497e+02	-3.072578e+01
4.323325e+02	-3.077470e+01
4.348297e+02	-3.082390e+01
4.373412e+02	-3.087418e+01
4.398673e+02	-3.092280e+01
4.424079e+02	-3.097570e+01
4.449633e+02	-3.102871e+01
4.475334e+02	-3.107422e+01
4.501183e+02	-3.112989e+01
4.527182e+02	-3.117595e+01
4.553330e+02	-3.122896e+01
4.579630e+02	-3.127530e+01
4.606082e+02	-3.132808e+01
4.632687e+02	-3.138314e+01
4.659445e+02	-3.142736e+01
4.686358e+02	-3.148053e+01
4.713426e+02	-3.153604e+01
4.740650e+02	-3.157389e+01
4.768032e+02	-3.162506e+01
4.795572e+02	-3.167963e+01
4.823271e+02	-3.172337e+01
4.851130e+02	-3.177205e+01
4.879150e+02	-3.182682e+01
4.907332e+02	-3.188375e+01
4.935676e+02	-3.192304e+01
4.964185e+02	-3.198211e+01
4.992858e+02	-3.202736e+01
5.021696e+02	-3.208220e+01
5.050701e+02	-3.212924e+01
5.079874e+02	-3.218104e+01
5.109215e+02	-3.222774e+01
5.138726e+02	-3.228308e+01
5.168407e+02	-3.233071e+01
5.198259e+02	-3.238185e+01
5.228284e+02	-3.243247e+01
5.258482e+02	-3.247913e+01
5.288855e+02	-3.253220e+01
5.319403e+02	-3.257850e+01
5.350128e+02	-3.263198e+01
5.381030e+02	-3.268647e+01
5.412111e+02	-3.272925e+01
5.443371e+02	-3.277610e+01
5.474812e+02	-3.283174e+01
5.506434e+02	-3.288631e+01
5.538239e+02	-3.293963e+01
5.570228e+02	-3.297670e+01
5.602401e+02	-3.303156e+01
5.634760e+02	-3.308268e+01
5.667306e+02	-3.314011e+01
5.700040e+02	-3.318324e+01
5.732964e+02	-3.322996e+01
5.766077e+02	-3.328501e+01
5.799382e+02	-3.333531e+01
5.832879e+02	-3.337605e+01
5.866569e+02	-3.343159e+01
5.900454e+02	-3.348457e+01
5.934535e+02	-3.354106e+01
5.968813e+02	-3.357817e+01
6.003288e+02	-3.363546e+01
6.037963e+02	-3.368911e+01
6.072838e+02	-3.373681e+01
6.107914e+02	-3.379096e+01
6.143194e+02	-3.384023e+01
6.178676e+02	-3.388841e+01
6.214364e+02	-3.394082e+01
6.250258e+02	-3.398558e+01
6.286359e+02	-3.404107e+01
6.322669e+02	-3.409155e+01
6.359189e+02	-3.414014e+01
6.395919e+02	-3.419257e+01
6.432862e+02	-3.423970e+01
6.470017e+02	-3.429253e+01
6.507388e+02	-3.434283e+01
6.544974e+02	-3.438894e+01
6.582778e+02	-3.443319e+01
6.620800e+02	-3.448753e+01
6.659041e+02	-3.453923e+01
6.697504e+02	-3.458824e+01
6.736188e+02	-3.464169e+01
6.775096e+02	-3.469305e+01
6.814229e+02	-3.475181e+01
6.853587e+02	-3.479527e+01
6.893173e+02	-3.484831e+01
6.932988e+02	-3.488060e+01
6.973033e+02	-3.495338e+01
7.013309e+02	-3.499227e+01
