Frequency(Hz)	Magnitude(dB)
1.000000e+01	-2.128418e+00
1.005776e+01	-2.147825e+00
1.011585e+01	-2.167485e+00
1.017428e+01	-2.187097e+00
1.023305e+01	-2.207057e+00
1.029215e+01	-2.226997e+00
1.035160e+01	-2.246953e+00
1.041139e+01	-2.267376e+00
1.047153e+01	-2.287985e+00
1.053201e+01	-2.308340e+00
1.059284e+01	-2.329237e+00
1.065403e+01	-2.349753e+00
1.071556e+01	-2.370864e+00
1.077746e+01	-2.392008e+00
1.083971e+01	-2.413239e+00
1.090232e+01	-2.434779e+00
1.096529e+01	-2.456161e+00
1.102862e+01	-2.477870e+00
1.109232e+01	-2.499609e+00
1.115639e+01	-2.521748e+00
1.122083e+01	-2.543813e+00
1.128564e+01	-2.565872e+00
1.135083e+01	-2.588461e+00
1.141639e+01	-2.611023e+00
1.148233e+01	-2.633753e+00
1.154865e+01	-2.656268e+00
1.161536e+01	-2.679455e+00
1.168245e+01	-2.702359e+00
1.174992e+01	-2.725738e+00
1.181779e+01	-2.749098e+00
1.188605e+01	-2.772811e+00
1.195470e+01	-2.796300e+00
1.202375e+01	-2.820227e+00
1.209320e+01	-2.843942e+00
1.216305e+01	-2.868248e+00
1.223330e+01	-2.892311e+00
1.230396e+01	-2.916897e+00
1.237503e+01	-2.941268e+00
1.244651e+01	-2.966194e+00
1.251840e+01	-2.990891e+00
1.259070e+01	-3.015748e+00
1.266343e+01	-3.041073e+00
1.273657e+01	-3.066247e+00
1.281014e+01	-3.091617e+00
1.288413e+01	-3.117479e+00
1.295855e+01	-3.143213e+00
1.303339e+01	-3.169005e+00
1.310867e+01	-3.194750e+00
1.318439e+01	-3.220998e+00
1.326054e+01	-3.247218e+00
1.333713e+01	-3.273327e+00
1.341417e+01	-3.299917e+00
1.349165e+01	-3.326857e+00
1.356958e+01	-3.353776e+00
1.364795e+01	-3.380344e+00
1.372678e+01	-3.407722e+00
1.380607e+01	-3.435088e+00
1.388581e+01	-3.462406e+00
1.396602e+01	-3.490005e+00
1.404668e+01	-3.517613e+00
1.412782e+01	-3.545551e+00
1.420942e+01	-3.573419e+00
1.429149e+01	-3.601427e+00
1.437404e+01	-3.629839e+00
1.445706e+01	-3.658526e+00
1.454057e+01	-3.687048e+00
1.462455e+01	-3.715538e+00
1.470902e+01	-3.744352e+00
1.479398e+01	-3.773401e+00
1.487943e+01	-3.802331e+00
1.496537e+01	-3.831670e+00
1.505181e+01	-3.861344e+00
1.513875e+01	-3.890353e+00
1.522619e+01	-3.920370e+00
1.531414e+01	-3.950165e+00
1.540259e+01	-3.979808e+00
1.549156e+01	-4.010176e+00
1.558103e+01	-4.040356e+00
1.567103e+01	-4.070910e+00
1.576155e+01	-4.101118e+00
1.585258e+01	-4.131730e+00
1.594415e+01	-4.162833e+00
1.603624e+01	-4.194003e+00
1.612886e+01	-4.224652e+00
1.622202e+01	-4.255670e+00
1.631572e+01	-4.287079e+00
1.640996e+01	-4.318712e+00
1.650474e+01	-4.350299e+00
1.660008e+01	-4.381821e+00
1.669596e+01	-4.413725e+00
1.679239e+01	-4.445720e+00
1.688938e+01	-4.478112e+00
1.698694e+01	-4.510188e+00
1.708505e+01	-4.542460e+00
1.718373e+01	-4.574686e+00
1.728299e+01	-4.607493e+00
1.738281e+01	-4.640520e+00
1.748322e+01	-4.673373e+00
1.758420e+01	-4.706128e+00
1.768576e+01	-4.739152e+00
1.778792e+01	-4.772906e+00
1.789066e+01	-4.806215e+00
1.799399e+01	-4.839691e+00
1.809793e+01	-4.873240e+00
1.820246e+01	-4.907185e+00
1.830760e+01	-4.941196e+00
1.841334e+01	-4.975296e+00
1.851969e+01	-5.009264e+00
1.862666e+01	-5.043516e+00
1.873425e+01	-5.078138e+00
1.884246e+01	-5.112638e+00
1.895129e+01	-5.147634e+00
1.906075e+01	-5.182111e+00
1.917085e+01	-5.216903e+00
1.928158e+01	-5.251857e+00
1.939295e+01	-5.287254e+00
1.950496e+01	-5.322600e+00
1.961762e+01	-5.357762e+00
1.973093e+01	-5.393497e+00
1.984490e+01	-5.429373e+00
1.995952e+01	-5.465185e+00
2.007480e+01	-5.500709e+00
2.019076e+01	-5.536864e+00
2.030738e+01	-5.572643e+00
2.042467e+01	-5.608987e+00
2.054264e+01	-5.645169e+00
2.066130e+01	-5.681450e+00
2.078064e+01	-5.718058e+00
2.090066e+01	-5.755045e+00
2.102139e+01	-5.791952e+00
2.114280e+01	-5.828862e+00
2.126492e+01	-5.865811e+00
2.138775e+01	-5.902750e+00
2.151128e+01	-5.940479e+00
2.163553e+01	-5.977244e+00
2.176050e+01	-6.014974e+00
2.188619e+01	-6.052481e+00
2.201260e+01	-6.090189e+00
2.213974e+01	-6.127863e+00
2.226762e+01	-6.166041e+00
2.239624e+01	-6.203676e+00
2.252560e+01	-6.241788e+00
2.265571e+01	-6.280055e+00
2.278656e+01	-6.318425e+00
2.291818e+01	-6.356606e+00
2.305055e+01	-6.395047e+00
2.318369e+01	-6.433851e+00
2.331760e+01	-6.472732e+00
2.345228e+01	-6.510975e+00
2.358774e+01	-6.549894e+00
2.372398e+01	-6.589470e+00
2.386101e+01	-6.628462e+00
2.399883e+01	-6.667495e+00
2.413745e+01	-6.706596e+00
2.427686e+01	-6.745994e+00
2.441709e+01	-6.785721e+00
2.455812e+01	-6.825248e+00
2.469997e+01	-6.865201e+00
2.484263e+01	-6.904705e+00
2.498612e+01	-6.944650e+00
2.513044e+01	-6.984933e+00
2.527559e+01	-7.024936e+00
2.542158e+01	-7.064832e+00
2.556842e+01	-7.105020e+00
2.571610e+01	-7.145562e+00
2.586463e+01	-7.186018e+00
2.601403e+01	-7.226822e+00
2.616428e+01	-7.266954e+00
2.631541e+01	-7.307922e+00
2.646740e+01	-7.348204e+00
2.662028e+01	-7.389415e+00
2.677404e+01	-7.430414e+00
2.692868e+01	-7.471096e+00
2.708422e+01	-7.512066e+00
2.724066e+01	-7.553790e+00
2.739800e+01	-7.594562e+00
2.755625e+01	-7.635952e+00
2.771541e+01	-7.677140e+00
2.787550e+01	-7.719248e+00
2.803650e+01	-7.760855e+00
2.819844e+01	-7.802194e+00
2.836131e+01	-7.844300e+00
2.852513e+01	-7.885878e+00
2.868989e+01	-7.927840e+00
2.885560e+01	-7.969917e+00
2.902227e+01	-8.011880e+00
2.918990e+01	-8.054300e+00
2.935850e+01	-8.096272e+00
2.952807e+01	-8.138778e+00
2.969863e+01	-8.181127e+00
2.987016e+01	-8.223457e+00
3.004269e+01	-8.265871e+00
3.021622e+01	-8.308519e+00
3.039075e+01	-8.351343e+00
3.056628e+01	-8.394101e+00
3.074283e+01	-8.436917e+00
3.092040e+01	-8.479730e+00
3.109900e+01	-8.522976e+00
3.127862e+01	-8.565792e+00
3.145929e+01	-8.609039e+00
3.164099e+01	-8.652129e+00
3.182375e+01	-8.695576e+00
3.200756e+01	-8.738565e+00
3.219244e+01	-8.781702e+00
3.237838e+01	-8.825597e+00
3.256540e+01	-8.868977e+00
3.275349e+01	-8.912535e+00
3.294268e+01	-8.955979e+00
3.313295e+01	-9.000242e+00
3.332433e+01	-9.043472e+00
3.351681e+01	-9.087108e+00
3.371040e+01	-9.131186e+00
3.390511e+01	-9.175303e+00
3.410094e+01	-9.218620e+00
3.429791e+01	-9.263235e+00
3.449601e+01	-9.307693e+00
3.469526e+01	-9.351071e+00
3.489566e+01	-9.395649e+00
3.509721e+01	-9.440102e+00
3.529993e+01	-9.484269e+00
3.550382e+01	-9.529527e+00
3.570889e+01	-9.572981e+00
3.591515e+01	-9.618275e+00
3.612259e+01	-9.662758e+00
3.633123e+01	-9.707378e+00
3.654108e+01	-9.752075e+00
3.675214e+01	-9.796359e+00
3.696442e+01	-9.841767e+00
3.717792e+01	-9.886627e+00
3.739266e+01	-9.931187e+00
3.760864e+01	-9.976499e+00
3.782587e+01	-1.002090e+01
3.804435e+01	-1.006607e+01
3.826409e+01	-1.011167e+01
3.848510e+01	-1.015681e+01
3.870739e+01	-1.020150e+01
3.893096e+01	-1.024701e+01
3.915583e+01	-1.029248e+01
3.938199e+01	-1.033841e+01
3.960946e+01	-1.038326e+01
3.983824e+01	-1.042861e+01
4.006834e+01	-1.047434e+01
4.029978e+01	-1.051927e+01
4.053255e+01	-1.056571e+01
4.076666e+01	-1.061124e+01
4.100213e+01	-1.065693e+01
4.123896e+01	-1.070293e+01
4.147715e+01	-1.074861e+01
4.171672e+01	-1.079418e+01
4.195767e+01	-1.084032e+01
4.220002e+01	-1.088585e+01
4.244377e+01	-1.093196e+01
4.268892e+01	-1.097790e+01
4.293549e+01	-1.102369e+01
4.318348e+01	-1.107038e+01
4.343291e+01	-1.111619e+01
4.368377e+01	-1.116278e+01
4.393609e+01	-1.120867e+01
4.418986e+01	-1.125480e+01
4.444510e+01	-1.130172e+01
4.470182e+01	-1.134764e+01
4.496001e+01	-1.139411e+01
4.521970e+01	-1.144026e+01
4.548089e+01	-1.148680e+01
4.574358e+01	-1.153303e+01
4.600779e+01	-1.157953e+01
4.627353e+01	-1.162595e+01
4.654081e+01	-1.167319e+01
4.680963e+01	-1.172021e+01
4.708000e+01	-1.176633e+01
4.735193e+01	-1.181321e+01
4.762543e+01	-1.185989e+01
4.790051e+01	-1.190678e+01
4.817719e+01	-1.195354e+01
4.845545e+01	-1.200035e+01
4.873533e+01	-1.204694e+01
4.901682e+01	-1.209429e+01
4.929994e+01	-1.214088e+01
4.958470e+01	-1.218845e+01
4.987110e+01	-1.223495e+01
5.015915e+01	-1.228180e+01
5.044887e+01	-1.232939e+01
5.074026e+01	-1.237652e+01
5.103333e+01	-1.242323e+01
5.132810e+01	-1.247118e+01
5.162457e+01	-1.251801e+01
5.192275e+01	-1.256473e+01
5.222265e+01	-1.261256e+01
5.252429e+01	-1.265964e+01
5.282767e+01	-1.270669e+01
5.313280e+01	-1.275367e+01
5.343969e+01	-1.280172e+01
5.374836e+01	-1.284951e+01
5.405880e+01	-1.289632e+01
5.437105e+01	-1.294395e+01
5.468509e+01	-1.299158e+01
5.500095e+01	-1.303847e+01
5.531863e+01	-1.308664e+01
5.563815e+01	-1.313436e+01
5.595951e+01	-1.318211e+01
5.628273e+01	-1.323000e+01
5.660782e+01	-1.327688e+01
5.693479e+01	-1.332459e+01
5.726364e+01	-1.337231e+01
5.759439e+01	-1.342041e+01
5.792705e+01	-1.346837e+01
5.826164e+01	-1.351607e+01
5.859815e+01	-1.356329e+01
5.893662e+01	-1.361156e+01
5.927703e+01	-1.365953e+01
5.961941e+01	-1.370721e+01
5.996377e+01	-1.375547e+01
6.031012e+01	-1.380266e+01
6.065847e+01	-1.385111e+01
6.100883e+01	-1.389936e+01
6.136121e+01	-1.394706e+01
6.171563e+01	-1.399550e+01
6.207210e+01	-1.404198e+01
6.243063e+01	-1.409163e+01
6.279122e+01	-1.413941e+01
6.315390e+01	-1.418752e+01
6.351868e+01	-1.423620e+01
6.388556e+01	-1.428417e+01
6.425456e+01	-1.433178e+01
6.462569e+01	-1.437963e+01
6.499897e+01	-1.442819e+01
6.537440e+01	-1.447582e+01
6.575200e+01	-1.452433e+01
6.613178e+01	-1.457283e+01
6.651375e+01	-1.462163e+01
6.689793e+01	-1.466956e+01
6.728433e+01	-1.471777e+01
6.767297e+01	-1.476532e+01
6.806384e+01	-1.481431e+01
6.845698e+01	-1.486317e+01
6.885238e+01	-1.491119e+01
6.925007e+01	-1.495928e+01
6.965005e+01	-1.500855e+01
7.005235e+01	-1.505660e+01
7.045697e+01	-1.510546e+01
7.086393e+01	-1.515372e+01
7.127323e+01	-1.520189e+01
7.168490e+01	-1.525059e+01
7.209895e+01	-1.529956e+01
7.251539e+01	-1.534798e+01
7.293424e+01	-1.539610e+01
7.335551e+01	-1.544501e+01
7.377920e+01	-1.549430e+01
7.420535e+01	-1.554210e+01
7.463396e+01	-1.559119e+01
7.506504e+01	-1.563903e+01
7.549861e+01	-1.568871e+01
7.593469e+01	-1.573740e+01
7.637328e+01	-1.578588e+01
7.681441e+01	-1.583351e+01
7.725809e+01	-1.588257e+01
7.770433e+01	-1.593207e+01
7.815315e+01	-1.598045e+01
7.860456e+01	-1.602918e+01
7.905857e+01	-1.607768e+01
7.951521e+01	-1.612657e+01
7.997449e+01	-1.617545e+01
8.043642e+01	-1.622527e+01
8.090102e+01	-1.627329e+01
8.136830e+01	-1.632248e+01
8.183828e+01	-1.637097e+01
8.231097e+01	-1.641953e+01
8.278640e+01	-1.646725e+01
8.326457e+01	-1.651641e+01
8.374550e+01	-1.656663e+01
8.422921e+01	-1.661568e+01
8.471572e+01	-1.666464e+01
8.520503e+01	-1.671375e+01
8.569717e+01	-1.676228e+01
8.619215e+01	-1.681063e+01
8.669000e+01	-1.686136e+01
8.719071e+01	-1.690874e+01
8.769432e+01	-1.695883e+01
8.820084e+01	-1.700781e+01
8.871029e+01	-1.705644e+01
8.922267e+01	-1.710590e+01
8.973802e+01	-1.715431e+01
9.025634e+01	-1.720312e+01
9.077766e+01	-1.725176e+01
9.130199e+01	-1.730186e+01
9.182935e+01	-1.735262e+01
9.235975e+01	-1.740042e+01
9.289321e+01	-1.744961e+01
9.342976e+01	-1.749903e+01
9.396941e+01	-1.754669e+01
9.451217e+01	-1.759770e+01
9.505807e+01	-1.764516e+01
9.560712e+01	-1.769439e+01
9.615934e+01	-1.774371e+01
9.671476e+01	-1.779349e+01
9.727338e+01	-1.784273e+01
9.783522e+01	-1.789153e+01
9.840032e+01	-1.794153e+01
9.896867e+01	-1.799015e+01
9.954031e+01	-1.803982e+01
1.001153e+02	-1.808834e+01
1.006935e+02	-1.813764e+01
1.012751e+02	-1.818773e+01
1.018601e+02	-1.823622e+01
1.024484e+02	-1.828549e+01
1.030402e+02	-1.833570e+01
1.036353e+02	-1.838472e+01
1.042339e+02	-1.843450e+01
1.048360e+02	-1.848328e+01
1.054415e+02	-1.853122e+01
1.060505e+02	-1.858029e+01
1.066631e+02	-1.863072e+01
1.072791e+02	-1.868014e+01
1.078988e+02	-1.873106e+01
1.085220e+02	-1.877934e+01
1.091488e+02	-1.882894e+01
1.097793e+02	-1.887829e+01
1.104133e+02	-1.892729e+01
1.110511e+02	-1.897799e+01
1.116925e+02	-1.902470e+01
1.123376e+02	-1.907591e+01
1.129865e+02	-1.912510e+01
1.136391e+02	-1.917322e+01
1.142955e+02	-1.922444e+01
1.149556e+02	-1.927497e+01
1.156196e+02	-1.932419e+01
1.162874e+02	-1.937212e+01
1.169591e+02	-1.942136e+01
1.176347e+02	-1.947082e+01
1.183141e+02	-1.951983e+01
1.189975e+02	-1.957025e+01
1.196848e+02	-1.961909e+01
1.203761e+02	-1.966908e+01
1.210714e+02	-1.971828e+01
1.217707e+02	-1.976715e+01
1.224740e+02	-1.981782e+01
1.231814e+02	-1.986563e+01
1.238929e+02	-1.991769e+01
1.246085e+02	-1.996536e+01
1.253283e+02	-2.001591e+01
1.260522e+02	-2.006474e+01
1.267802e+02	-2.011514e+01
1.275125e+02	-2.016619e+01
1.282490e+02	-2.021423e+01
1.289898e+02	-2.026219e+01
1.297348e+02	-2.031394e+01
1.304842e+02	-2.036209e+01
1.312378e+02	-2.041334e+01
1.319959e+02	-2.046217e+01
1.327583e+02	-2.050957e+01
1.335251e+02	-2.055953e+01
1.342963e+02	-2.061011e+01
1.350720e+02	-2.066089e+01
1.358522e+02	-2.070970e+01
1.366368e+02	-2.075853e+01
1.374260e+02	-2.080976e+01
1.382198e+02	-2.086000e+01
1.390182e+02	-2.090763e+01
1.398211e+02	-2.095825e+01
1.406287e+02	-2.100855e+01
1.414410e+02	-2.105608e+01
1.422579e+02	-2.110721e+01
1.430796e+02	-2.115803e+01
1.439060e+02	-2.120533e+01
1.447372e+02	-2.125400e+01
1.455732e+02	-2.130533e+01
1.464141e+02	-2.135551e+01
1.472597e+02	-2.140595e+01
1.481103e+02	-2.145427e+01
1.489658e+02	-2.150210e+01
1.498262e+02	-2.155271e+01
1.506916e+02	-2.160457e+01
1.515620e+02	-2.165406e+01
1.524374e+02	-2.170251e+01
1.533179e+02	-2.175291e+01
1.542034e+02	-2.180241e+01
1.550941e+02	-2.185379e+01
1.559899e+02	-2.190307e+01
1.568909e+02	-2.195173e+01
1.577971e+02	-2.200045e+01
1.587085e+02	-2.205078e+01
1.596252e+02	-2.210108e+01
1.605472e+02	-2.215073e+01
1.614745e+02	-2.219969e+01
1.624072e+02	-2.225012e+01
1.633453e+02	-2.230023e+01
1.642887e+02	-2.235043e+01
1.652377e+02	-2.239873e+01
1.661921e+02	-2.244810e+01
1.671520e+02	-2.249988e+01
1.681175e+02	-2.254788e+01
1.690885e+02	-2.259850e+01
1.700651e+02	-2.264890e+01
1.710474e+02	-2.270109e+01
1.720354e+02	-2.274758e+01
1.730291e+02	-2.279785e+01
1.740285e+02	-2.284594e+01
1.750337e+02	-2.289651e+01
1.760446e+02	-2.294664e+01
1.770615e+02	-2.299818e+01
1.780842e+02	-2.304577e+01
1.791128e+02	-2.309441e+01
1.801473e+02	-2.314591e+01
1.811878e+02	-2.319526e+01
1.822344e+02	-2.324410e+01
1.832870e+02	-2.329813e+01
1.843456e+02	-2.334541e+01
1.854104e+02	-2.339396e+01
1.864813e+02	-2.344463e+01
1.875584e+02	-2.349284e+01
1.886418e+02	-2.354531e+01
1.897313e+02	-2.359407e+01
1.908272e+02	-2.364383e+01
1.919294e+02	-2.369444e+01
1.930380e+02	-2.374217e+01
1.941530e+02	-2.379454e+01
1.952744e+02	-2.384370e+01
1.964023e+02	-2.389364e+01
1.975367e+02	-2.394551e+01
1.986777e+02	-2.399318e+01
1.998252e+02	-2.404124e+01
2.009794e+02	-2.409355e+01
2.021403e+02	-2.414266e+01
2.033078e+02	-2.419250e+01
2.044821e+02	-2.424105e+01
2.056632e+02	-2.428989e+01
2.068511e+02	-2.434087e+01
2.080459e+02	-2.439067e+01
2.092475e+02	-2.444248e+01
2.104561e+02	-2.449033e+01
2.116717e+02	-2.454049e+01
2.128943e+02	-2.459034e+01
2.141240e+02	-2.464363e+01
2.153608e+02	-2.469226e+01
2.166047e+02	-2.474321e+01
2.178558e+02	-2.479174e+01
2.191141e+02	-2.484082e+01
2.203797e+02	-2.489221e+01
2.216526e+02	-2.494162e+01
2.229329e+02	-2.498934e+01
2.242205e+02	-2.503892e+01
2.255156e+02	-2.508951e+01
2.268182e+02	-2.514394e+01
2.281283e+02	-2.519044e+01
2.294459e+02	-2.523817e+01
2.307712e+02	-2.529228e+01
2.321041e+02	-2.534265e+01
2.334447e+02	-2.539146e+01
2.347931e+02	-2.544190e+01
2.361493e+02	-2.549320e+01
2.375133e+02	-2.553905e+01
2.388851e+02	-2.559073e+01
2.402649e+02	-2.563937e+01
2.416527e+02	-2.568623e+01
2.430484e+02	-2.573972e+01
2.444523e+02	-2.579139e+01
2.458642e+02	-2.584007e+01
2.472843e+02	-2.588878e+01
2.487126e+02	-2.593758e+01
2.501492e+02	-2.598715e+01
2.515940e+02	-2.603647e+01
2.530472e+02	-2.608794e+01
2.545088e+02	-2.613963e+01
2.559789e+02	-2.619256e+01
2.574574e+02	-2.624202e+01
2.589444e+02	-2.628804e+01
2.604401e+02	-2.633690e+01
2.619444e+02	-2.638971e+01
2.634574e+02	-2.643948e+01
2.649791e+02	-2.648789e+01
2.665096e+02	-2.654084e+01
2.680489e+02	-2.658960e+01
2.695972e+02	-2.663873e+01
2.711544e+02	-2.669077e+01
2.727205e+02	-2.673767e+01
2.742958e+02	-2.678690e+01
2.758801e+02	-2.683748e+01
2.774736e+02	-2.688525e+01
2.790762e+02	-2.693929e+01
2.806882e+02	-2.698579e+01
2.823094e+02	-2.703918e+01
2.839400e+02	-2.708733e+01
2.855800e+02	-2.713719e+01
2.872295e+02	-2.718396e+01
2.888886e+02	-2.723717e+01
2.905572e+02	-2.728534e+01
2.922354e+02	-2.734130e+01
2.939234e+02	-2.738934e+01
2.956211e+02	-2.744068e+01
2.973286e+02	-2.748878e+01
2.990459e+02	-2.754196e+01
3.007732e+02	-2.758952e+01
3.025104e+02	-2.763880e+01
3.042577e+02	-2.768733e+01
3.060151e+02	-2.774138e+01
3.077826e+02	-2.778730e+01
3.095604e+02	-2.783597e+01
3.113484e+02	-2.788828e+01
3.131467e+02	-2.793996e+01
3.149554e+02	-2.798781e+01
3.167746e+02	-2.803822e+01
3.186043e+02	-2.809228e+01
3.204445e+02	-2.813922e+01
3.222954e+02	-2.819145e+01
3.241570e+02	-2.824028e+01
3.260293e+02	-2.828536e+01
3.279124e+02	-2.834027e+01
3.298064e+02	-2.838958e+01
3.317114e+02	-2.844200e+01
3.336273e+02	-2.849027e+01
3.355544e+02	-2.853728e+01
3.374925e+02	-2.858698e+01
3.394418e+02	-2.864025e+01
3.414024e+02	-2.869150e+01
3.433744e+02	-2.874022e+01
3.453577e+02	-2.878893e+01
3.473525e+02	-2.883953e+01
3.493588e+02	-2.889035e+01
3.513766e+02	-2.893761e+01
3.534062e+02	-2.898992e+01
3.554474e+02	-2.903877e+01
3.575005e+02	-2.909246e+01
3.595654e+02	-2.913788e+01
3.616422e+02	-2.918730e+01
3.637311e+02	-2.924201e+01
3.658320e+02	-2.928825e+01
3.679450e+02	-2.934102e+01
3.700702e+02	-2.938841e+01
3.722077e+02	-2.943786e+01
3.743576e+02	-2.948744e+01
3.765199e+02	-2.954224e+01
3.786946e+02	-2.959287e+01
3.808820e+02	-2.964206e+01
3.830819e+02	-2.969053e+01
3.852946e+02	-2.974381e+01
3.875200e+02	-2.979338e+01
3.897583e+02	-2.983909e+01
3.920096e+02	-2.989062e+01
3.942738e+02	-2.994474e+01
3.965511e+02	-2.999272e+01
3.988416e+02	-3.004063e+01
4.011452e+02	-3.009226e+01
4.034622e+02	-3.013943e+01
4.057926e+02	-3.018875e+01
4.081365e+02	-3.024652e+01
4.104938e+02	-3.029702e+01
4.128648e+02	-3.034037e+01
4.152495e+02	-3.039431e+01
4.176480e+02	-3.044670e+01
4.200603e+02	-3.049310e+01
4.224866e+02	-3.054568e+01
4.249268e+02	-3.059529e+01
4.273812e+02	-3.064533e+01
4.298497e+02	-3.069100e+01
4.323325e+02	-3.074096e+01
4.348297e+02	-3.078979e+01
4.373412e+02	-3.084845e+01
4.398673e+02	-3.089467e+01
4.424079e+02	-3.094723e+01
4.449633e+02	-3.099073e+01
4.475334e+02	-3.104031e+01
4.501183e+02	-3.109527e+01
4.527182e+02	-3.114013e+01
4.553330e+02	-3.119489e+01
4.579630e+02	-3.124421e+01
4.606082e+02	-3.129945e+01
4.632687e+02	-3.134130e+01
4.659445e+02	-3.139454e+01
4.686358e+02	-3.144612e+01
4.713426e+02	-3.149538e+01
4.740650e+02	-3.154137e+01
4.768032e+02	-3.159244e+01
4.795572e+02	-3.165237e+01
4.823271e+02	-3.169842e+01
4.851130e+02	-3.174451e+01
4.879150e+02	-3.179228e+01
4.907332e+02	-3.184219e+01
4.935676e+02	-3.190305e+01
4.964185e+02	-3.195309e+01
4.992858e+02	-3.199885e+01
5.021696e+02	-3.204759e+01
5.050701e+02	-3.209612e+01
5.079874e+02	-3.214646e+01
5.109215e+02	-3.219919e+01
5.138726e+02	-3.225391e+01
5.168407e+02	-3.229632e+01
5.198259e+02	-3.234861e+01
5.228284e+02	-3.239123e+01
5.258482e+02	-3.245094e+01
5.288855e+02	-3.249982e+01
5.319403e+02	-3.254776e+01
5.350128e+02	-3.259788e+01
5.381030e+02	-3.265382e+01
5.412111e+02	-3.269947e+01
5.443371e+02	-3.275240e+01
5.474812e+02	-3.280360e+01
5.506434e+02	-3.285327e+01
5.538239e+02	-3.290553e+01
5.570228e+02	-3.295581e+01
5.602401e+02	-3.300412e+01
5.634760e+02	-3.305170e+01
5.667306e+02	-3.310002e+01
5.700040e+02	-3.314703e+01
5.732964e+02	-3.319934e+01
5.766077e+02	-3.325156e+01
5.799382e+02	-3.330547e+01
5.832879e+02	-3.335822e+01
5.866569e+02	-3.340223e+01
5.900454e+02	-3.345373e+01
5.934535e+02	-3.350364e+01
5.968813e+02	-3.356140e+01
6.003288e+02	-3.360148e+01
6.037963e+02	-3.365902e+01
6.072838e+02	-3.370262e+01
6.107914e+02	-3.374863e+01
6.143194e+02	-3.381006e+01
6.178676e+02	-3.386417e+01
6.214364e+02	-3.391520e+01
6.250258e+02	-3.395526e+01
6.286359e+02	-3.400605e+01
6.322669e+02	-3.405633e+01
6.359189e+02	-3.410967e+01
6.395919e+02	-3.415505e+01
6.432862e+02	-3.420632e+01
6.470017e+02	-3.425667e+01
6.507388e+02	-3.430369e+01
6.544974e+02	-3.435705e+01
6.582778e+02	-3.441602e+01
6.620800e+02	-3.445500e+01
6.659041e+02	-3.451790e+01
6.697504e+02	-3.455768e+01
6.736188e+02	-3.461571e+01
6.775096e+02	-3.466017e+01
6.814229e+02	-3.470781e+01
6.853587e+02	-3.475947e+01
6.893173e+02	-3.480425e+01
6.932988e+02	-3.486416e+01
6.973033e+02	-3.491074e+01
7.013309e+02	-3.496947e+01
