Frequency(Hz)	Magnitude(dB)
1.000000e+01	-2.126660e+00
1.005776e+01	-2.146093e+00
1.011585e+01	-2.166007e+00
1.017428e+01	-2.185459e+00
1.023305e+01	-2.205551e+00
1.029215e+01	-2.225477e+00
1.035160e+01	-2.245548e+00
1.041139e+01	-2.265676e+00
1.047153e+01	-2.286177e+00
1.053201e+01	-2.306857e+00
1.059284e+01	-2.327374e+00
1.065403e+01	-2.348135e+00
1.071556e+01	-2.369468e+00
1.077746e+01	-2.390374e+00
1.083971e+01	-2.411579e+00
1.090232e+01	-2.433088e+00
1.096529e+01	-2.454442e+00
1.102862e+01	-2.476105e+00
1.109232e+01	-2.497971e+00
1.115639e+01	-2.519891e+00
1.122083e+01	-2.542190e+00
1.128564e+01	-2.564397e+00
1.135083e+01	-2.586529e+00
1.141639e+01	-2.609216e+00
1.148233e+01	-2.631856e+00
1.154865e+01	-2.654661e+00
1.161536e+01	-2.677626e+00
1.168245e+01	-2.700644e+00
1.174992e+01	-2.723968e+00
1.181779e+01	-2.747382e+00
1.188605e+01	-2.770903e+00
1.195470e+01	-2.794411e+00
1.202375e+01	-2.818445e+00
1.209320e+01	-2.842291e+00
1.216305e+01	-2.866453e+00
1.223330e+01	-2.890518e+00
1.230396e+01	-2.914715e+00
1.237503e+01	-2.939203e+00
1.244651e+01	-2.964055e+00
1.251840e+01	-2.988954e+00
1.259070e+01	-3.014233e+00
1.266343e+01	-3.039023e+00
1.273657e+01	-3.064228e+00
1.281014e+01	-3.089762e+00
1.288413e+01	-3.115121e+00
1.295855e+01	-3.140804e+00
1.303339e+01	-3.166828e+00
1.310867e+01	-3.192670e+00
1.318439e+01	-3.218791e+00
1.326054e+01	-3.245301e+00
1.333713e+01	-3.271509e+00
1.341417e+01	-3.298007e+00
1.349165e+01	-3.324851e+00
1.356958e+01	-3.351766e+00
1.364795e+01	-3.378444e+00
1.372678e+01	-3.405773e+00
1.380607e+01	-3.432931e+00
1.388581e+01	-3.460525e+00
1.396602e+01	-3.487816e+00
1.404668e+01	-3.515658e+00
1.412782e+01	-3.543499e+00
1.420942e+01	-3.571490e+00
1.429149e+01	-3.599224e+00
1.437404e+01	-3.627917e+00
1.445706e+01	-3.656111e+00
1.454057e+01	-3.684632e+00
1.462455e+01	-3.713323e+00
1.470902e+01	-3.742364e+00
1.479398e+01	-3.771364e+00
1.487943e+01	-3.800253e+00
1.496537e+01	-3.829522e+00
1.505181e+01	-3.858776e+00
1.513875e+01	-3.888474e+00
1.522619e+01	-3.917760e+00
1.531414e+01	-3.947709e+00
1.540259e+01	-3.977978e+00
1.549156e+01	-4.007632e+00
1.558103e+01	-4.038050e+00
1.567103e+01	-4.068533e+00
1.576155e+01	-4.098915e+00
1.585258e+01	-4.129507e+00
1.594415e+01	-4.160342e+00
1.603624e+01	-4.191324e+00
1.612886e+01	-4.222370e+00
1.622202e+01	-4.253523e+00
1.631572e+01	-4.284886e+00
1.640996e+01	-4.316184e+00
1.650474e+01	-4.347555e+00
1.660008e+01	-4.379312e+00
1.669596e+01	-4.411408e+00
1.679239e+01	-4.443418e+00
1.688938e+01	-4.475231e+00
1.698694e+01	-4.507506e+00
1.708505e+01	-4.540051e+00
1.718373e+01	-4.572517e+00
1.728299e+01	-4.605016e+00
1.738281e+01	-4.637758e+00
1.748322e+01	-4.670768e+00
1.758420e+01	-4.703649e+00
1.768576e+01	-4.736870e+00
1.778792e+01	-4.770449e+00
1.789066e+01	-4.803647e+00
1.799399e+01	-4.837240e+00
1.809793e+01	-4.870932e+00
1.820246e+01	-4.904509e+00
1.830760e+01	-4.938654e+00
1.841334e+01	-4.972671e+00
1.851969e+01	-5.006791e+00
1.862666e+01	-5.040893e+00
1.873425e+01	-5.075646e+00
1.884246e+01	-5.110085e+00
1.895129e+01	-5.144615e+00
1.906075e+01	-5.179279e+00
1.917085e+01	-5.214749e+00
1.928158e+01	-5.249355e+00
1.939295e+01	-5.284741e+00
1.950496e+01	-5.319600e+00
1.961762e+01	-5.355166e+00
1.973093e+01	-5.390720e+00
1.984490e+01	-5.426321e+00
1.995952e+01	-5.461946e+00
2.007480e+01	-5.497932e+00
2.019076e+01	-5.533850e+00
2.030738e+01	-5.570020e+00
2.042467e+01	-5.606330e+00
2.054264e+01	-5.642375e+00
2.066130e+01	-5.679121e+00
2.078064e+01	-5.715741e+00
2.090066e+01	-5.752272e+00
2.102139e+01	-5.788973e+00
2.114280e+01	-5.825459e+00
2.126492e+01	-5.863350e+00
2.138775e+01	-5.900058e+00
2.151128e+01	-5.937444e+00
2.163553e+01	-5.974533e+00
2.176050e+01	-6.011651e+00
2.188619e+01	-6.049621e+00
2.201260e+01	-6.086975e+00
2.213974e+01	-6.124937e+00
2.226762e+01	-6.162927e+00
2.239624e+01	-6.201152e+00
2.252560e+01	-6.238852e+00
2.265571e+01	-6.277210e+00
2.278656e+01	-6.315255e+00
2.291818e+01	-6.354019e+00
2.305055e+01	-6.392410e+00
2.318369e+01	-6.430824e+00
2.331760e+01	-6.469751e+00
2.345228e+01	-6.508471e+00
2.358774e+01	-6.547413e+00
2.372398e+01	-6.586075e+00
2.386101e+01	-6.625006e+00
2.399883e+01	-6.664532e+00
2.413745e+01	-6.703258e+00
2.427686e+01	-6.742949e+00
2.441709e+01	-6.782704e+00
2.455812e+01	-6.822660e+00
2.469997e+01	-6.861930e+00
2.484263e+01	-6.901466e+00
2.498612e+01	-6.941465e+00
2.513044e+01	-6.981666e+00
2.527559e+01	-7.021637e+00
2.542158e+01	-7.061955e+00
2.556842e+01	-7.101957e+00
2.571610e+01	-7.142072e+00
2.586463e+01	-7.183127e+00
2.601403e+01	-7.223143e+00
2.616428e+01	-7.263672e+00
2.631541e+01	-7.304136e+00
2.646740e+01	-7.345421e+00
2.662028e+01	-7.385692e+00
2.677404e+01	-7.427225e+00
2.692868e+01	-7.468011e+00
2.708422e+01	-7.509246e+00
2.724066e+01	-7.550341e+00
2.739800e+01	-7.591423e+00
2.755625e+01	-7.632879e+00
2.771541e+01	-7.674097e+00
2.787550e+01	-7.716271e+00
2.803650e+01	-7.757662e+00
2.819844e+01	-7.799147e+00
2.836131e+01	-7.840864e+00
2.852513e+01	-7.882225e+00
2.868989e+01	-7.924611e+00
2.885560e+01	-7.966770e+00
2.902227e+01	-8.008333e+00
2.918990e+01	-8.050879e+00
2.935850e+01	-8.093095e+00
2.952807e+01	-8.135210e+00
2.969863e+01	-8.178125e+00
2.987016e+01	-8.220412e+00
3.004269e+01	-8.263093e+00
3.021622e+01	-8.305515e+00
3.039075e+01	-8.347972e+00
3.056628e+01	-8.391078e+00
3.074283e+01	-8.433187e+00
3.092040e+01	-8.476385e+00
3.109900e+01	-8.519351e+00
3.127862e+01	-8.562063e+00
3.145929e+01	-8.605614e+00
3.164099e+01	-8.648599e+00
3.182375e+01	-8.692275e+00
3.200756e+01	-8.735185e+00
3.219244e+01	-8.778255e+00
3.237838e+01	-8.822185e+00
3.256540e+01	-8.865271e+00
3.275349e+01	-8.909285e+00
3.294268e+01	-8.952429e+00
3.313295e+01	-8.996621e+00
3.332433e+01	-9.040107e+00
3.351681e+01	-9.083828e+00
3.371040e+01	-9.128268e+00
3.390511e+01	-9.171944e+00
3.410094e+01	-9.216574e+00
3.429791e+01	-9.260234e+00
3.449601e+01	-9.304402e+00
3.469526e+01	-9.348639e+00
3.489566e+01	-9.392222e+00
3.509721e+01	-9.436783e+00
3.529993e+01	-9.480704e+00
3.550382e+01	-9.525496e+00
3.570889e+01	-9.570286e+00
3.591515e+01	-9.614628e+00
3.612259e+01	-9.659371e+00
3.633123e+01	-9.704090e+00
3.654108e+01	-9.748851e+00
3.675214e+01	-9.793545e+00
3.696442e+01	-9.838164e+00
3.717792e+01	-9.883050e+00
3.739266e+01	-9.927809e+00
3.760864e+01	-9.973049e+00
3.782587e+01	-1.001769e+01
3.804435e+01	-1.006302e+01
3.826409e+01	-1.010827e+01
3.848510e+01	-1.015355e+01
3.870739e+01	-1.019830e+01
3.893096e+01	-1.024385e+01
3.915583e+01	-1.028985e+01
3.938199e+01	-1.033426e+01
3.960946e+01	-1.037988e+01
3.983824e+01	-1.042555e+01
4.006834e+01	-1.047074e+01
4.029978e+01	-1.051651e+01
4.053255e+01	-1.056196e+01
4.076666e+01	-1.060779e+01
4.100213e+01	-1.065322e+01
4.123896e+01	-1.069887e+01
4.147715e+01	-1.074460e+01
4.171672e+01	-1.079035e+01
4.195767e+01	-1.083638e+01
4.220002e+01	-1.088201e+01
4.244377e+01	-1.092835e+01
4.268892e+01	-1.097410e+01
4.293549e+01	-1.102046e+01
4.318348e+01	-1.106649e+01
4.343291e+01	-1.111299e+01
4.368377e+01	-1.115845e+01
4.393609e+01	-1.120473e+01
4.418986e+01	-1.125095e+01
4.444510e+01	-1.129760e+01
4.470182e+01	-1.134398e+01
4.496001e+01	-1.139037e+01
4.521970e+01	-1.143667e+01
4.548089e+01	-1.148285e+01
4.574358e+01	-1.152980e+01
4.600779e+01	-1.157606e+01
4.627353e+01	-1.162223e+01
4.654081e+01	-1.166949e+01
4.680963e+01	-1.171603e+01
4.708000e+01	-1.176261e+01
4.735193e+01	-1.180895e+01
4.762543e+01	-1.185586e+01
4.790051e+01	-1.190315e+01
4.817719e+01	-1.194980e+01
4.845545e+01	-1.199653e+01
4.873533e+01	-1.204379e+01
4.901682e+01	-1.209102e+01
4.929994e+01	-1.213727e+01
4.958470e+01	-1.218454e+01
4.987110e+01	-1.223110e+01
5.015915e+01	-1.227821e+01
5.044887e+01	-1.232570e+01
5.074026e+01	-1.237271e+01
5.103333e+01	-1.241951e+01
5.132810e+01	-1.246721e+01
5.162457e+01	-1.251390e+01
5.192275e+01	-1.256226e+01
5.222265e+01	-1.260822e+01
5.252429e+01	-1.265560e+01
5.282767e+01	-1.270287e+01
5.313280e+01	-1.275079e+01
5.343969e+01	-1.279765e+01
5.374836e+01	-1.284581e+01
5.405880e+01	-1.289333e+01
5.437105e+01	-1.293986e+01
5.468509e+01	-1.298810e+01
5.500095e+01	-1.303569e+01
5.531863e+01	-1.308288e+01
5.563815e+01	-1.313059e+01
5.595951e+01	-1.317824e+01
5.628273e+01	-1.322567e+01
5.660782e+01	-1.327314e+01
5.693479e+01	-1.332127e+01
5.726364e+01	-1.336876e+01
5.759439e+01	-1.341662e+01
5.792705e+01	-1.346385e+01
5.826164e+01	-1.351233e+01
5.859815e+01	-1.356024e+01
5.893662e+01	-1.360729e+01
5.927703e+01	-1.365537e+01
5.961941e+01	-1.370284e+01
5.996377e+01	-1.375160e+01
6.031012e+01	-1.379920e+01
6.065847e+01	-1.384742e+01
6.100883e+01	-1.389530e+01
6.136121e+01	-1.394332e+01
6.171563e+01	-1.399112e+01
6.207210e+01	-1.403919e+01
6.243063e+01	-1.408776e+01
6.279122e+01	-1.413569e+01
6.315390e+01	-1.418367e+01
6.351868e+01	-1.423148e+01
6.388556e+01	-1.427963e+01
6.425456e+01	-1.432881e+01
6.462569e+01	-1.437677e+01
6.499897e+01	-1.442485e+01
6.537440e+01	-1.447268e+01
6.575200e+01	-1.452091e+01
6.613178e+01	-1.456891e+01
6.651375e+01	-1.461744e+01
6.689793e+01	-1.466608e+01
6.728433e+01	-1.471368e+01
6.767297e+01	-1.476243e+01
6.806384e+01	-1.481118e+01
6.845698e+01	-1.485944e+01
6.885238e+01	-1.490858e+01
6.925007e+01	-1.495673e+01
6.965005e+01	-1.500484e+01
7.005235e+01	-1.505273e+01
7.045697e+01	-1.510152e+01
7.086393e+01	-1.515072e+01
7.127323e+01	-1.519853e+01
7.168490e+01	-1.524719e+01
7.209895e+01	-1.529506e+01
7.251539e+01	-1.534501e+01
7.293424e+01	-1.539264e+01
7.335551e+01	-1.544211e+01
7.377920e+01	-1.548950e+01
7.420535e+01	-1.553895e+01
7.463396e+01	-1.558779e+01
7.506504e+01	-1.563502e+01
7.549861e+01	-1.568457e+01
7.593469e+01	-1.573405e+01
7.637328e+01	-1.578105e+01
7.681441e+01	-1.582913e+01
7.725809e+01	-1.587956e+01
7.770433e+01	-1.592776e+01
7.815315e+01	-1.597794e+01
7.860456e+01	-1.602541e+01
7.905857e+01	-1.607317e+01
7.951521e+01	-1.612253e+01
7.997449e+01	-1.617212e+01
8.043642e+01	-1.621999e+01
8.090102e+01	-1.627059e+01
8.136830e+01	-1.631877e+01
8.183828e+01	-1.636750e+01
8.231097e+01	-1.641625e+01
8.278640e+01	-1.646650e+01
8.326457e+01	-1.651425e+01
8.374550e+01	-1.656331e+01
8.422921e+01	-1.661233e+01
8.471572e+01	-1.666103e+01
8.520503e+01	-1.671006e+01
8.569717e+01	-1.675826e+01
8.619215e+01	-1.680908e+01
8.669000e+01	-1.685670e+01
8.719071e+01	-1.690670e+01
8.769432e+01	-1.695409e+01
8.820084e+01	-1.700448e+01
8.871029e+01	-1.705324e+01
8.922267e+01	-1.710126e+01
8.973802e+01	-1.715108e+01
9.025634e+01	-1.719980e+01
9.077766e+01	-1.724816e+01
9.130199e+01	-1.729832e+01
9.182935e+01	-1.734760e+01
9.235975e+01	-1.739627e+01
9.289321e+01	-1.744469e+01
9.342976e+01	-1.749514e+01
9.396941e+01	-1.754313e+01
9.451217e+01	-1.759376e+01
9.505807e+01	-1.764187e+01
9.560712e+01	-1.769028e+01
9.615934e+01	-1.774055e+01
9.671476e+01	-1.778960e+01
9.727338e+01	-1.783931e+01
9.783522e+01	-1.788708e+01
9.840032e+01	-1.793676e+01
9.896867e+01	-1.798731e+01
9.954031e+01	-1.803626e+01
1.001153e+02	-1.808484e+01
1.006935e+02	-1.813417e+01
1.012751e+02	-1.818379e+01
1.018601e+02	-1.823294e+01
1.024484e+02	-1.828231e+01
1.030402e+02	-1.833141e+01
1.036353e+02	-1.838016e+01
1.042339e+02	-1.842979e+01
1.048360e+02	-1.847913e+01
1.054415e+02	-1.852789e+01
1.060505e+02	-1.857741e+01
1.066631e+02	-1.862961e+01
1.072791e+02	-1.867697e+01
1.078988e+02	-1.872615e+01
1.085220e+02	-1.877527e+01
1.091488e+02	-1.882553e+01
1.097793e+02	-1.887347e+01
1.104133e+02	-1.892231e+01
1.110511e+02	-1.897280e+01
1.116925e+02	-1.902330e+01
1.123376e+02	-1.907272e+01
1.129865e+02	-1.912270e+01
1.136391e+02	-1.917183e+01
1.142955e+02	-1.921939e+01
1.149556e+02	-1.926997e+01
1.156196e+02	-1.931992e+01
1.162874e+02	-1.936882e+01
1.169591e+02	-1.941676e+01
1.176347e+02	-1.946707e+01
1.183141e+02	-1.951706e+01
1.189975e+02	-1.956719e+01
1.196848e+02	-1.961605e+01
1.203761e+02	-1.966683e+01
1.210714e+02	-1.971482e+01
1.217707e+02	-1.976520e+01
1.224740e+02	-1.981481e+01
1.231814e+02	-1.986336e+01
1.238929e+02	-1.991320e+01
1.246085e+02	-1.996225e+01
1.253283e+02	-2.001104e+01
1.260522e+02	-2.006269e+01
1.267802e+02	-2.011191e+01
1.275125e+02	-2.016221e+01
1.282490e+02	-2.021046e+01
1.289898e+02	-2.025840e+01
1.297348e+02	-2.030892e+01
1.304842e+02	-2.035870e+01
1.312378e+02	-2.040808e+01
1.319959e+02	-2.045848e+01
1.327583e+02	-2.050688e+01
1.335251e+02	-2.055648e+01
1.342963e+02	-2.060807e+01
1.350720e+02	-2.065710e+01
1.358522e+02	-2.070613e+01
1.366368e+02	-2.075527e+01
1.374260e+02	-2.080399e+01
1.382198e+02	-2.085578e+01
1.390182e+02	-2.090560e+01
1.398211e+02	-2.095417e+01
1.406287e+02	-2.100327e+01
1.414410e+02	-2.105330e+01
1.422579e+02	-2.110418e+01
1.430796e+02	-2.115393e+01
1.439060e+02	-2.120148e+01
1.447372e+02	-2.125340e+01
1.455732e+02	-2.130073e+01
1.464141e+02	-2.135166e+01
1.472597e+02	-2.140191e+01
1.481103e+02	-2.145099e+01
1.489658e+02	-2.149875e+01
1.498262e+02	-2.155205e+01
1.506916e+02	-2.159820e+01
1.515620e+02	-2.164852e+01
1.524374e+02	-2.169953e+01
1.533179e+02	-2.174763e+01
1.542034e+02	-2.179913e+01
1.550941e+02	-2.184794e+01
1.559899e+02	-2.189748e+01
1.568909e+02	-2.194754e+01
1.577971e+02	-2.199841e+01
1.587085e+02	-2.204734e+01
1.596252e+02	-2.209630e+01
1.605472e+02	-2.214830e+01
1.614745e+02	-2.219580e+01
1.624072e+02	-2.224512e+01
1.633453e+02	-2.229528e+01
1.642887e+02	-2.234596e+01
1.652377e+02	-2.239603e+01
1.661921e+02	-2.244550e+01
1.671520e+02	-2.249645e+01
1.681175e+02	-2.254580e+01
1.690885e+02	-2.259692e+01
1.700651e+02	-2.264495e+01
1.710474e+02	-2.269378e+01
1.720354e+02	-2.274150e+01
1.730291e+02	-2.279342e+01
1.740285e+02	-2.284363e+01
1.750337e+02	-2.289279e+01
1.760446e+02	-2.294406e+01
1.770615e+02	-2.299316e+01
1.780842e+02	-2.304050e+01
1.791128e+02	-2.309497e+01
1.801473e+02	-2.314283e+01
1.811878e+02	-2.319291e+01
1.822344e+02	-2.324204e+01
1.832870e+02	-2.329268e+01
1.843456e+02	-2.334205e+01
1.854104e+02	-2.339035e+01
1.864813e+02	-2.344158e+01
1.875584e+02	-2.349017e+01
1.886418e+02	-2.353938e+01
1.897313e+02	-2.359260e+01
1.908272e+02	-2.364212e+01
1.919294e+02	-2.368964e+01
1.930380e+02	-2.373909e+01
1.941530e+02	-2.378904e+01
1.952744e+02	-2.383852e+01
1.964023e+02	-2.389179e+01
1.975367e+02	-2.394061e+01
1.986777e+02	-2.398801e+01
1.998252e+02	-2.403842e+01
2.009794e+02	-2.408874e+01
2.021403e+02	-2.413736e+01
2.033078e+02	-2.418848e+01
2.044821e+02	-2.423510e+01
2.056632e+02	-2.428850e+01
2.068511e+02	-2.434004e+01
2.080459e+02	-2.438912e+01
2.092475e+02	-2.444020e+01
2.104561e+02	-2.448972e+01
2.116717e+02	-2.453754e+01
2.128943e+02	-2.458883e+01
2.141240e+02	-2.463745e+01
2.153608e+02	-2.468470e+01
2.166047e+02	-2.473581e+01
2.178558e+02	-2.478913e+01
2.191141e+02	-2.483596e+01
2.203797e+02	-2.488810e+01
2.216526e+02	-2.493626e+01
2.229329e+02	-2.498782e+01
2.242205e+02	-2.503877e+01
2.255156e+02	-2.508943e+01
2.268182e+02	-2.513763e+01
2.281283e+02	-2.518586e+01
2.294459e+02	-2.523853e+01
2.307712e+02	-2.528725e+01
2.321041e+02	-2.533506e+01
2.334447e+02	-2.538537e+01
2.347931e+02	-2.543581e+01
2.361493e+02	-2.548582e+01
2.375133e+02	-2.553612e+01
2.388851e+02	-2.558943e+01
2.402649e+02	-2.563603e+01
2.416527e+02	-2.568802e+01
2.430484e+02	-2.573622e+01
2.444523e+02	-2.578517e+01
2.458642e+02	-2.583872e+01
2.472843e+02	-2.588682e+01
2.487126e+02	-2.593402e+01
2.501492e+02	-2.598554e+01
2.515940e+02	-2.603577e+01
2.530472e+02	-2.608708e+01
2.545088e+02	-2.613427e+01
2.559789e+02	-2.618608e+01
2.574574e+02	-2.623528e+01
2.589444e+02	-2.628668e+01
2.604401e+02	-2.633741e+01
2.619444e+02	-2.638343e+01
2.634574e+02	-2.643869e+01
2.649791e+02	-2.648500e+01
2.665096e+02	-2.653408e+01
2.680489e+02	-2.658487e+01
2.695972e+02	-2.663547e+01
2.711544e+02	-2.668737e+01
2.727205e+02	-2.673544e+01
2.742958e+02	-2.678563e+01
2.758801e+02	-2.683402e+01
2.774736e+02	-2.688708e+01
2.790762e+02	-2.693189e+01
2.806882e+02	-2.698608e+01
2.823094e+02	-2.703463e+01
2.839400e+02	-2.708599e+01
2.855800e+02	-2.713763e+01
2.872295e+02	-2.718441e+01
2.888886e+02	-2.723235e+01
2.905572e+02	-2.728615e+01
2.922354e+02	-2.733100e+01
2.939234e+02	-2.738607e+01
2.956211e+02	-2.743439e+01
2.973286e+02	-2.748407e+01
2.990459e+02	-2.753616e+01
3.007732e+02	-2.758372e+01
3.025104e+02	-2.763609e+01
3.042577e+02	-2.768582e+01
3.060151e+02	-2.773482e+01
3.077826e+02	-2.778083e+01
3.095604e+02	-2.783526e+01
3.113484e+02	-2.788780e+01
3.131467e+02	-2.793893e+01
3.149554e+02	-2.798550e+01
3.167746e+02	-2.803418e+01
3.186043e+02	-2.808152e+01
3.204445e+02	-2.814054e+01
3.222954e+02	-2.818308e+01
3.241570e+02	-2.823665e+01
3.260293e+02	-2.828486e+01
3.279124e+02	-2.833521e+01
3.298064e+02	-2.838290e+01
3.317114e+02	-2.843690e+01
3.336273e+02	-2.848576e+01
3.355544e+02	-2.853850e+01
3.374925e+02	-2.858819e+01
3.394418e+02	-2.863971e+01
3.414024e+02	-2.868613e+01
3.433744e+02	-2.873964e+01
3.453577e+02	-2.878399e+01
3.473525e+02	-2.883272e+01
3.493588e+02	-2.888493e+01
3.513766e+02	-2.893615e+01
3.534062e+02	-2.898619e+01
3.554474e+02	-2.903691e+01
3.575005e+02	-2.908992e+01
3.595654e+02	-2.913509e+01
3.616422e+02	-2.918307e+01
3.637311e+02	-2.923719e+01
3.658320e+02	-2.928163e+01
3.679450e+02	-2.933755e+01
3.700702e+02	-2.938978e+01
3.722077e+02	-2.943868e+01
3.743576e+02	-2.948258e+01
3.765199e+02	-2.953705e+01
3.786946e+02	-2.958902e+01
3.808820e+02	-2.963670e+01
3.830819e+02	-2.969068e+01
3.852946e+02	-2.973987e+01
3.875200e+02	-2.978670e+01
3.897583e+02	-2.983800e+01
3.920096e+02	-2.988811e+01
3.942738e+02	-2.993788e+01
3.965511e+02	-2.999357e+01
3.988416e+02	-3.003910e+01
4.011452e+02	-3.009086e+01
4.034622e+02	-3.013885e+01
4.057926e+02	-3.018915e+01
4.081365e+02	-3.024213e+01
4.104938e+02	-3.028818e+01
4.128648e+02	-3.034042e+01
4.152495e+02	-3.038894e+01
4.176480e+02	-3.044162e+01
4.200603e+02	-3.048826e+01
4.224866e+02	-3.054091e+01
4.249268e+02	-3.058646e+01
4.273812e+02	-3.063963e+01
4.298497e+02	-3.069476e+01
4.323325e+02	-3.074300e+01
4.348297e+02	-3.078581e+01
4.373412e+02	-3.083534e+01
4.398673e+02	-3.089456e+01
4.424079e+02	-3.093917e+01
4.449633e+02	-3.099511e+01
4.475334e+02	-3.104064e+01
4.501183e+02	-3.109260e+01
4.527182e+02	-3.113692e+01
4.553330e+02	-3.119203e+01
4.579630e+02	-3.124040e+01
4.606082e+02	-3.128774e+01
4.632687e+02	-3.134054e+01
4.659445e+02	-3.139069e+01
4.686358e+02	-3.144896e+01
4.713426e+02	-3.148800e+01
4.740650e+02	-3.154564e+01
4.768032e+02	-3.158711e+01
4.795572e+02	-3.164044e+01
4.823271e+02	-3.169484e+01
4.851130e+02	-3.173883e+01
4.879150e+02	-3.178798e+01
4.907332e+02	-3.184564e+01
4.935676e+02	-3.189243e+01
4.964185e+02	-3.194660e+01
4.992858e+02	-3.199396e+01
5.021696e+02	-3.204068e+01
5.050701e+02	-3.209623e+01
5.079874e+02	-3.213763e+01
5.109215e+02	-3.219673e+01
5.138726e+02	-3.224828e+01
5.168407e+02	-3.228889e+01
5.198259e+02	-3.234862e+01
5.228284e+02	-3.239538e+01
5.258482e+02	-3.244907e+01
5.288855e+02	-3.249664e+01
5.319403e+02	-3.254203e+01
5.350128e+02	-3.259751e+01
5.381030e+02	-3.264223e+01
5.412111e+02	-3.270061e+01
5.443371e+02	-3.274965e+01
5.474812e+02	-3.279930e+01
5.506434e+02	-3.284132e+01
5.538239e+02	-3.289973e+01
5.570228e+02	-3.294907e+01
5.602401e+02	-3.299138e+01
5.634760e+02	-3.304856e+01
5.667306e+02	-3.308922e+01
5.700040e+02	-3.314992e+01
5.732964e+02	-3.320850e+01
5.766077e+02	-3.324708e+01
5.799382e+02	-3.330125e+01
5.832879e+02	-3.335267e+01
5.866569e+02	-3.340241e+01
5.900454e+02	-3.344831e+01
5.934535e+02	-3.350019e+01
5.968813e+02	-3.355083e+01
6.003288e+02	-3.360436e+01
6.037963e+02	-3.365299e+01
6.072838e+02	-3.370286e+01
6.107914e+02	-3.375300e+01
6.143194e+02	-3.380016e+01
6.178676e+02	-3.385557e+01
6.214364e+02	-3.390047e+01
6.250258e+02	-3.394959e+01
6.286359e+02	-3.400515e+01
6.322669e+02	-3.405684e+01
6.359189e+02	-3.410909e+01
6.395919e+02	-3.416060e+01
6.432862e+02	-3.420901e+01
6.470017e+02	-3.426153e+01
6.507388e+02	-3.430796e+01
6.544974e+02	-3.436025e+01
6.582778e+02	-3.440655e+01
6.620800e+02	-3.446246e+01
6.659041e+02	-3.450463e+01
6.697504e+02	-3.455697e+01
6.736188e+02	-3.460931e+01
6.775096e+02	-3.466698e+01
6.814229e+02	-3.470751e+01
6.853587e+02	-3.476220e+01
6.893173e+02	-3.481290e+01
6.932988e+02	-3.486243e+01
6.973033e+02	-3.491496e+01
7.013309e+02	-3.495920e+01
