Frequency(Hz)	Magnitude(dB)
1.000000e+01	-1.856629e+00
1.005776e+01	-1.874410e+00
1.011585e+01	-1.891854e+00
1.017428e+01	-1.909538e+00
1.023305e+01	-1.927621e+00
1.029215e+01	-1.945391e+00
1.035160e+01	-1.963509e+00
1.041139e+01	-1.982043e+00
1.047153e+01	-2.000051e+00
1.053201e+01	-2.018794e+00
1.059284e+01	-2.037389e+00
1.065403e+01	-2.056089e+00
1.071556e+01	-2.075121e+00
1.077746e+01	-2.094425e+00
1.083971e+01	-2.113442e+00
1.090232e+01	-2.132941e+00
1.096529e+01	-2.152156e+00
1.102862e+01	-2.171837e+00
1.109232e+01	-2.191592e+00
1.115639e+01	-2.211543e+00
1.122083e+01	-2.231589e+00
1.128564e+01	-2.251758e+00
1.135083e+01	-2.271991e+00
1.141639e+01	-2.292216e+00
1.148233e+01	-2.313259e+00
1.154865e+01	-2.333953e+00
1.161536e+01	-2.354985e+00
1.168245e+01	-2.375527e+00
1.174992e+01	-2.396739e+00
1.181779e+01	-2.418049e+00
1.188605e+01	-2.439674e+00
1.195470e+01	-2.461097e+00
1.202375e+01	-2.482688e+00
1.209320e+01	-2.504794e+00
1.216305e+01	-2.526669e+00
1.223330e+01	-2.548890e+00
1.230396e+01	-2.570943e+00
1.237503e+01	-2.593310e+00
1.244651e+01	-2.615912e+00
1.251840e+01	-2.638820e+00
1.259070e+01	-2.661615e+00
1.266343e+01	-2.684535e+00
1.273657e+01	-2.707689e+00
1.281014e+01	-2.730997e+00
1.288413e+01	-2.754338e+00
1.295855e+01	-2.778032e+00
1.303339e+01	-2.801638e+00
1.310867e+01	-2.825395e+00
1.318439e+01	-2.849581e+00
1.326054e+01	-2.873563e+00
1.333713e+01	-2.897909e+00
1.341417e+01	-2.922412e+00
1.349165e+01	-2.946910e+00
1.356958e+01	-2.971802e+00
1.364795e+01	-2.996525e+00
1.372678e+01	-3.021570e+00
1.380607e+01	-3.046874e+00
1.388581e+01	-3.072007e+00
1.396602e+01	-3.097314e+00
1.404668e+01	-3.123078e+00
1.412782e+01	-3.148713e+00
1.420942e+01	-3.174659e+00
1.429149e+01	-3.200844e+00
1.437404e+01	-3.226793e+00
1.445706e+01	-3.253062e+00
1.454057e+01	-3.279336e+00
1.462455e+01	-3.306282e+00
1.470902e+01	-3.332789e+00
1.479398e+01	-3.359813e+00
1.487943e+01	-3.386755e+00
1.496537e+01	-3.413849e+00
1.505181e+01	-3.441133e+00
1.513875e+01	-3.468714e+00
1.522619e+01	-3.496262e+00
1.531414e+01	-3.523996e+00
1.540259e+01	-3.551748e+00
1.549156e+01	-3.579951e+00
1.558103e+01	-3.608172e+00
1.567103e+01	-3.636373e+00
1.576155e+01	-3.664825e+00
1.585258e+01	-3.693426e+00
1.594415e+01	-3.721986e+00
1.603624e+01	-3.751010e+00
1.612886e+01	-3.780181e+00
1.622202e+01	-3.809196e+00
1.631572e+01	-3.838338e+00
1.640996e+01	-3.867670e+00
1.650474e+01	-3.897713e+00
1.660008e+01	-3.927115e+00
1.669596e+01	-3.956914e+00
1.679239e+01	-3.987105e+00
1.688938e+01	-4.016959e+00
1.698694e+01	-4.047237e+00
1.708505e+01	-4.077648e+00
1.718373e+01	-4.108213e+00
1.728299e+01	-4.138532e+00
1.738281e+01	-4.169876e+00
1.748322e+01	-4.200484e+00
1.758420e+01	-4.231881e+00
1.768576e+01	-4.263085e+00
1.778792e+01	-4.294432e+00
1.789066e+01	-4.325754e+00
1.799399e+01	-4.357341e+00
1.809793e+01	-4.389011e+00
1.820246e+01	-4.421060e+00
1.830760e+01	-4.452922e+00
1.841334e+01	-4.485490e+00
1.851969e+01	-4.517507e+00
1.862666e+01	-4.550155e+00
1.873425e+01	-4.582209e+00
1.884246e+01	-4.615068e+00
1.895129e+01	-4.648220e+00
1.906075e+01	-4.681000e+00
1.917085e+01	-4.713855e+00
1.928158e+01	-4.747113e+00
1.939295e+01	-4.780545e+00
1.950496e+01	-4.813808e+00
1.961762e+01	-4.847405e+00
1.973093e+01	-4.881032e+00
1.984490e+01	-4.915147e+00
1.995952e+01	-4.948908e+00
2.007480e+01	-4.983128e+00
2.019076e+01	-5.017235e+00
2.030738e+01	-5.051503e+00
2.042467e+01	-5.086263e+00
2.054264e+01	-5.120481e+00
2.066130e+01	-5.155351e+00
2.078064e+01	-5.190194e+00
2.090066e+01	-5.224896e+00
2.102139e+01	-5.260042e+00
2.114280e+01	-5.295132e+00
2.126492e+01	-5.330718e+00
2.138775e+01	-5.365953e+00
2.151128e+01	-5.401630e+00
2.163553e+01	-5.436967e+00
2.176050e+01	-5.473160e+00
2.188619e+01	-5.508858e+00
2.201260e+01	-5.544790e+00
2.213974e+01	-5.581055e+00
2.226762e+01	-5.617359e+00
2.239624e+01	-5.653407e+00
2.252560e+01	-5.690076e+00
2.265571e+01	-5.726901e+00
2.278656e+01	-5.763285e+00
2.291818e+01	-5.799914e+00
2.305055e+01	-5.837417e+00
2.318369e+01	-5.874117e+00
2.331760e+01	-5.911298e+00
2.345228e+01	-5.948375e+00
2.358774e+01	-5.986138e+00
2.372398e+01	-6.023286e+00
2.386101e+01	-6.061035e+00
2.399883e+01	-6.098669e+00
2.413745e+01	-6.136607e+00
2.427686e+01	-6.174395e+00
2.441709e+01	-6.211865e+00
2.455812e+01	-6.250552e+00
2.469997e+01	-6.288412e+00
2.484263e+01	-6.327187e+00
2.498612e+01	-6.365406e+00
2.513044e+01	-6.404057e+00
2.527559e+01	-6.442444e+00
2.542158e+01	-6.481325e+00
2.556842e+01	-6.520441e+00
2.571610e+01	-6.558591e+00
2.586463e+01	-6.597919e+00
2.601403e+01	-6.636985e+00
2.616428e+01	-6.676478e+00
2.631541e+01	-6.715560e+00
2.646740e+01	-6.755217e+00
2.662028e+01	-6.794732e+00
2.677404e+01	-6.834306e+00
2.692868e+01	-6.873851e+00
2.708422e+01	-6.913808e+00
2.724066e+01	-6.953586e+00
2.739800e+01	-6.994008e+00
2.755625e+01	-7.033640e+00
2.771541e+01	-7.073942e+00
2.787550e+01	-7.114377e+00
2.803650e+01	-7.154669e+00
2.819844e+01	-7.194540e+00
2.836131e+01	-7.235771e+00
2.852513e+01	-7.276254e+00
2.868989e+01	-7.317096e+00
2.885560e+01	-7.357831e+00
2.902227e+01	-7.398410e+00
2.918990e+01	-7.439560e+00
2.935850e+01	-7.480341e+00
2.952807e+01	-7.522028e+00
2.969863e+01	-7.563088e+00
2.987016e+01	-7.604102e+00
3.004269e+01	-7.645571e+00
3.021622e+01	-7.686942e+00
3.039075e+01	-7.728442e+00
3.056628e+01	-7.770083e+00
3.074283e+01	-7.811713e+00
3.092040e+01	-7.853286e+00
3.109900e+01	-7.895624e+00
3.127862e+01	-7.937182e+00
3.145929e+01	-7.979739e+00
3.164099e+01	-8.021618e+00
3.182375e+01	-8.063586e+00
3.200756e+01	-8.106082e+00
3.219244e+01	-8.148300e+00
3.237838e+01	-8.190381e+00
3.256540e+01	-8.233299e+00
3.275349e+01	-8.275642e+00
3.294268e+01	-8.318462e+00
3.313295e+01	-8.361019e+00
3.332433e+01	-8.403808e+00
3.351681e+01	-8.446330e+00
3.371040e+01	-8.489944e+00
3.390511e+01	-8.532460e+00
3.410094e+01	-8.575685e+00
3.429791e+01	-8.618702e+00
3.449601e+01	-8.662183e+00
3.469526e+01	-8.704816e+00
3.489566e+01	-8.748702e+00
3.509721e+01	-8.791746e+00
3.529993e+01	-8.835482e+00
3.550382e+01	-8.878942e+00
3.570889e+01	-8.922321e+00
3.591515e+01	-8.965957e+00
3.612259e+01	-9.009604e+00
3.633123e+01	-9.053732e+00
3.654108e+01	-9.097623e+00
3.675214e+01	-9.141235e+00
3.696442e+01	-9.185729e+00
3.717792e+01	-9.229548e+00
3.739266e+01	-9.273356e+00
3.760864e+01	-9.317849e+00
3.782587e+01	-9.362261e+00
3.804435e+01	-9.405709e+00
3.826409e+01	-9.450485e+00
3.848510e+01	-9.494694e+00
3.870739e+01	-9.539019e+00
3.893096e+01	-9.583975e+00
3.915583e+01	-9.628388e+00
3.938199e+01	-9.672841e+00
3.960946e+01	-9.717189e+00
3.983824e+01	-9.761818e+00
4.006834e+01	-9.807217e+00
4.029978e+01	-9.851108e+00
4.053255e+01	-9.896472e+00
4.076666e+01	-9.941192e+00
4.100213e+01	-9.986768e+00
4.123896e+01	-1.003156e+01
4.147715e+01	-1.007684e+01
4.171672e+01	-1.012185e+01
4.195767e+01	-1.016739e+01
4.220002e+01	-1.021180e+01
4.244377e+01	-1.025771e+01
4.268892e+01	-1.030258e+01
4.293549e+01	-1.034843e+01
4.318348e+01	-1.039331e+01
4.343291e+01	-1.043896e+01
4.368377e+01	-1.048466e+01
4.393609e+01	-1.052998e+01
4.418986e+01	-1.057555e+01
4.444510e+01	-1.062126e+01
4.470182e+01	-1.066655e+01
4.496001e+01	-1.071340e+01
4.521970e+01	-1.075887e+01
4.548089e+01	-1.080466e+01
4.574358e+01	-1.085021e+01
4.600779e+01	-1.089610e+01
4.627353e+01	-1.094214e+01
4.654081e+01	-1.098849e+01
4.680963e+01	-1.103458e+01
4.708000e+01	-1.108103e+01
4.735193e+01	-1.112681e+01
4.762543e+01	-1.117252e+01
4.790051e+01	-1.121950e+01
4.817719e+01	-1.126536e+01
4.845545e+01	-1.131140e+01
4.873533e+01	-1.135790e+01
4.901682e+01	-1.140428e+01
4.929994e+01	-1.145128e+01
4.958470e+01	-1.149714e+01
4.987110e+01	-1.154410e+01
5.015915e+01	-1.159090e+01
5.044887e+01	-1.163643e+01
5.074026e+01	-1.168354e+01
5.103333e+01	-1.173016e+01
5.132810e+01	-1.177676e+01
5.162457e+01	-1.182273e+01
5.192275e+01	-1.187072e+01
5.222265e+01	-1.191709e+01
5.252429e+01	-1.196426e+01
5.282767e+01	-1.201077e+01
5.313280e+01	-1.205762e+01
5.343969e+01	-1.210462e+01
5.374836e+01	-1.215135e+01
5.405880e+01	-1.219862e+01
5.437105e+01	-1.224518e+01
5.468509e+01	-1.229319e+01
5.500095e+01	-1.233990e+01
5.531863e+01	-1.238723e+01
5.563815e+01	-1.243396e+01
5.595951e+01	-1.248177e+01
5.628273e+01	-1.252807e+01
5.660782e+01	-1.257566e+01
5.693479e+01	-1.262243e+01
5.726364e+01	-1.267033e+01
5.759439e+01	-1.271793e+01
5.792705e+01	-1.276549e+01
5.826164e+01	-1.281205e+01
5.859815e+01	-1.285996e+01
5.893662e+01	-1.290638e+01
5.927703e+01	-1.295524e+01
5.961941e+01	-1.300287e+01
5.996377e+01	-1.305005e+01
6.031012e+01	-1.309737e+01
6.065847e+01	-1.314491e+01
6.100883e+01	-1.319311e+01
6.136121e+01	-1.324015e+01
6.171563e+01	-1.328768e+01
6.207210e+01	-1.333587e+01
6.243063e+01	-1.338344e+01
6.279122e+01	-1.343099e+01
6.315390e+01	-1.347897e+01
6.351868e+01	-1.352714e+01
6.388556e+01	-1.357402e+01
6.425456e+01	-1.362231e+01
6.462569e+01	-1.367017e+01
6.499897e+01	-1.371792e+01
6.537440e+01	-1.376525e+01
6.575200e+01	-1.381342e+01
6.613178e+01	-1.386137e+01
6.651375e+01	-1.391038e+01
6.689793e+01	-1.395765e+01
6.728433e+01	-1.400623e+01
6.767297e+01	-1.405428e+01
6.806384e+01	-1.410224e+01
6.845698e+01	-1.414996e+01
6.885238e+01	-1.419813e+01
6.925007e+01	-1.424709e+01
6.965005e+01	-1.429440e+01
7.005235e+01	-1.434268e+01
7.045697e+01	-1.439057e+01
7.086393e+01	-1.443941e+01
7.127323e+01	-1.448755e+01
7.168490e+01	-1.453578e+01
7.209895e+01	-1.458444e+01
7.251539e+01	-1.463155e+01
7.293424e+01	-1.468067e+01
7.335551e+01	-1.472834e+01
7.377920e+01	-1.477775e+01
7.420535e+01	-1.482462e+01
7.463396e+01	-1.487354e+01
7.506504e+01	-1.492255e+01
7.549861e+01	-1.497053e+01
7.593469e+01	-1.501960e+01
7.637328e+01	-1.506829e+01
7.681441e+01	-1.511614e+01
7.725809e+01	-1.516503e+01
7.770433e+01	-1.521337e+01
7.815315e+01	-1.526122e+01
7.860456e+01	-1.530993e+01
7.905857e+01	-1.535956e+01
7.951521e+01	-1.540779e+01
7.997449e+01	-1.545643e+01
8.043642e+01	-1.550534e+01
8.090102e+01	-1.555299e+01
8.136830e+01	-1.560167e+01
8.183828e+01	-1.565049e+01
8.231097e+01	-1.569953e+01
8.278640e+01	-1.574831e+01
8.326457e+01	-1.579775e+01
8.374550e+01	-1.584543e+01
8.422921e+01	-1.589384e+01
8.471572e+01	-1.594250e+01
8.520503e+01	-1.599077e+01
8.569717e+01	-1.604117e+01
8.619215e+01	-1.608846e+01
8.669000e+01	-1.613819e+01
8.719071e+01	-1.618668e+01
8.769432e+01	-1.623562e+01
8.820084e+01	-1.628437e+01
8.871029e+01	-1.633280e+01
8.922267e+01	-1.638185e+01
8.973802e+01	-1.643177e+01
9.025634e+01	-1.647949e+01
9.077766e+01	-1.652911e+01
9.130199e+01	-1.657817e+01
9.182935e+01	-1.662694e+01
9.235975e+01	-1.667476e+01
9.289321e+01	-1.672447e+01
9.342976e+01	-1.677364e+01
9.396941e+01	-1.682201e+01
9.451217e+01	-1.687246e+01
9.505807e+01	-1.692023e+01
9.560712e+01	-1.697025e+01
9.615934e+01	-1.701795e+01
9.671476e+01	-1.706762e+01
9.727338e+01	-1.711600e+01
9.783522e+01	-1.716493e+01
9.840032e+01	-1.721488e+01
9.896867e+01	-1.726475e+01
9.954031e+01	-1.731347e+01
1.001153e+02	-1.736163e+01
1.006935e+02	-1.741212e+01
1.012751e+02	-1.745988e+01
1.018601e+02	-1.750995e+01
1.024484e+02	-1.755830e+01
1.030402e+02	-1.760787e+01
1.036353e+02	-1.765693e+01
1.042339e+02	-1.770758e+01
1.048360e+02	-1.775575e+01
1.054415e+02	-1.780503e+01
1.060505e+02	-1.785355e+01
1.066631e+02	-1.790227e+01
1.072791e+02	-1.795269e+01
1.078988e+02	-1.800185e+01
1.085220e+02	-1.805159e+01
1.091488e+02	-1.809908e+01
1.097793e+02	-1.814939e+01
1.104133e+02	-1.819922e+01
1.110511e+02	-1.824714e+01
1.116925e+02	-1.829713e+01
1.123376e+02	-1.834577e+01
1.129865e+02	-1.839631e+01
1.136391e+02	-1.844513e+01
1.142955e+02	-1.849562e+01
1.149556e+02	-1.854376e+01
1.156196e+02	-1.859292e+01
1.162874e+02	-1.864320e+01
1.169591e+02	-1.869246e+01
1.176347e+02	-1.874110e+01
1.183141e+02	-1.879000e+01
1.189975e+02	-1.884091e+01
1.196848e+02	-1.888998e+01
1.203761e+02	-1.893926e+01
1.210714e+02	-1.898717e+01
1.217707e+02	-1.903640e+01
1.224740e+02	-1.908656e+01
1.231814e+02	-1.913597e+01
1.238929e+02	-1.918653e+01
1.246085e+02	-1.923586e+01
1.253283e+02	-1.928481e+01
1.260522e+02	-1.933310e+01
1.267802e+02	-1.938295e+01
1.275125e+02	-1.943377e+01
1.282490e+02	-1.948272e+01
1.289898e+02	-1.953234e+01
1.297348e+02	-1.958217e+01
1.304842e+02	-1.963031e+01
1.312378e+02	-1.968034e+01
1.319959e+02	-1.973023e+01
1.327583e+02	-1.977998e+01
1.335251e+02	-1.982939e+01
1.342963e+02	-1.987904e+01
1.350720e+02	-1.992806e+01
1.358522e+02	-1.997786e+01
1.366368e+02	-2.002621e+01
1.374260e+02	-2.007603e+01
1.382198e+02	-2.012574e+01
1.390182e+02	-2.017538e+01
1.398211e+02	-2.022727e+01
1.406287e+02	-2.027328e+01
1.414410e+02	-2.032464e+01
1.422579e+02	-2.037334e+01
1.430796e+02	-2.042366e+01
1.439060e+02	-2.047441e+01
1.447372e+02	-2.052244e+01
1.455732e+02	-2.057390e+01
1.464141e+02	-2.062256e+01
1.472597e+02	-2.067014e+01
1.481103e+02	-2.072106e+01
1.489658e+02	-2.077239e+01
1.498262e+02	-2.081951e+01
1.506916e+02	-2.087080e+01
1.515620e+02	-2.092007e+01
1.524374e+02	-2.097011e+01
1.533179e+02	-2.101816e+01
1.542034e+02	-2.106665e+01
1.550941e+02	-2.111891e+01
1.559899e+02	-2.116876e+01
1.568909e+02	-2.121878e+01
1.577971e+02	-2.126817e+01
1.587085e+02	-2.131756e+01
1.596252e+02	-2.136553e+01
1.605472e+02	-2.141441e+01
1.614745e+02	-2.146677e+01
1.624072e+02	-2.151730e+01
1.633453e+02	-2.156653e+01
1.642887e+02	-2.161492e+01
1.652377e+02	-2.166443e+01
1.661921e+02	-2.171458e+01
1.671520e+02	-2.176423e+01
1.681175e+02	-2.181407e+01
1.690885e+02	-2.186329e+01
1.700651e+02	-2.191284e+01
1.710474e+02	-2.196249e+01
1.720354e+02	-2.201260e+01
1.730291e+02	-2.206294e+01
1.740285e+02	-2.211147e+01
1.750337e+02	-2.216219e+01
1.760446e+02	-2.221228e+01
1.770615e+02	-2.226110e+01
1.780842e+02	-2.231235e+01
1.791128e+02	-2.236056e+01
1.801473e+02	-2.241041e+01
1.811878e+02	-2.246246e+01
1.822344e+02	-2.251106e+01
1.832870e+02	-2.256183e+01
1.843456e+02	-2.261183e+01
1.854104e+02	-2.266066e+01
1.864813e+02	-2.270931e+01
1.875584e+02	-2.275816e+01
1.886418e+02	-2.281159e+01
1.897313e+02	-2.285990e+01
1.908272e+02	-2.290868e+01
1.919294e+02	-2.295954e+01
1.930380e+02	-2.300723e+01
1.941530e+02	-2.305865e+01
1.952744e+02	-2.310810e+01
1.964023e+02	-2.315773e+01
1.975367e+02	-2.320613e+01
1.986777e+02	-2.325550e+01
1.998252e+02	-2.330569e+01
2.009794e+02	-2.335878e+01
2.021403e+02	-2.340773e+01
2.033078e+02	-2.345652e+01
2.044821e+02	-2.350642e+01
2.056632e+02	-2.355538e+01
2.068511e+02	-2.360702e+01
2.080459e+02	-2.365276e+01
2.092475e+02	-2.370384e+01
2.104561e+02	-2.375546e+01
2.116717e+02	-2.380608e+01
2.128943e+02	-2.385609e+01
2.141240e+02	-2.390478e+01
2.153608e+02	-2.395571e+01
2.166047e+02	-2.400378e+01
2.178558e+02	-2.405463e+01
2.191141e+02	-2.410502e+01
2.203797e+02	-2.415600e+01
2.216526e+02	-2.420338e+01
2.229329e+02	-2.425508e+01
2.242205e+02	-2.430344e+01
2.255156e+02	-2.435367e+01
2.268182e+02	-2.440374e+01
2.281283e+02	-2.445027e+01
2.294459e+02	-2.450506e+01
2.307712e+02	-2.455448e+01
2.321041e+02	-2.460495e+01
2.334447e+02	-2.465524e+01
2.347931e+02	-2.470073e+01
2.361493e+02	-2.475382e+01
2.375133e+02	-2.480343e+01
2.388851e+02	-2.485054e+01
2.402649e+02	-2.490474e+01
2.416527e+02	-2.495053e+01
2.430484e+02	-2.499937e+01
2.444523e+02	-2.505225e+01
2.458642e+02	-2.510287e+01
2.472843e+02	-2.515334e+01
2.487126e+02	-2.520419e+01
2.501492e+02	-2.525154e+01
2.515940e+02	-2.530121e+01
2.530472e+02	-2.535407e+01
2.545088e+02	-2.540112e+01
2.559789e+02	-2.545173e+01
2.574574e+02	-2.550261e+01
2.589444e+02	-2.555295e+01
2.604401e+02	-2.560144e+01
2.619444e+02	-2.565222e+01
2.634574e+02	-2.570102e+01
2.649791e+02	-2.575026e+01
2.665096e+02	-2.580146e+01
2.680489e+02	-2.585010e+01
2.695972e+02	-2.590116e+01
2.711544e+02	-2.595044e+01
2.727205e+02	-2.600309e+01
2.742958e+02	-2.605239e+01
2.758801e+02	-2.610177e+01
2.774736e+02	-2.615026e+01
2.790762e+02	-2.620237e+01
2.806882e+02	-2.624926e+01
2.823094e+02	-2.630166e+01
2.839400e+02	-2.635146e+01
2.855800e+02	-2.640230e+01
2.872295e+02	-2.645048e+01
2.888886e+02	-2.649976e+01
2.905572e+02	-2.655113e+01
2.922354e+02	-2.660002e+01
2.939234e+02	-2.665006e+01
2.956211e+02	-2.670064e+01
2.973286e+02	-2.675009e+01
2.990459e+02	-2.680226e+01
3.007732e+02	-2.685207e+01
3.025104e+02	-2.690037e+01
3.042577e+02	-2.694898e+01
3.060151e+02	-2.700428e+01
3.077826e+02	-2.705114e+01
3.095604e+02	-2.710017e+01
3.113484e+02	-2.715280e+01
3.131467e+02	-2.720193e+01
3.149554e+02	-2.725128e+01
3.167746e+02	-2.730093e+01
3.186043e+02	-2.734999e+01
3.204445e+02	-2.739859e+01
3.222954e+02	-2.745375e+01
3.241570e+02	-2.750280e+01
3.260293e+02	-2.755230e+01
3.279124e+02	-2.760106e+01
3.298064e+02	-2.764943e+01
3.317114e+02	-2.770392e+01
3.336273e+02	-2.775219e+01
3.355544e+02	-2.779985e+01
3.374925e+02	-2.785076e+01
3.394418e+02	-2.789636e+01
3.414024e+02	-2.795395e+01
3.433744e+02	-2.800352e+01
3.453577e+02	-2.805005e+01
3.473525e+02	-2.810074e+01
3.493588e+02	-2.815058e+01
3.513766e+02	-2.820158e+01
3.534062e+02	-2.825877e+01
3.554474e+02	-2.830302e+01
3.575005e+02	-2.835426e+01
3.595654e+02	-2.839955e+01
3.616422e+02	-2.845275e+01
3.637311e+02	-2.849948e+01
3.658320e+02	-2.855242e+01
3.679450e+02	-2.860369e+01
3.700702e+02	-2.865152e+01
3.722077e+02	-2.870273e+01
3.743576e+02	-2.875186e+01
3.765199e+02	-2.880154e+01
3.786946e+02	-2.885171e+01
3.808820e+02	-2.889947e+01
3.830819e+02	-2.895369e+01
3.852946e+02	-2.900077e+01
3.875200e+02	-2.904596e+01
3.897583e+02	-2.910366e+01
3.920096e+02	-2.915695e+01
3.942738e+02	-2.920178e+01
3.965511e+02	-2.925463e+01
3.988416e+02	-2.930307e+01
4.011452e+02	-2.935297e+01
4.034622e+02	-2.940076e+01
4.057926e+02	-2.945439e+01
4.081365e+02	-2.950176e+01
4.104938e+02	-2.955119e+01
4.128648e+02	-2.960667e+01
4.152495e+02	-2.964896e+01
4.176480e+02	-2.970220e+01
4.200603e+02	-2.974994e+01
4.224866e+02	-2.980090e+01
4.249268e+02	-2.984911e+01
4.273812e+02	-2.990497e+01
4.298497e+02	-2.995509e+01
4.323325e+02	-3.000325e+01
4.348297e+02	-3.005080e+01
4.373412e+02	-3.010335e+01
4.398673e+02	-3.015249e+01
4.424079e+02	-3.020239e+01
4.449633e+02	-3.025411e+01
4.475334e+02	-3.030947e+01
4.501183e+02	-3.035461e+01
4.527182e+02	-3.040471e+01
4.553330e+02	-3.045561e+01
4.579630e+02	-3.050188e+01
4.606082e+02	-3.055289e+01
4.632687e+02	-3.060609e+01
4.659445e+02	-3.065679e+01
4.686358e+02	-3.070338e+01
4.713426e+02	-3.075422e+01
4.740650e+02	-3.080692e+01
4.768032e+02	-3.086213e+01
4.795572e+02	-3.090813e+01
4.823271e+02	-3.095970e+01
4.851130e+02	-3.101091e+01
4.879150e+02	-3.105431e+01
4.907332e+02	-3.110693e+01
4.935676e+02	-3.115840e+01
4.964185e+02	-3.120573e+01
4.992858e+02	-3.125371e+01
5.021696e+02	-3.130670e+01
5.050701e+02	-3.136303e+01
5.079874e+02	-3.140955e+01
5.109215e+02	-3.145976e+01
5.138726e+02	-3.150719e+01
5.168407e+02	-3.155998e+01
5.198259e+02	-3.160689e+01
5.228284e+02	-3.165831e+01
5.258482e+02	-3.171143e+01
5.288855e+02	-3.175740e+01
5.319403e+02	-3.181200e+01
5.350128e+02	-3.185556e+01
5.381030e+02	-3.190606e+01
5.412111e+02	-3.195858e+01
5.443371e+02	-3.200598e+01
5.474812e+02	-3.205392e+01
5.506434e+02	-3.210328e+01
5.538239e+02	-3.215891e+01
5.570228e+02	-3.220727e+01
5.602401e+02	-3.225865e+01
5.634760e+02	-3.231305e+01
5.667306e+02	-3.236428e+01
5.700040e+02	-3.240937e+01
5.732964e+02	-3.245747e+01
5.766077e+02	-3.251544e+01
5.799382e+02	-3.255932e+01
5.832879e+02	-3.261675e+01
5.866569e+02	-3.266600e+01
5.900454e+02	-3.272725e+01
5.934535e+02	-3.276738e+01
5.968813e+02	-3.282151e+01
6.003288e+02	-3.287072e+01
6.037963e+02	-3.291209e+01
6.072838e+02	-3.296503e+01
6.107914e+02	-3.301442e+01
6.143194e+02	-3.307091e+01
6.178676e+02	-3.311521e+01
6.214364e+02	-3.316481e+01
6.250258e+02	-3.321991e+01
6.286359e+02	-3.326631e+01
6.322669e+02	-3.331157e+01
6.359189e+02	-3.336312e+01
6.395919e+02	-3.341699e+01
6.432862e+02	-3.346584e+01
6.470017e+02	-3.351735e+01
6.507388e+02	-3.356013e+01
6.544974e+02	-3.362361e+01
6.582778e+02	-3.367132e+01
6.620800e+02	-3.371976e+01
6.659041e+02	-3.377997e+01
6.697504e+02	-3.382679e+01
6.736188e+02	-3.387178e+01
6.775096e+02	-3.392195e+01
6.814229e+02	-3.397084e+01
6.853587e+02	-3.402692e+01
6.893173e+02	-3.408001e+01
6.932988e+02	-3.412422e+01
6.973033e+02	-3.417919e+01
7.013309e+02	-3.422873e+01
