Frequency(Hz)	Magnitude(dB)
1.000000e+01	-2.135346e+00
1.005776e+01	-2.154615e+00
1.011585e+01	-2.174281e+00
1.017428e+01	-2.194006e+00
1.023305e+01	-2.213957e+00
1.029215e+01	-2.234115e+00
1.035160e+01	-2.254197e+00
1.041139e+01	-2.274659e+00
1.047153e+01	-2.295237e+00
1.053201e+01	-2.315702e+00
1.059284e+01	-2.336419e+00
1.065403e+01	-2.357140e+00
1.071556e+01	-2.378236e+00
1.077746e+01	-2.399569e+00
1.083971e+01	-2.420681e+00
1.090232e+01	-2.442268e+00
1.096529e+01	-2.463619e+00
1.102862e+01	-2.485661e+00
1.109232e+01	-2.507540e+00
1.115639e+01	-2.529355e+00
1.122083e+01	-2.551426e+00
1.128564e+01	-2.573898e+00
1.135083e+01	-2.596107e+00
1.141639e+01	-2.618927e+00
1.148233e+01	-2.641740e+00
1.154865e+01	-2.664551e+00
1.161536e+01	-2.687585e+00
1.168245e+01	-2.710710e+00
1.174992e+01	-2.733943e+00
1.181779e+01	-2.757648e+00
1.188605e+01	-2.781283e+00
1.195470e+01	-2.804746e+00
1.202375e+01	-2.828382e+00
1.209320e+01	-2.852660e+00
1.216305e+01	-2.876832e+00
1.223330e+01	-2.901210e+00
1.230396e+01	-2.925395e+00
1.237503e+01	-2.949912e+00
1.244651e+01	-2.974876e+00
1.251840e+01	-2.999808e+00
1.259070e+01	-3.024656e+00
1.266343e+01	-3.050159e+00
1.273657e+01	-3.075317e+00
1.281014e+01	-3.100666e+00
1.288413e+01	-3.126391e+00
1.295855e+01	-3.152105e+00
1.303339e+01	-3.177973e+00
1.310867e+01	-3.204011e+00
1.318439e+01	-3.230106e+00
1.326054e+01	-3.256083e+00
1.333713e+01	-3.282824e+00
1.341417e+01	-3.309453e+00
1.349165e+01	-3.336466e+00
1.356958e+01	-3.363188e+00
1.364795e+01	-3.390198e+00
1.372678e+01	-3.417495e+00
1.380607e+01	-3.444826e+00
1.388581e+01	-3.472294e+00
1.396602e+01	-3.499911e+00
1.404668e+01	-3.527397e+00
1.412782e+01	-3.555200e+00
1.420942e+01	-3.583264e+00
1.429149e+01	-3.611543e+00
1.437404e+01	-3.639890e+00
1.445706e+01	-3.668310e+00
1.454057e+01	-3.696904e+00
1.462455e+01	-3.725622e+00
1.470902e+01	-3.754726e+00
1.479398e+01	-3.783502e+00
1.487943e+01	-3.812621e+00
1.496537e+01	-3.841973e+00
1.505181e+01	-3.871685e+00
1.513875e+01	-3.901108e+00
1.522619e+01	-3.930719e+00
1.531414e+01	-3.960548e+00
1.540259e+01	-3.990857e+00
1.549156e+01	-4.020689e+00
1.558103e+01	-4.051400e+00
1.567103e+01	-4.081150e+00
1.576155e+01	-4.111796e+00
1.585258e+01	-4.142739e+00
1.594415e+01	-4.173586e+00
1.603624e+01	-4.204441e+00
1.612886e+01	-4.235618e+00
1.622202e+01	-4.266777e+00
1.631572e+01	-4.298322e+00
1.640996e+01	-4.329559e+00
1.650474e+01	-4.361214e+00
1.660008e+01	-4.393056e+00
1.669596e+01	-4.424833e+00
1.679239e+01	-4.457085e+00
1.688938e+01	-4.489431e+00
1.698694e+01	-4.521195e+00
1.708505e+01	-4.553837e+00
1.718373e+01	-4.586695e+00
1.728299e+01	-4.619196e+00
1.738281e+01	-4.651804e+00
1.748322e+01	-4.684798e+00
1.758420e+01	-4.717922e+00
1.768576e+01	-4.751252e+00
1.778792e+01	-4.784555e+00
1.789066e+01	-4.817875e+00
1.799399e+01	-4.851632e+00
1.809793e+01	-4.885321e+00
1.820246e+01	-4.919307e+00
1.830760e+01	-4.953377e+00
1.841334e+01	-4.987383e+00
1.851969e+01	-5.021428e+00
1.862666e+01	-5.056054e+00
1.873425e+01	-5.090370e+00
1.884246e+01	-5.124936e+00
1.895129e+01	-5.159808e+00
1.906075e+01	-5.194377e+00
1.917085e+01	-5.229401e+00
1.928158e+01	-5.264570e+00
1.939295e+01	-5.299618e+00
1.950496e+01	-5.334959e+00
1.961762e+01	-5.370299e+00
1.973093e+01	-5.405800e+00
1.984490e+01	-5.441584e+00
1.995952e+01	-5.477491e+00
2.007480e+01	-5.513432e+00
2.019076e+01	-5.549565e+00
2.030738e+01	-5.585551e+00
2.042467e+01	-5.621752e+00
2.054264e+01	-5.658177e+00
2.066130e+01	-5.694875e+00
2.078064e+01	-5.731398e+00
2.090066e+01	-5.768151e+00
2.102139e+01	-5.804529e+00
2.114280e+01	-5.842126e+00
2.126492e+01	-5.878757e+00
2.138775e+01	-5.916171e+00
2.151128e+01	-5.953478e+00
2.163553e+01	-5.990309e+00
2.176050e+01	-6.027920e+00
2.188619e+01	-6.065630e+00
2.201260e+01	-6.103520e+00
2.213974e+01	-6.141346e+00
2.226762e+01	-6.179221e+00
2.239624e+01	-6.217075e+00
2.252560e+01	-6.255144e+00
2.265571e+01	-6.293513e+00
2.278656e+01	-6.331463e+00
2.291818e+01	-6.370309e+00
2.305055e+01	-6.408885e+00
2.318369e+01	-6.447174e+00
2.331760e+01	-6.486203e+00
2.345228e+01	-6.525141e+00
2.358774e+01	-6.564370e+00
2.372398e+01	-6.602886e+00
2.386101e+01	-6.642050e+00
2.399883e+01	-6.681097e+00
2.413745e+01	-6.720985e+00
2.427686e+01	-6.760194e+00
2.441709e+01	-6.799735e+00
2.455812e+01	-6.839260e+00
2.469997e+01	-6.879081e+00
2.484263e+01	-6.918650e+00
2.498612e+01	-6.958858e+00
2.513044e+01	-6.998740e+00
2.527559e+01	-7.038912e+00
2.542158e+01	-7.079049e+00
2.556842e+01	-7.119125e+00
2.571610e+01	-7.159880e+00
2.586463e+01	-7.200113e+00
2.601403e+01	-7.240834e+00
2.616428e+01	-7.281423e+00
2.631541e+01	-7.321917e+00
2.646740e+01	-7.362787e+00
2.662028e+01	-7.403372e+00
2.677404e+01	-7.444577e+00
2.692868e+01	-7.485545e+00
2.708422e+01	-7.526726e+00
2.724066e+01	-7.568134e+00
2.739800e+01	-7.609185e+00
2.755625e+01	-7.650887e+00
2.771541e+01	-7.692029e+00
2.787550e+01	-7.733951e+00
2.803650e+01	-7.775358e+00
2.819844e+01	-7.817258e+00
2.836131e+01	-7.858567e+00
2.852513e+01	-7.901024e+00
2.868989e+01	-7.943002e+00
2.885560e+01	-7.984930e+00
2.902227e+01	-8.027331e+00
2.918990e+01	-8.069501e+00
2.935850e+01	-8.111303e+00
2.952807e+01	-8.153617e+00
2.969863e+01	-8.195764e+00
2.987016e+01	-8.238686e+00
3.004269e+01	-8.280994e+00
3.021622e+01	-8.323611e+00
3.039075e+01	-8.366667e+00
3.056628e+01	-8.409353e+00
3.074283e+01	-8.451888e+00
3.092040e+01	-8.494982e+00
3.109900e+01	-8.538176e+00
3.127862e+01	-8.581037e+00
3.145929e+01	-8.624142e+00
3.164099e+01	-8.667533e+00
3.182375e+01	-8.710560e+00
3.200756e+01	-8.753457e+00
3.219244e+01	-8.797004e+00
3.237838e+01	-8.840911e+00
3.256540e+01	-8.884024e+00
3.275349e+01	-8.927859e+00
3.294268e+01	-8.971541e+00
3.313295e+01	-9.015185e+00
3.332433e+01	-9.058903e+00
3.351681e+01	-9.102939e+00
3.371040e+01	-9.146796e+00
3.390511e+01	-9.191010e+00
3.410094e+01	-9.234768e+00
3.429791e+01	-9.279135e+00
3.449601e+01	-9.322629e+00
3.469526e+01	-9.366742e+00
3.489566e+01	-9.411417e+00
3.509721e+01	-9.455836e+00
3.529993e+01	-9.500456e+00
3.550382e+01	-9.544085e+00
3.570889e+01	-9.589081e+00
3.591515e+01	-9.633726e+00
3.612259e+01	-9.678634e+00
3.633123e+01	-9.723802e+00
3.654108e+01	-9.768100e+00
3.675214e+01	-9.812758e+00
3.696442e+01	-9.856623e+00
3.717792e+01	-9.902140e+00
3.739266e+01	-9.947228e+00
3.760864e+01	-9.992361e+00
3.782587e+01	-1.003718e+01
3.804435e+01	-1.008224e+01
3.826409e+01	-1.012787e+01
3.848510e+01	-1.017248e+01
3.870739e+01	-1.021788e+01
3.893096e+01	-1.026303e+01
3.915583e+01	-1.030798e+01
3.938199e+01	-1.035371e+01
3.960946e+01	-1.039933e+01
3.983824e+01	-1.044488e+01
4.006834e+01	-1.049024e+01
4.029978e+01	-1.053627e+01
4.053255e+01	-1.058217e+01
4.076666e+01	-1.062703e+01
4.100213e+01	-1.067324e+01
4.123896e+01	-1.071907e+01
4.147715e+01	-1.076398e+01
4.171672e+01	-1.081026e+01
4.195767e+01	-1.085659e+01
4.220002e+01	-1.090224e+01
4.244377e+01	-1.094835e+01
4.268892e+01	-1.099477e+01
4.293549e+01	-1.103997e+01
4.318348e+01	-1.108616e+01
4.343291e+01	-1.113206e+01
4.368377e+01	-1.117902e+01
4.393609e+01	-1.122492e+01
4.418986e+01	-1.127091e+01
4.444510e+01	-1.131740e+01
4.470182e+01	-1.136384e+01
4.496001e+01	-1.141046e+01
4.521970e+01	-1.145675e+01
4.548089e+01	-1.150341e+01
4.574358e+01	-1.154974e+01
4.600779e+01	-1.159647e+01
4.627353e+01	-1.164288e+01
4.654081e+01	-1.168978e+01
4.680963e+01	-1.173573e+01
4.708000e+01	-1.178301e+01
4.735193e+01	-1.182971e+01
4.762543e+01	-1.187601e+01
4.790051e+01	-1.192307e+01
4.817719e+01	-1.196955e+01
4.845545e+01	-1.201637e+01
4.873533e+01	-1.206364e+01
4.901682e+01	-1.211096e+01
4.929994e+01	-1.215823e+01
4.958470e+01	-1.220476e+01
4.987110e+01	-1.225173e+01
5.015915e+01	-1.229852e+01
5.044887e+01	-1.234528e+01
5.074026e+01	-1.239311e+01
5.103333e+01	-1.243972e+01
5.132810e+01	-1.248786e+01
5.162457e+01	-1.253397e+01
5.192275e+01	-1.258206e+01
5.222265e+01	-1.262988e+01
5.252429e+01	-1.267577e+01
5.282767e+01	-1.272312e+01
5.313280e+01	-1.277061e+01
5.343969e+01	-1.281943e+01
5.374836e+01	-1.286569e+01
5.405880e+01	-1.291273e+01
5.437105e+01	-1.296063e+01
5.468509e+01	-1.300809e+01
5.500095e+01	-1.305684e+01
5.531863e+01	-1.310295e+01
5.563815e+01	-1.315099e+01
5.595951e+01	-1.319842e+01
5.628273e+01	-1.324592e+01
5.660782e+01	-1.329426e+01
5.693479e+01	-1.334176e+01
5.726364e+01	-1.338936e+01
5.759439e+01	-1.343719e+01
5.792705e+01	-1.348481e+01
5.826164e+01	-1.353315e+01
5.859815e+01	-1.358031e+01
5.893662e+01	-1.362844e+01
5.927703e+01	-1.367633e+01
5.961941e+01	-1.372385e+01
5.996377e+01	-1.377234e+01
6.031012e+01	-1.381977e+01
6.065847e+01	-1.386671e+01
6.100883e+01	-1.391598e+01
6.136121e+01	-1.396374e+01
6.171563e+01	-1.401094e+01
6.207210e+01	-1.406046e+01
6.243063e+01	-1.410900e+01
6.279122e+01	-1.415649e+01
6.315390e+01	-1.420458e+01
6.351868e+01	-1.425281e+01
6.388556e+01	-1.430109e+01
6.425456e+01	-1.434915e+01
6.462569e+01	-1.439704e+01
6.499897e+01	-1.444504e+01
6.537440e+01	-1.449413e+01
6.575200e+01	-1.454107e+01
6.613178e+01	-1.459000e+01
6.651375e+01	-1.463850e+01
6.689793e+01	-1.468656e+01
6.728433e+01	-1.473467e+01
6.767297e+01	-1.478207e+01
6.806384e+01	-1.483202e+01
6.845698e+01	-1.488021e+01
6.885238e+01	-1.492832e+01
6.925007e+01	-1.497678e+01
6.965005e+01	-1.502574e+01
7.005235e+01	-1.507458e+01
7.045697e+01	-1.512237e+01
7.086393e+01	-1.517123e+01
7.127323e+01	-1.521936e+01
7.168490e+01	-1.526828e+01
7.209895e+01	-1.531685e+01
7.251539e+01	-1.536447e+01
7.293424e+01	-1.541313e+01
7.335551e+01	-1.546186e+01
7.377920e+01	-1.551144e+01
7.420535e+01	-1.555979e+01
7.463396e+01	-1.560796e+01
7.506504e+01	-1.565659e+01
7.549861e+01	-1.570596e+01
7.593469e+01	-1.575335e+01
7.637328e+01	-1.580180e+01
7.681441e+01	-1.585155e+01
7.725809e+01	-1.590024e+01
7.770433e+01	-1.594838e+01
7.815315e+01	-1.599720e+01
7.860456e+01	-1.604689e+01
7.905857e+01	-1.609576e+01
7.951521e+01	-1.614341e+01
7.997449e+01	-1.619223e+01
8.043642e+01	-1.624174e+01
8.090102e+01	-1.629139e+01
8.136830e+01	-1.633994e+01
8.183828e+01	-1.638957e+01
8.231097e+01	-1.643683e+01
8.278640e+01	-1.648463e+01
8.326457e+01	-1.653583e+01
8.374550e+01	-1.658411e+01
8.422921e+01	-1.663248e+01
8.471572e+01	-1.668175e+01
8.520503e+01	-1.672999e+01
8.569717e+01	-1.678009e+01
8.619215e+01	-1.682869e+01
8.669000e+01	-1.687856e+01
8.719071e+01	-1.692664e+01
8.769432e+01	-1.697581e+01
8.820084e+01	-1.702372e+01
8.871029e+01	-1.707389e+01
8.922267e+01	-1.712253e+01
8.973802e+01	-1.717241e+01
9.025634e+01	-1.722010e+01
9.077766e+01	-1.726961e+01
9.130199e+01	-1.731906e+01
9.182935e+01	-1.736832e+01
9.235975e+01	-1.741806e+01
9.289321e+01	-1.746652e+01
9.342976e+01	-1.751514e+01
9.396941e+01	-1.756456e+01
9.451217e+01	-1.761480e+01
9.505807e+01	-1.766383e+01
9.560712e+01	-1.771228e+01
9.615934e+01	-1.776210e+01
9.671476e+01	-1.781071e+01
9.727338e+01	-1.785987e+01
9.783522e+01	-1.790979e+01
9.840032e+01	-1.795895e+01
9.896867e+01	-1.800743e+01
9.954031e+01	-1.805642e+01
1.001153e+02	-1.810581e+01
1.006935e+02	-1.815615e+01
1.012751e+02	-1.820554e+01
1.018601e+02	-1.825362e+01
1.024484e+02	-1.830363e+01
1.030402e+02	-1.835280e+01
1.036353e+02	-1.840227e+01
1.042339e+02	-1.845062e+01
1.048360e+02	-1.850112e+01
1.054415e+02	-1.855013e+01
1.060505e+02	-1.859902e+01
1.066631e+02	-1.864783e+01
1.072791e+02	-1.869730e+01
1.078988e+02	-1.874812e+01
1.085220e+02	-1.879779e+01
1.091488e+02	-1.884611e+01
1.097793e+02	-1.889559e+01
1.104133e+02	-1.894476e+01
1.110511e+02	-1.899404e+01
1.116925e+02	-1.904310e+01
1.123376e+02	-1.909284e+01
1.129865e+02	-1.914075e+01
1.136391e+02	-1.919165e+01
1.142955e+02	-1.924174e+01
1.149556e+02	-1.929290e+01
1.156196e+02	-1.934003e+01
1.162874e+02	-1.938961e+01
1.169591e+02	-1.944008e+01
1.176347e+02	-1.948954e+01
1.183141e+02	-1.953768e+01
1.189975e+02	-1.958762e+01
1.196848e+02	-1.963781e+01
1.203761e+02	-1.968617e+01
1.210714e+02	-1.973690e+01
1.217707e+02	-1.978590e+01
1.224740e+02	-1.983481e+01
1.231814e+02	-1.988549e+01
1.238929e+02	-1.993403e+01
1.246085e+02	-1.998344e+01
1.253283e+02	-2.003296e+01
1.260522e+02	-2.008408e+01
1.267802e+02	-2.013061e+01
1.275125e+02	-2.018349e+01
1.282490e+02	-2.023140e+01
1.289898e+02	-2.028196e+01
1.297348e+02	-2.033124e+01
1.304842e+02	-2.038059e+01
1.312378e+02	-2.043091e+01
1.319959e+02	-2.048008e+01
1.327583e+02	-2.052743e+01
1.335251e+02	-2.057840e+01
1.342963e+02	-2.062856e+01
1.350720e+02	-2.067818e+01
1.358522e+02	-2.072726e+01
1.366368e+02	-2.077490e+01
1.374260e+02	-2.082719e+01
1.382198e+02	-2.087564e+01
1.390182e+02	-2.092519e+01
1.398211e+02	-2.097607e+01
1.406287e+02	-2.102521e+01
1.414410e+02	-2.107578e+01
1.422579e+02	-2.112674e+01
1.430796e+02	-2.117440e+01
1.439060e+02	-2.122422e+01
1.447372e+02	-2.127290e+01
1.455732e+02	-2.132406e+01
1.464141e+02	-2.137457e+01
1.472597e+02	-2.142076e+01
1.481103e+02	-2.146977e+01
1.489658e+02	-2.152102e+01
1.498262e+02	-2.157227e+01
1.506916e+02	-2.162211e+01
1.515620e+02	-2.167261e+01
1.524374e+02	-2.172165e+01
1.533179e+02	-2.177142e+01
1.542034e+02	-2.182060e+01
1.550941e+02	-2.187162e+01
1.559899e+02	-2.192100e+01
1.568909e+02	-2.197015e+01
1.577971e+02	-2.201981e+01
1.587085e+02	-2.206860e+01
1.596252e+02	-2.211747e+01
1.605472e+02	-2.216778e+01
1.614745e+02	-2.221651e+01
1.624072e+02	-2.226786e+01
1.633453e+02	-2.231771e+01
1.642887e+02	-2.236614e+01
1.652377e+02	-2.241602e+01
1.661921e+02	-2.246650e+01
1.671520e+02	-2.251569e+01
1.681175e+02	-2.256878e+01
1.690885e+02	-2.261665e+01
1.700651e+02	-2.266664e+01
1.710474e+02	-2.271568e+01
1.720354e+02	-2.276606e+01
1.730291e+02	-2.281461e+01
1.740285e+02	-2.286536e+01
1.750337e+02	-2.291528e+01
1.760446e+02	-2.296431e+01
1.770615e+02	-2.301200e+01
1.780842e+02	-2.306430e+01
1.791128e+02	-2.311399e+01
1.801473e+02	-2.316358e+01
1.811878e+02	-2.321481e+01
1.822344e+02	-2.326177e+01
1.832870e+02	-2.331471e+01
1.843456e+02	-2.336467e+01
1.854104e+02	-2.341348e+01
1.864813e+02	-2.346065e+01
1.875584e+02	-2.351395e+01
1.886418e+02	-2.356299e+01
1.897313e+02	-2.361289e+01
1.908272e+02	-2.366126e+01
1.919294e+02	-2.371090e+01
1.930380e+02	-2.376080e+01
1.941530e+02	-2.381135e+01
1.952744e+02	-2.386227e+01
1.964023e+02	-2.391072e+01
1.975367e+02	-2.396009e+01
1.986777e+02	-2.401108e+01
1.998252e+02	-2.406043e+01
2.009794e+02	-2.411144e+01
2.021403e+02	-2.416133e+01
2.033078e+02	-2.421088e+01
2.044821e+02	-2.425763e+01
2.056632e+02	-2.430901e+01
2.068511e+02	-2.435891e+01
2.080459e+02	-2.440692e+01
2.092475e+02	-2.446111e+01
2.104561e+02	-2.450932e+01
2.116717e+02	-2.456052e+01
2.128943e+02	-2.461103e+01
2.141240e+02	-2.465768e+01
2.153608e+02	-2.470938e+01
2.166047e+02	-2.476239e+01
2.178558e+02	-2.480820e+01
2.191141e+02	-2.486041e+01
2.203797e+02	-2.490830e+01
2.216526e+02	-2.495733e+01
2.229329e+02	-2.500866e+01
2.242205e+02	-2.506008e+01
2.255156e+02	-2.511130e+01
2.268182e+02	-2.515787e+01
2.281283e+02	-2.521075e+01
2.294459e+02	-2.526175e+01
2.307712e+02	-2.531028e+01
2.321041e+02	-2.535963e+01
2.334447e+02	-2.540669e+01
2.347931e+02	-2.545588e+01
2.361493e+02	-2.550568e+01
2.375133e+02	-2.555395e+01
2.388851e+02	-2.560721e+01
2.402649e+02	-2.565552e+01
2.416527e+02	-2.570797e+01
2.430484e+02	-2.575611e+01
2.444523e+02	-2.580789e+01
2.458642e+02	-2.585587e+01
2.472843e+02	-2.590759e+01
2.487126e+02	-2.595631e+01
2.501492e+02	-2.600918e+01
2.515940e+02	-2.605494e+01
2.530472e+02	-2.610662e+01
2.545088e+02	-2.615478e+01
2.559789e+02	-2.620748e+01
2.574574e+02	-2.625643e+01
2.589444e+02	-2.630874e+01
2.604401e+02	-2.635717e+01
2.619444e+02	-2.640595e+01
2.634574e+02	-2.645776e+01
2.649791e+02	-2.650814e+01
2.665096e+02	-2.655513e+01
2.680489e+02	-2.660808e+01
2.695972e+02	-2.665700e+01
2.711544e+02	-2.670638e+01
2.727205e+02	-2.676036e+01
2.742958e+02	-2.680589e+01
2.758801e+02	-2.685596e+01
2.774736e+02	-2.690769e+01
2.790762e+02	-2.695873e+01
2.806882e+02	-2.700869e+01
2.823094e+02	-2.705551e+01
2.839400e+02	-2.710516e+01
2.855800e+02	-2.715952e+01
2.872295e+02	-2.720556e+01
2.888886e+02	-2.726160e+01
2.905572e+02	-2.730605e+01
2.922354e+02	-2.735502e+01
2.939234e+02	-2.740273e+01
2.956211e+02	-2.745902e+01
2.973286e+02	-2.750398e+01
2.990459e+02	-2.755536e+01
3.007732e+02	-2.760730e+01
3.025104e+02	-2.765619e+01
3.042577e+02	-2.770414e+01
3.060151e+02	-2.775545e+01
3.077826e+02	-2.780993e+01
3.095604e+02	-2.785445e+01
3.113484e+02	-2.790419e+01
3.131467e+02	-2.795344e+01
3.149554e+02	-2.800431e+01
3.167746e+02	-2.805717e+01
3.186043e+02	-2.810665e+01
3.204445e+02	-2.815487e+01
3.222954e+02	-2.820431e+01
3.241570e+02	-2.825872e+01
3.260293e+02	-2.830456e+01
3.279124e+02	-2.835432e+01
3.298064e+02	-2.840813e+01
3.317114e+02	-2.845916e+01
3.336273e+02	-2.850793e+01
3.355544e+02	-2.855254e+01
3.374925e+02	-2.860426e+01
3.394418e+02	-2.866002e+01
3.414024e+02	-2.870263e+01
3.433744e+02	-2.875536e+01
3.453577e+02	-2.880436e+01
3.473525e+02	-2.885635e+01
3.493588e+02	-2.890944e+01
3.513766e+02	-2.896199e+01
3.534062e+02	-2.900898e+01
3.554474e+02	-2.905642e+01
3.575005e+02	-2.910591e+01
3.595654e+02	-2.915446e+01
3.616422e+02	-2.920615e+01
3.637311e+02	-2.925807e+01
3.658320e+02	-2.930704e+01
3.679450e+02	-2.935593e+01
3.700702e+02	-2.940871e+01
3.722077e+02	-2.945981e+01
3.743576e+02	-2.950788e+01
3.765199e+02	-2.955837e+01
3.786946e+02	-2.960815e+01
3.808820e+02	-2.966138e+01
3.830819e+02	-2.970851e+01
3.852946e+02	-2.976164e+01
3.875200e+02	-2.980795e+01
3.897583e+02	-2.986322e+01
3.920096e+02	-2.990718e+01
3.942738e+02	-2.996203e+01
3.965511e+02	-3.001253e+01
3.988416e+02	-3.006147e+01
4.011452e+02	-3.011132e+01
4.034622e+02	-3.016363e+01
4.057926e+02	-3.021075e+01
4.081365e+02	-3.026078e+01
4.104938e+02	-3.030718e+01
4.128648e+02	-3.036369e+01
4.152495e+02	-3.040601e+01
4.176480e+02	-3.045405e+01
4.200603e+02	-3.051120e+01
4.224866e+02	-3.055700e+01
4.249268e+02	-3.061155e+01
4.273812e+02	-3.065950e+01
4.298497e+02	-3.071419e+01
4.323325e+02	-3.075690e+01
4.348297e+02	-3.081005e+01
4.373412e+02	-3.086895e+01
4.398673e+02	-3.091360e+01
4.424079e+02	-3.096566e+01
4.449633e+02	-3.101069e+01
4.475334e+02	-3.106210e+01
4.501183e+02	-3.111153e+01
4.527182e+02	-3.116276e+01
4.553330e+02	-3.120982e+01
4.579630e+02	-3.126594e+01
4.606082e+02	-3.131164e+01
4.632687e+02	-3.135919e+01
4.659445e+02	-3.141396e+01
4.686358e+02	-3.146348e+01
4.713426e+02	-3.151207e+01
4.740650e+02	-3.156613e+01
4.768032e+02	-3.161907e+01
4.795572e+02	-3.166536e+01
4.823271e+02	-3.170796e+01
4.851130e+02	-3.176289e+01
4.879150e+02	-3.181878e+01
4.907332e+02	-3.186581e+01
4.935676e+02	-3.191433e+01
4.964185e+02	-3.196723e+01
4.992858e+02	-3.201724e+01
5.021696e+02	-3.206532e+01
5.050701e+02	-3.211398e+01
5.079874e+02	-3.216777e+01
5.109215e+02	-3.221371e+01
5.138726e+02	-3.226701e+01
5.168407e+02	-3.231290e+01
5.198259e+02	-3.236164e+01
5.228284e+02	-3.241705e+01
5.258482e+02	-3.247228e+01
5.288855e+02	-3.251014e+01
5.319403e+02	-3.256661e+01
5.350128e+02	-3.260822e+01
5.381030e+02	-3.266822e+01
5.412111e+02	-3.271796e+01
5.443371e+02	-3.276572e+01
5.474812e+02	-3.281542e+01
5.506434e+02	-3.286796e+01
5.538239e+02	-3.292180e+01
5.570228e+02	-3.297043e+01
5.602401e+02	-3.301946e+01
5.634760e+02	-3.306454e+01
5.667306e+02	-3.312181e+01
5.700040e+02	-3.316671e+01
5.732964e+02	-3.321922e+01
5.766077e+02	-3.327717e+01
5.799382e+02	-3.331855e+01
5.832879e+02	-3.336502e+01
5.866569e+02	-3.341906e+01
5.900454e+02	-3.346392e+01
5.934535e+02	-3.352185e+01
5.968813e+02	-3.356909e+01
6.003288e+02	-3.362161e+01
6.037963e+02	-3.367512e+01
6.072838e+02	-3.371651e+01
6.107914e+02	-3.377352e+01
6.143194e+02	-3.382652e+01
6.178676e+02	-3.387342e+01
6.214364e+02	-3.391831e+01
6.250258e+02	-3.397689e+01
6.286359e+02	-3.402732e+01
6.322669e+02	-3.408170e+01
6.359189e+02	-3.412324e+01
6.395919e+02	-3.417059e+01
6.432862e+02	-3.422224e+01
6.470017e+02	-3.428482e+01
6.507388e+02	-3.432674e+01
6.544974e+02	-3.437566e+01
6.582778e+02	-3.443150e+01
6.620800e+02	-3.447001e+01
6.659041e+02	-3.452577e+01
6.697504e+02	-3.457872e+01
6.736188e+02	-3.462483e+01
6.775096e+02	-3.467506e+01
6.814229e+02	-3.472981e+01
6.853587e+02	-3.478048e+01
6.893173e+02	-3.482512e+01
6.932988e+02	-3.488835e+01
6.973033e+02	-3.492464e+01
7.013309e+02	-3.497407e+01
