Frequency(Hz)	Magnitude(dB)
1.000000e+01	-2.142896e+00
1.005776e+01	-2.162384e+00
1.011585e+01	-2.181971e+00
1.017428e+01	-2.201999e+00
1.023305e+01	-2.221979e+00
1.029215e+01	-2.241880e+00
1.035160e+01	-2.262105e+00
1.041139e+01	-2.282472e+00
1.047153e+01	-2.303016e+00
1.053201e+01	-2.323775e+00
1.059284e+01	-2.344505e+00
1.065403e+01	-2.365322e+00
1.071556e+01	-2.386600e+00
1.077746e+01	-2.407555e+00
1.083971e+01	-2.429041e+00
1.090232e+01	-2.450732e+00
1.096529e+01	-2.472327e+00
1.102862e+01	-2.494166e+00
1.109232e+01	-2.515857e+00
1.115639e+01	-2.537856e+00
1.122083e+01	-2.560367e+00
1.128564e+01	-2.582386e+00
1.135083e+01	-2.604983e+00
1.141639e+01	-2.627695e+00
1.148233e+01	-2.650593e+00
1.154865e+01	-2.673438e+00
1.161536e+01	-2.696479e+00
1.168245e+01	-2.719708e+00
1.174992e+01	-2.743053e+00
1.181779e+01	-2.766693e+00
1.188605e+01	-2.790042e+00
1.195470e+01	-2.814100e+00
1.202375e+01	-2.838013e+00
1.209320e+01	-2.861876e+00
1.216305e+01	-2.886128e+00
1.223330e+01	-2.910595e+00
1.230396e+01	-2.934997e+00
1.237503e+01	-2.959713e+00
1.244651e+01	-2.984548e+00
1.251840e+01	-3.009439e+00
1.259070e+01	-3.034299e+00
1.266343e+01	-3.059831e+00
1.273657e+01	-3.085069e+00
1.281014e+01	-3.110572e+00
1.288413e+01	-3.136278e+00
1.295855e+01	-3.161814e+00
1.303339e+01	-3.188005e+00
1.310867e+01	-3.214152e+00
1.318439e+01	-3.240265e+00
1.326054e+01	-3.266866e+00
1.333713e+01	-3.293248e+00
1.341417e+01	-3.319796e+00
1.349165e+01	-3.346761e+00
1.356958e+01	-3.373760e+00
1.364795e+01	-3.400923e+00
1.372678e+01	-3.427936e+00
1.380607e+01	-3.455317e+00
1.388581e+01	-3.482719e+00
1.396602e+01	-3.510516e+00
1.404668e+01	-3.538280e+00
1.412782e+01	-3.566401e+00
1.420942e+01	-3.594422e+00
1.429149e+01	-3.622485e+00
1.437404e+01	-3.650976e+00
1.445706e+01	-3.679533e+00
1.454057e+01	-3.707992e+00
1.462455e+01	-3.737050e+00
1.470902e+01	-3.765782e+00
1.479398e+01	-3.794933e+00
1.487943e+01	-3.824303e+00
1.496537e+01	-3.853633e+00
1.505181e+01	-3.882859e+00
1.513875e+01	-3.912511e+00
1.522619e+01	-3.942532e+00
1.531414e+01	-3.972556e+00
1.540259e+01	-4.002543e+00
1.549156e+01	-4.032521e+00
1.558103e+01	-4.062768e+00
1.567103e+01	-4.093533e+00
1.576155e+01	-4.124046e+00
1.585258e+01	-4.154579e+00
1.594415e+01	-4.185772e+00
1.603624e+01	-4.216753e+00
1.612886e+01	-4.247803e+00
1.622202e+01	-4.279169e+00
1.631572e+01	-4.310469e+00
1.640996e+01	-4.342157e+00
1.650474e+01	-4.373723e+00
1.660008e+01	-4.405708e+00
1.669596e+01	-4.437310e+00
1.679239e+01	-4.469497e+00
1.688938e+01	-4.501543e+00
1.698694e+01	-4.534092e+00
1.708505e+01	-4.566667e+00
1.718373e+01	-4.599199e+00
1.728299e+01	-4.631823e+00
1.738281e+01	-4.664910e+00
1.748322e+01	-4.697936e+00
1.758420e+01	-4.731005e+00
1.768576e+01	-4.764094e+00
1.778792e+01	-4.797445e+00
1.789066e+01	-4.831137e+00
1.799399e+01	-4.864714e+00
1.809793e+01	-4.898571e+00
1.820246e+01	-4.932053e+00
1.830760e+01	-4.966259e+00
1.841334e+01	-5.000562e+00
1.851969e+01	-5.034843e+00
1.862666e+01	-5.069076e+00
1.873425e+01	-5.103845e+00
1.884246e+01	-5.138416e+00
1.895129e+01	-5.173158e+00
1.906075e+01	-5.208225e+00
1.917085e+01	-5.243081e+00
1.928158e+01	-5.278151e+00
1.939295e+01	-5.313339e+00
1.950496e+01	-5.348703e+00
1.961762e+01	-5.384361e+00
1.973093e+01	-5.420053e+00
1.984490e+01	-5.455695e+00
1.995952e+01	-5.491565e+00
2.007480e+01	-5.527473e+00
2.019076e+01	-5.563527e+00
2.030738e+01	-5.599666e+00
2.042467e+01	-5.636120e+00
2.054264e+01	-5.672316e+00
2.066130e+01	-5.708575e+00
2.078064e+01	-5.745802e+00
2.090066e+01	-5.782050e+00
2.102139e+01	-5.819379e+00
2.114280e+01	-5.856274e+00
2.126492e+01	-5.893213e+00
2.138775e+01	-5.930488e+00
2.151128e+01	-5.967856e+00
2.163553e+01	-6.004893e+00
2.176050e+01	-6.042993e+00
2.188619e+01	-6.080078e+00
2.201260e+01	-6.118319e+00
2.213974e+01	-6.156138e+00
2.226762e+01	-6.193850e+00
2.239624e+01	-6.231784e+00
2.252560e+01	-6.270289e+00
2.265571e+01	-6.308438e+00
2.278656e+01	-6.346819e+00
2.291818e+01	-6.385068e+00
2.305055e+01	-6.423949e+00
2.318369e+01	-6.462583e+00
2.331760e+01	-6.500956e+00
2.345228e+01	-6.540441e+00
2.358774e+01	-6.579344e+00
2.372398e+01	-6.618359e+00
2.386101e+01	-6.657902e+00
2.399883e+01	-6.697208e+00
2.413745e+01	-6.736197e+00
2.427686e+01	-6.775501e+00
2.441709e+01	-6.815279e+00
2.455812e+01	-6.854690e+00
2.469997e+01	-6.894367e+00
2.484263e+01	-6.934421e+00
2.498612e+01	-6.974260e+00
2.513044e+01	-7.014489e+00
2.527559e+01	-7.054666e+00
2.542158e+01	-7.094745e+00
2.556842e+01	-7.134853e+00
2.571610e+01	-7.175254e+00
2.586463e+01	-7.215911e+00
2.601403e+01	-7.256664e+00
2.616428e+01	-7.297134e+00
2.631541e+01	-7.337921e+00
2.646740e+01	-7.378616e+00
2.662028e+01	-7.419712e+00
2.677404e+01	-7.460385e+00
2.692868e+01	-7.502081e+00
2.708422e+01	-7.543128e+00
2.724066e+01	-7.583922e+00
2.739800e+01	-7.625573e+00
2.755625e+01	-7.666946e+00
2.771541e+01	-7.708710e+00
2.787550e+01	-7.750101e+00
2.803650e+01	-7.791404e+00
2.819844e+01	-7.833093e+00
2.836131e+01	-7.875271e+00
2.852513e+01	-7.917539e+00
2.868989e+01	-7.959493e+00
2.885560e+01	-8.001162e+00
2.902227e+01	-8.043490e+00
2.918990e+01	-8.086078e+00
2.935850e+01	-8.127821e+00
2.952807e+01	-8.170584e+00
2.969863e+01	-8.212567e+00
2.987016e+01	-8.255325e+00
3.004269e+01	-8.298032e+00
3.021622e+01	-8.340638e+00
3.039075e+01	-8.383163e+00
3.056628e+01	-8.425793e+00
3.074283e+01	-8.468858e+00
3.092040e+01	-8.511526e+00
3.109900e+01	-8.554632e+00
3.127862e+01	-8.597766e+00
3.145929e+01	-8.640642e+00
3.164099e+01	-8.684393e+00
3.182375e+01	-8.727123e+00
3.200756e+01	-8.771027e+00
3.219244e+01	-8.814397e+00
3.237838e+01	-8.858003e+00
3.256540e+01	-8.901550e+00
3.275349e+01	-8.944651e+00
3.294268e+01	-8.988774e+00
3.313295e+01	-9.032510e+00
3.332433e+01	-9.076000e+00
3.351681e+01	-9.119873e+00
3.371040e+01	-9.164089e+00
3.390511e+01	-9.208087e+00
3.410094e+01	-9.252081e+00
3.429791e+01	-9.296080e+00
3.449601e+01	-9.340272e+00
3.469526e+01	-9.384865e+00
3.489566e+01	-9.428692e+00
3.509721e+01	-9.472352e+00
3.529993e+01	-9.517800e+00
3.550382e+01	-9.561659e+00
3.570889e+01	-9.606509e+00
3.591515e+01	-9.651028e+00
3.612259e+01	-9.695342e+00
3.633123e+01	-9.740958e+00
3.654108e+01	-9.785083e+00
3.675214e+01	-9.830392e+00
3.696442e+01	-9.875352e+00
3.717792e+01	-9.919878e+00
3.739266e+01	-9.965085e+00
3.760864e+01	-1.000928e+01
3.782587e+01	-1.005495e+01
3.804435e+01	-1.009988e+01
3.826409e+01	-1.014500e+01
3.848510e+01	-1.019044e+01
3.870739e+01	-1.023581e+01
3.893096e+01	-1.028127e+01
3.915583e+01	-1.032640e+01
3.938199e+01	-1.037174e+01
3.960946e+01	-1.041685e+01
3.983824e+01	-1.046247e+01
4.006834e+01	-1.050786e+01
4.029978e+01	-1.055402e+01
4.053255e+01	-1.059909e+01
4.076666e+01	-1.064531e+01
4.100213e+01	-1.069098e+01
4.123896e+01	-1.073662e+01
4.147715e+01	-1.078232e+01
4.171672e+01	-1.082862e+01
4.195767e+01	-1.087416e+01
4.220002e+01	-1.092029e+01
4.244377e+01	-1.096608e+01
4.268892e+01	-1.101239e+01
4.293549e+01	-1.105839e+01
4.318348e+01	-1.110435e+01
4.343291e+01	-1.115026e+01
4.368377e+01	-1.119695e+01
4.393609e+01	-1.124308e+01
4.418986e+01	-1.128973e+01
4.444510e+01	-1.133547e+01
4.470182e+01	-1.138190e+01
4.496001e+01	-1.142825e+01
4.521970e+01	-1.147427e+01
4.548089e+01	-1.152130e+01
4.574358e+01	-1.156796e+01
4.600779e+01	-1.161402e+01
4.627353e+01	-1.166062e+01
4.654081e+01	-1.170753e+01
4.680963e+01	-1.175434e+01
4.708000e+01	-1.180161e+01
4.735193e+01	-1.184762e+01
4.762543e+01	-1.189427e+01
4.790051e+01	-1.194112e+01
4.817719e+01	-1.198843e+01
4.845545e+01	-1.203492e+01
4.873533e+01	-1.208175e+01
4.901682e+01	-1.212858e+01
4.929994e+01	-1.217578e+01
4.958470e+01	-1.222291e+01
4.987110e+01	-1.227066e+01
5.015915e+01	-1.231706e+01
5.044887e+01	-1.236400e+01
5.074026e+01	-1.241139e+01
5.103333e+01	-1.245876e+01
5.132810e+01	-1.250530e+01
5.162457e+01	-1.255320e+01
5.192275e+01	-1.260025e+01
5.222265e+01	-1.264744e+01
5.252429e+01	-1.269469e+01
5.282767e+01	-1.274225e+01
5.313280e+01	-1.278905e+01
5.343969e+01	-1.283799e+01
5.374836e+01	-1.288399e+01
5.405880e+01	-1.293156e+01
5.437105e+01	-1.297881e+01
5.468509e+01	-1.302731e+01
5.500095e+01	-1.307459e+01
5.531863e+01	-1.312238e+01
5.563815e+01	-1.316944e+01
5.595951e+01	-1.321750e+01
5.628273e+01	-1.326450e+01
5.660782e+01	-1.331228e+01
5.693479e+01	-1.335979e+01
5.726364e+01	-1.340771e+01
5.759439e+01	-1.345573e+01
5.792705e+01	-1.350324e+01
5.826164e+01	-1.355158e+01
5.859815e+01	-1.359895e+01
5.893662e+01	-1.364731e+01
5.927703e+01	-1.369551e+01
5.961941e+01	-1.374279e+01
5.996377e+01	-1.379011e+01
6.031012e+01	-1.383818e+01
6.065847e+01	-1.388658e+01
6.100883e+01	-1.393496e+01
6.136121e+01	-1.398277e+01
6.171563e+01	-1.403020e+01
6.207210e+01	-1.407871e+01
6.243063e+01	-1.412653e+01
6.279122e+01	-1.417515e+01
6.315390e+01	-1.422283e+01
6.351868e+01	-1.427160e+01
6.388556e+01	-1.431925e+01
6.425456e+01	-1.436693e+01
6.462569e+01	-1.441508e+01
6.499897e+01	-1.446386e+01
6.537440e+01	-1.451172e+01
6.575200e+01	-1.456048e+01
6.613178e+01	-1.460833e+01
6.651375e+01	-1.465704e+01
6.689793e+01	-1.470557e+01
6.728433e+01	-1.475388e+01
6.767297e+01	-1.480255e+01
6.806384e+01	-1.485068e+01
6.845698e+01	-1.489919e+01
6.885238e+01	-1.494768e+01
6.925007e+01	-1.499567e+01
6.965005e+01	-1.504430e+01
7.005235e+01	-1.509325e+01
7.045697e+01	-1.514089e+01
7.086393e+01	-1.518964e+01
7.127323e+01	-1.523895e+01
7.168490e+01	-1.528757e+01
7.209895e+01	-1.533569e+01
7.251539e+01	-1.538331e+01
7.293424e+01	-1.543294e+01
7.335551e+01	-1.548139e+01
7.377920e+01	-1.552888e+01
7.420535e+01	-1.557827e+01
7.463396e+01	-1.562721e+01
7.506504e+01	-1.567594e+01
7.549861e+01	-1.572483e+01
7.593469e+01	-1.577232e+01
7.637328e+01	-1.582162e+01
7.681441e+01	-1.587108e+01
7.725809e+01	-1.591875e+01
7.770433e+01	-1.596791e+01
7.815315e+01	-1.601718e+01
7.860456e+01	-1.606450e+01
7.905857e+01	-1.611406e+01
7.951521e+01	-1.616292e+01
7.997449e+01	-1.621122e+01
8.043642e+01	-1.626046e+01
8.090102e+01	-1.631012e+01
8.136830e+01	-1.635742e+01
8.183828e+01	-1.640703e+01
8.231097e+01	-1.645564e+01
8.278640e+01	-1.650570e+01
8.326457e+01	-1.655370e+01
8.374550e+01	-1.660324e+01
8.422921e+01	-1.665212e+01
8.471572e+01	-1.670078e+01
8.520503e+01	-1.674954e+01
8.569717e+01	-1.679946e+01
8.619215e+01	-1.684775e+01
8.669000e+01	-1.689701e+01
8.719071e+01	-1.694618e+01
8.769432e+01	-1.699476e+01
8.820084e+01	-1.704382e+01
8.871029e+01	-1.709261e+01
8.922267e+01	-1.714265e+01
8.973802e+01	-1.719128e+01
9.025634e+01	-1.723879e+01
9.077766e+01	-1.728973e+01
9.130199e+01	-1.733840e+01
9.182935e+01	-1.738724e+01
9.235975e+01	-1.743749e+01
9.289321e+01	-1.748660e+01
9.342976e+01	-1.753619e+01
9.396941e+01	-1.758529e+01
9.451217e+01	-1.763277e+01
9.505807e+01	-1.768112e+01
9.560712e+01	-1.773228e+01
9.615934e+01	-1.778128e+01
9.671476e+01	-1.782971e+01
9.727338e+01	-1.787842e+01
9.783522e+01	-1.793076e+01
9.840032e+01	-1.797901e+01
9.896867e+01	-1.802744e+01
9.954031e+01	-1.807722e+01
1.001153e+02	-1.812448e+01
1.006935e+02	-1.817437e+01
1.012751e+02	-1.822562e+01
1.018601e+02	-1.827286e+01
1.024484e+02	-1.832253e+01
1.030402e+02	-1.837155e+01
1.036353e+02	-1.842163e+01
1.042339e+02	-1.847053e+01
1.048360e+02	-1.852148e+01
1.054415e+02	-1.857047e+01
1.060505e+02	-1.861930e+01
1.066631e+02	-1.866742e+01
1.072791e+02	-1.871745e+01
1.078988e+02	-1.876548e+01
1.085220e+02	-1.881538e+01
1.091488e+02	-1.886698e+01
1.097793e+02	-1.891469e+01
1.104133e+02	-1.896373e+01
1.110511e+02	-1.901229e+01
1.116925e+02	-1.906287e+01
1.123376e+02	-1.911335e+01
1.129865e+02	-1.916137e+01
1.136391e+02	-1.921032e+01
1.142955e+02	-1.926057e+01
1.149556e+02	-1.930977e+01
1.156196e+02	-1.935953e+01
1.162874e+02	-1.940886e+01
1.169591e+02	-1.945879e+01
1.176347e+02	-1.950861e+01
1.183141e+02	-1.955601e+01
1.189975e+02	-1.960647e+01
1.196848e+02	-1.965685e+01
1.203761e+02	-1.970658e+01
1.210714e+02	-1.975526e+01
1.217707e+02	-1.980443e+01
1.224740e+02	-1.985459e+01
1.231814e+02	-1.990395e+01
1.238929e+02	-1.995368e+01
1.246085e+02	-2.000177e+01
1.253283e+02	-2.005149e+01
1.260522e+02	-2.010208e+01
1.267802e+02	-2.015180e+01
1.275125e+02	-2.020040e+01
1.282490e+02	-2.025124e+01
1.289898e+02	-2.030189e+01
1.297348e+02	-2.034856e+01
1.304842e+02	-2.039901e+01
1.312378e+02	-2.044862e+01
1.319959e+02	-2.049949e+01
1.327583e+02	-2.054949e+01
1.335251e+02	-2.059760e+01
1.342963e+02	-2.064859e+01
1.350720e+02	-2.069566e+01
1.358522e+02	-2.074652e+01
1.366368e+02	-2.079652e+01
1.374260e+02	-2.084755e+01
1.382198e+02	-2.089680e+01
1.390182e+02	-2.094498e+01
1.398211e+02	-2.099483e+01
1.406287e+02	-2.104579e+01
1.414410e+02	-2.109522e+01
1.422579e+02	-2.114504e+01
1.430796e+02	-2.119447e+01
1.439060e+02	-2.124324e+01
1.447372e+02	-2.129347e+01
1.455732e+02	-2.134078e+01
1.464141e+02	-2.139142e+01
1.472597e+02	-2.144194e+01
1.481103e+02	-2.149163e+01
1.489658e+02	-2.154141e+01
1.498262e+02	-2.159197e+01
1.506916e+02	-2.164078e+01
1.515620e+02	-2.169032e+01
1.524374e+02	-2.173975e+01
1.533179e+02	-2.178885e+01
1.542034e+02	-2.183990e+01
1.550941e+02	-2.188934e+01
1.559899e+02	-2.193907e+01
1.568909e+02	-2.198761e+01
1.577971e+02	-2.203971e+01
1.587085e+02	-2.209044e+01
1.596252e+02	-2.213913e+01
1.605472e+02	-2.218914e+01
1.614745e+02	-2.223774e+01
1.624072e+02	-2.228521e+01
1.633453e+02	-2.233672e+01
1.642887e+02	-2.238765e+01
1.652377e+02	-2.243597e+01
1.661921e+02	-2.248632e+01
1.671520e+02	-2.253686e+01
1.681175e+02	-2.258567e+01
1.690885e+02	-2.263289e+01
1.700651e+02	-2.268713e+01
1.710474e+02	-2.273524e+01
1.720354e+02	-2.278318e+01
1.730291e+02	-2.283442e+01
1.740285e+02	-2.288252e+01
1.750337e+02	-2.293501e+01
1.760446e+02	-2.298511e+01
1.770615e+02	-2.303310e+01
1.780842e+02	-2.308188e+01
1.791128e+02	-2.313409e+01
1.801473e+02	-2.318568e+01
1.811878e+02	-2.323396e+01
1.822344e+02	-2.328323e+01
1.832870e+02	-2.333243e+01
1.843456e+02	-2.338218e+01
1.854104e+02	-2.343072e+01
1.864813e+02	-2.348482e+01
1.875584e+02	-2.353282e+01
1.886418e+02	-2.358337e+01
1.897313e+02	-2.363121e+01
1.908272e+02	-2.368029e+01
1.919294e+02	-2.373214e+01
1.930380e+02	-2.378364e+01
1.941530e+02	-2.383035e+01
1.952744e+02	-2.388091e+01
1.964023e+02	-2.393194e+01
1.975367e+02	-2.397947e+01
1.986777e+02	-2.403083e+01
1.998252e+02	-2.407951e+01
2.009794e+02	-2.412914e+01
2.021403e+02	-2.417758e+01
2.033078e+02	-2.423119e+01
2.044821e+02	-2.427935e+01
2.056632e+02	-2.432860e+01
2.068511e+02	-2.438098e+01
2.080459e+02	-2.442916e+01
2.092475e+02	-2.448257e+01
2.104561e+02	-2.453130e+01
2.116717e+02	-2.457881e+01
2.128943e+02	-2.462723e+01
2.141240e+02	-2.467973e+01
2.153608e+02	-2.472869e+01
2.166047e+02	-2.477776e+01
2.178558e+02	-2.482624e+01
2.191141e+02	-2.487913e+01
2.203797e+02	-2.492853e+01
2.216526e+02	-2.497778e+01
2.229329e+02	-2.502711e+01
2.242205e+02	-2.507748e+01
2.255156e+02	-2.512934e+01
2.268182e+02	-2.517819e+01
2.281283e+02	-2.522707e+01
2.294459e+02	-2.527975e+01
2.307712e+02	-2.532755e+01
2.321041e+02	-2.537573e+01
2.334447e+02	-2.542756e+01
2.347931e+02	-2.547890e+01
2.361493e+02	-2.552647e+01
2.375133e+02	-2.557589e+01
2.388851e+02	-2.562686e+01
2.402649e+02	-2.567981e+01
2.416527e+02	-2.572739e+01
2.430484e+02	-2.577985e+01
2.444523e+02	-2.582814e+01
2.458642e+02	-2.587701e+01
2.472843e+02	-2.592628e+01
2.487126e+02	-2.597860e+01
2.501492e+02	-2.602779e+01
2.515940e+02	-2.607608e+01
2.530472e+02	-2.612874e+01
2.545088e+02	-2.617849e+01
2.559789e+02	-2.622471e+01
2.574574e+02	-2.627646e+01
2.589444e+02	-2.632759e+01
2.604401e+02	-2.637598e+01
2.619444e+02	-2.642597e+01
2.634574e+02	-2.647782e+01
2.649791e+02	-2.652687e+01
2.665096e+02	-2.657453e+01
2.680489e+02	-2.662629e+01
2.695972e+02	-2.667935e+01
2.711544e+02	-2.672561e+01
2.727205e+02	-2.677846e+01
2.742958e+02	-2.682847e+01
2.758801e+02	-2.687717e+01
2.774736e+02	-2.692603e+01
2.790762e+02	-2.697657e+01
2.806882e+02	-2.702479e+01
2.823094e+02	-2.707932e+01
2.839400e+02	-2.712678e+01
2.855800e+02	-2.717470e+01
2.872295e+02	-2.722605e+01
2.888886e+02	-2.727668e+01
2.905572e+02	-2.732546e+01
2.922354e+02	-2.737646e+01
2.939234e+02	-2.742609e+01
2.956211e+02	-2.747667e+01
2.973286e+02	-2.752707e+01
2.990459e+02	-2.757634e+01
3.007732e+02	-2.762314e+01
3.025104e+02	-2.767668e+01
3.042577e+02	-2.772802e+01
3.060151e+02	-2.777774e+01
3.077826e+02	-2.782767e+01
3.095604e+02	-2.787532e+01
3.113484e+02	-2.792836e+01
3.131467e+02	-2.798026e+01
3.149554e+02	-2.802447e+01
3.167746e+02	-2.807693e+01
3.186043e+02	-2.812736e+01
3.204445e+02	-2.817522e+01
3.222954e+02	-2.822736e+01
3.241570e+02	-2.827758e+01
3.260293e+02	-2.832548e+01
3.279124e+02	-2.837568e+01
3.298064e+02	-2.843182e+01
3.317114e+02	-2.847718e+01
3.336273e+02	-2.852433e+01
3.355544e+02	-2.857513e+01
3.374925e+02	-2.862498e+01
3.394418e+02	-2.867832e+01
3.414024e+02	-2.872852e+01
3.433744e+02	-2.877577e+01
3.453577e+02	-2.882400e+01
3.473525e+02	-2.887494e+01
3.493588e+02	-2.892783e+01
3.513766e+02	-2.897665e+01
3.534062e+02	-2.902858e+01
3.554474e+02	-2.907114e+01
3.575005e+02	-2.912759e+01
3.595654e+02	-2.917475e+01
3.616422e+02	-2.922907e+01
3.637311e+02	-2.927934e+01
3.658320e+02	-2.932882e+01
3.679450e+02	-2.938041e+01
3.700702e+02	-2.942716e+01
3.722077e+02	-2.947916e+01
3.743576e+02	-2.952948e+01
3.765199e+02	-2.957689e+01
3.786946e+02	-2.963041e+01
3.808820e+02	-2.967949e+01
3.830819e+02	-2.972879e+01
3.852946e+02	-2.977641e+01
3.875200e+02	-2.982405e+01
3.897583e+02	-2.988166e+01
3.920096e+02	-2.992828e+01
3.942738e+02	-2.997953e+01
3.965511e+02	-3.003373e+01
3.988416e+02	-3.007811e+01
4.011452e+02	-3.012838e+01
4.034622e+02	-3.018072e+01
4.057926e+02	-3.023270e+01
4.081365e+02	-3.028004e+01
4.104938e+02	-3.032571e+01
4.128648e+02	-3.037996e+01
4.152495e+02	-3.043269e+01
4.176480e+02	-3.047548e+01
4.200603e+02	-3.053489e+01
4.224866e+02	-3.057534e+01
4.249268e+02	-3.063679e+01
4.273812e+02	-3.067894e+01
4.298497e+02	-3.073186e+01
4.323325e+02	-3.078654e+01
4.348297e+02	-3.083091e+01
4.373412e+02	-3.088554e+01
4.398673e+02	-3.092660e+01
4.424079e+02	-3.098684e+01
4.449633e+02	-3.102882e+01
4.475334e+02	-3.108352e+01
4.501183e+02	-3.113095e+01
4.527182e+02	-3.117694e+01
4.553330e+02	-3.122784e+01
4.579630e+02	-3.128100e+01
4.606082e+02	-3.133069e+01
4.632687e+02	-3.138132e+01
4.659445e+02	-3.143728e+01
4.686358e+02	-3.148638e+01
4.713426e+02	-3.153504e+01
4.740650e+02	-3.158846e+01
4.768032e+02	-3.163407e+01
4.795572e+02	-3.168370e+01
4.823271e+02	-3.173298e+01
4.851130e+02	-3.178133e+01
4.879150e+02	-3.183051e+01
4.907332e+02	-3.188275e+01
4.935676e+02	-3.193636e+01
4.964185e+02	-3.198388e+01
4.992858e+02	-3.203373e+01
5.021696e+02	-3.208558e+01
5.050701e+02	-3.213812e+01
5.079874e+02	-3.218714e+01
5.109215e+02	-3.223890e+01
5.138726e+02	-3.228736e+01
5.168407e+02	-3.233871e+01
5.198259e+02	-3.239214e+01
5.228284e+02	-3.243526e+01
5.258482e+02	-3.248915e+01
5.288855e+02	-3.254247e+01
5.319403e+02	-3.258751e+01
5.350128e+02	-3.264514e+01
5.381030e+02	-3.268766e+01
5.412111e+02	-3.273982e+01
5.443371e+02	-3.278989e+01
5.474812e+02	-3.283964e+01
5.506434e+02	-3.288943e+01
5.538239e+02	-3.294090e+01
5.570228e+02	-3.299061e+01
5.602401e+02	-3.304218e+01
5.634760e+02	-3.309087e+01
5.667306e+02	-3.313707e+01
5.700040e+02	-3.319456e+01
5.732964e+02	-3.324863e+01
5.766077e+02	-3.329552e+01
5.799382e+02	-3.334332e+01
5.832879e+02	-3.339533e+01
5.866569e+02	-3.344445e+01
5.900454e+02	-3.349636e+01
5.934535e+02	-3.354804e+01
5.968813e+02	-3.359319e+01
6.003288e+02	-3.364032e+01
6.037963e+02	-3.368884e+01
6.072838e+02	-3.374561e+01
6.107914e+02	-3.379864e+01
6.143194e+02	-3.383899e+01
6.178676e+02	-3.389461e+01
6.214364e+02	-3.395480e+01
6.250258e+02	-3.399464e+01
6.286359e+02	-3.405274e+01
6.322669e+02	-3.410183e+01
6.359189e+02	-3.414543e+01
6.395919e+02	-3.420423e+01
6.432862e+02	-3.424548e+01
6.470017e+02	-3.430066e+01
6.507388e+02	-3.434565e+01
6.544974e+02	-3.439409e+01
6.582778e+02	-3.444254e+01
6.620800e+02	-3.450081e+01
6.659041e+02	-3.455629e+01
6.697504e+02	-3.459797e+01
6.736188e+02	-3.465460e+01
6.775096e+02	-3.470833e+01
6.814229e+02	-3.475577e+01
6.853587e+02	-3.480710e+01
6.893173e+02	-3.484941e+01
6.932988e+02	-3.491158e+01
6.973033e+02	-3.494098e+01
7.013309e+02	-3.500479e+01
