Frequency(Hz)	Magnitude(dB)
1.000000e+01	-2.250703e+00
1.005776e+01	-2.270875e+00
1.011585e+01	-2.291461e+00
1.017428e+01	-2.312012e+00
1.023305e+01	-2.332618e+00
1.029215e+01	-2.353610e+00
1.035160e+01	-2.374580e+00
1.041139e+01	-2.395787e+00
1.047153e+01	-2.417087e+00
1.053201e+01	-2.438907e+00
1.059284e+01	-2.460052e+00
1.065403e+01	-2.481659e+00
1.071556e+01	-2.503730e+00
1.077746e+01	-2.525513e+00
1.083971e+01	-2.547593e+00
1.090232e+01	-2.569813e+00
1.096529e+01	-2.592463e+00
1.102862e+01	-2.614971e+00
1.109232e+01	-2.637586e+00
1.115639e+01	-2.660525e+00
1.122083e+01	-2.683500e+00
1.128564e+01	-2.706569e+00
1.135083e+01	-2.729936e+00
1.141639e+01	-2.753386e+00
1.148233e+01	-2.776847e+00
1.154865e+01	-2.800512e+00
1.161536e+01	-2.824421e+00
1.168245e+01	-2.848363e+00
1.174992e+01	-2.872729e+00
1.181779e+01	-2.896764e+00
1.188605e+01	-2.921419e+00
1.195470e+01	-2.945876e+00
1.202375e+01	-2.970387e+00
1.209320e+01	-2.995364e+00
1.216305e+01	-3.020446e+00
1.223330e+01	-3.045531e+00
1.230396e+01	-3.070662e+00
1.237503e+01	-3.096388e+00
1.244651e+01	-3.121644e+00
1.251840e+01	-3.147514e+00
1.259070e+01	-3.173514e+00
1.266343e+01	-3.199436e+00
1.273657e+01	-3.225439e+00
1.281014e+01	-3.251683e+00
1.288413e+01	-3.278171e+00
1.295855e+01	-3.304723e+00
1.303339e+01	-3.331579e+00
1.310867e+01	-3.358334e+00
1.318439e+01	-3.385303e+00
1.326054e+01	-3.412659e+00
1.333713e+01	-3.440076e+00
1.341417e+01	-3.467419e+00
1.349165e+01	-3.495037e+00
1.356958e+01	-3.522516e+00
1.364795e+01	-3.550616e+00
1.372678e+01	-3.578636e+00
1.380607e+01	-3.606565e+00
1.388581e+01	-3.634864e+00
1.396602e+01	-3.663510e+00
1.404668e+01	-3.691828e+00
1.412782e+01	-3.720768e+00
1.420942e+01	-3.749556e+00
1.429149e+01	-3.778585e+00
1.437404e+01	-3.807612e+00
1.445706e+01	-3.837167e+00
1.454057e+01	-3.866658e+00
1.462455e+01	-3.896128e+00
1.470902e+01	-3.925462e+00
1.479398e+01	-3.955312e+00
1.487943e+01	-3.985531e+00
1.496537e+01	-4.015259e+00
1.505181e+01	-4.045647e+00
1.513875e+01	-4.075970e+00
1.522619e+01	-4.106908e+00
1.531414e+01	-4.137107e+00
1.540259e+01	-4.168343e+00
1.549156e+01	-4.199258e+00
1.558103e+01	-4.230189e+00
1.567103e+01	-4.261401e+00
1.576155e+01	-4.292673e+00
1.585258e+01	-4.324212e+00
1.594415e+01	-4.355700e+00
1.603624e+01	-4.387507e+00
1.612886e+01	-4.419314e+00
1.622202e+01	-4.451532e+00
1.631572e+01	-4.483692e+00
1.640996e+01	-4.515814e+00
1.650474e+01	-4.548382e+00
1.660008e+01	-4.581083e+00
1.669596e+01	-4.613632e+00
1.679239e+01	-4.646175e+00
1.688938e+01	-4.679191e+00
1.698694e+01	-4.712115e+00
1.708505e+01	-4.745291e+00
1.718373e+01	-4.778617e+00
1.728299e+01	-4.812136e+00
1.738281e+01	-4.845740e+00
1.748322e+01	-4.879427e+00
1.758420e+01	-4.913293e+00
1.768576e+01	-4.947300e+00
1.778792e+01	-4.981273e+00
1.789066e+01	-5.015289e+00
1.799399e+01	-5.049883e+00
1.809793e+01	-5.084114e+00
1.820246e+01	-5.119103e+00
1.830760e+01	-5.153606e+00
1.841334e+01	-5.188475e+00
1.851969e+01	-5.223308e+00
1.862666e+01	-5.258218e+00
1.873425e+01	-5.293588e+00
1.884246e+01	-5.328974e+00
1.895129e+01	-5.364053e+00
1.906075e+01	-5.399855e+00
1.917085e+01	-5.435355e+00
1.928158e+01	-5.471113e+00
1.939295e+01	-5.507284e+00
1.950496e+01	-5.543357e+00
1.961762e+01	-5.579321e+00
1.973093e+01	-5.615642e+00
1.984490e+01	-5.651803e+00
1.995952e+01	-5.688592e+00
2.007480e+01	-5.725114e+00
2.019076e+01	-5.761742e+00
2.030738e+01	-5.798503e+00
2.042467e+01	-5.835404e+00
2.054264e+01	-5.872404e+00
2.066130e+01	-5.909133e+00
2.078064e+01	-5.946464e+00
2.090066e+01	-5.984028e+00
2.102139e+01	-6.021761e+00
2.114280e+01	-6.059261e+00
2.126492e+01	-6.096566e+00
2.138775e+01	-6.134571e+00
2.151128e+01	-6.172266e+00
2.163553e+01	-6.210401e+00
2.176050e+01	-6.248511e+00
2.188619e+01	-6.286918e+00
2.201260e+01	-6.325167e+00
2.213974e+01	-6.363636e+00
2.226762e+01	-6.401939e+00
2.239624e+01	-6.440531e+00
2.252560e+01	-6.479534e+00
2.265571e+01	-6.518214e+00
2.278656e+01	-6.557351e+00
2.291818e+01	-6.596418e+00
2.305055e+01	-6.635305e+00
2.318369e+01	-6.674903e+00
2.331760e+01	-6.713845e+00
2.345228e+01	-6.753048e+00
2.358774e+01	-6.792855e+00
2.372398e+01	-6.832377e+00
2.386101e+01	-6.872217e+00
2.399883e+01	-6.911768e+00
2.413745e+01	-6.951974e+00
2.427686e+01	-6.991751e+00
2.441709e+01	-7.031972e+00
2.455812e+01	-7.072337e+00
2.469997e+01	-7.111976e+00
2.484263e+01	-7.152447e+00
2.498612e+01	-7.192636e+00
2.513044e+01	-7.233341e+00
2.527559e+01	-7.274149e+00
2.542158e+01	-7.314867e+00
2.556842e+01	-7.355472e+00
2.571610e+01	-7.396462e+00
2.586463e+01	-7.437239e+00
2.601403e+01	-7.478549e+00
2.616428e+01	-7.519519e+00
2.631541e+01	-7.560711e+00
2.646740e+01	-7.602199e+00
2.662028e+01	-7.643401e+00
2.677404e+01	-7.685111e+00
2.692868e+01	-7.726409e+00
2.708422e+01	-7.768108e+00
2.724066e+01	-7.809576e+00
2.739800e+01	-7.851476e+00
2.755625e+01	-7.893651e+00
2.771541e+01	-7.935398e+00
2.787550e+01	-7.977304e+00
2.803650e+01	-8.019264e+00
2.819844e+01	-8.061736e+00
2.836131e+01	-8.103865e+00
2.852513e+01	-8.146319e+00
2.868989e+01	-8.188540e+00
2.885560e+01	-8.231156e+00
2.902227e+01	-8.273198e+00
2.918990e+01	-8.316262e+00
2.935850e+01	-8.359273e+00
2.952807e+01	-8.401754e+00
2.969863e+01	-8.444130e+00
2.987016e+01	-8.487280e+00
3.004269e+01	-8.530293e+00
3.021622e+01	-8.573306e+00
3.039075e+01	-8.616253e+00
3.056628e+01	-8.659693e+00
3.074283e+01	-8.703316e+00
3.092040e+01	-8.746523e+00
3.109900e+01	-8.789838e+00
3.127862e+01	-8.833261e+00
3.145929e+01	-8.876777e+00
3.164099e+01	-8.920317e+00
3.182375e+01	-8.964231e+00
3.200756e+01	-9.007319e+00
3.219244e+01	-9.051607e+00
3.237838e+01	-9.094777e+00
3.256540e+01	-9.139168e+00
3.275349e+01	-9.183159e+00
3.294268e+01	-9.227455e+00
3.313295e+01	-9.271149e+00
3.332433e+01	-9.315422e+00
3.351681e+01	-9.359150e+00
3.371040e+01	-9.404079e+00
3.390511e+01	-9.448348e+00
3.410094e+01	-9.492052e+00
3.429791e+01	-9.536817e+00
3.449601e+01	-9.581364e+00
3.469526e+01	-9.625594e+00
3.489566e+01	-9.670371e+00
3.509721e+01	-9.715126e+00
3.529993e+01	-9.759929e+00
3.550382e+01	-9.804942e+00
3.570889e+01	-9.849753e+00
3.591515e+01	-9.894358e+00
3.612259e+01	-9.939682e+00
3.633123e+01	-9.983681e+00
3.654108e+01	-1.002894e+01
3.675214e+01	-1.007466e+01
3.696442e+01	-1.011959e+01
3.717792e+01	-1.016485e+01
3.739266e+01	-1.021005e+01
3.760864e+01	-1.025549e+01
3.782587e+01	-1.030077e+01
3.804435e+01	-1.034621e+01
3.826409e+01	-1.039096e+01
3.848510e+01	-1.043660e+01
3.870739e+01	-1.048182e+01
3.893096e+01	-1.052839e+01
3.915583e+01	-1.057374e+01
3.938199e+01	-1.061843e+01
3.960946e+01	-1.066485e+01
3.983824e+01	-1.071081e+01
4.006834e+01	-1.075686e+01
4.029978e+01	-1.080212e+01
4.053255e+01	-1.084830e+01
4.076666e+01	-1.089412e+01
4.100213e+01	-1.094014e+01
4.123896e+01	-1.098646e+01
4.147715e+01	-1.103181e+01
4.171672e+01	-1.107850e+01
4.195767e+01	-1.112478e+01
4.220002e+01	-1.117069e+01
4.244377e+01	-1.121622e+01
4.268892e+01	-1.126308e+01
4.293549e+01	-1.130927e+01
4.318348e+01	-1.135595e+01
4.343291e+01	-1.140248e+01
4.368377e+01	-1.144835e+01
4.393609e+01	-1.149513e+01
4.418986e+01	-1.154182e+01
4.444510e+01	-1.158832e+01
4.470182e+01	-1.163482e+01
4.496001e+01	-1.168175e+01
4.521970e+01	-1.172855e+01
4.548089e+01	-1.177449e+01
4.574358e+01	-1.182175e+01
4.600779e+01	-1.186747e+01
4.627353e+01	-1.191447e+01
4.654081e+01	-1.196202e+01
4.680963e+01	-1.200813e+01
4.708000e+01	-1.205571e+01
4.735193e+01	-1.210283e+01
4.762543e+01	-1.214971e+01
4.790051e+01	-1.219588e+01
4.817719e+01	-1.224344e+01
4.845545e+01	-1.229011e+01
4.873533e+01	-1.233750e+01
4.901682e+01	-1.238470e+01
4.929994e+01	-1.243163e+01
4.958470e+01	-1.247951e+01
4.987110e+01	-1.252610e+01
5.015915e+01	-1.257442e+01
5.044887e+01	-1.262078e+01
5.074026e+01	-1.266864e+01
5.103333e+01	-1.271588e+01
5.132810e+01	-1.276293e+01
5.162457e+01	-1.280993e+01
5.192275e+01	-1.285756e+01
5.222265e+01	-1.290521e+01
5.252429e+01	-1.295253e+01
5.282767e+01	-1.299988e+01
5.313280e+01	-1.304705e+01
5.343969e+01	-1.309477e+01
5.374836e+01	-1.314265e+01
5.405880e+01	-1.318994e+01
5.437105e+01	-1.323713e+01
5.468509e+01	-1.328514e+01
5.500095e+01	-1.333403e+01
5.531863e+01	-1.338159e+01
5.563815e+01	-1.342823e+01
5.595951e+01	-1.347667e+01
5.628273e+01	-1.352469e+01
5.660782e+01	-1.357192e+01
5.693479e+01	-1.362044e+01
5.726364e+01	-1.366835e+01
5.759439e+01	-1.371586e+01
5.792705e+01	-1.376364e+01
5.826164e+01	-1.381204e+01
5.859815e+01	-1.385940e+01
5.893662e+01	-1.390697e+01
5.927703e+01	-1.395525e+01
5.961941e+01	-1.400305e+01
5.996377e+01	-1.405150e+01
6.031012e+01	-1.409990e+01
6.065847e+01	-1.414751e+01
6.100883e+01	-1.419574e+01
6.136121e+01	-1.424327e+01
6.171563e+01	-1.429243e+01
6.207210e+01	-1.433993e+01
6.243063e+01	-1.438819e+01
6.279122e+01	-1.443730e+01
6.315390e+01	-1.448542e+01
6.351868e+01	-1.453318e+01
6.388556e+01	-1.458141e+01
6.425456e+01	-1.462931e+01
6.462569e+01	-1.467822e+01
6.499897e+01	-1.472702e+01
6.537440e+01	-1.477513e+01
6.575200e+01	-1.482416e+01
6.613178e+01	-1.487165e+01
6.651375e+01	-1.492046e+01
6.689793e+01	-1.496837e+01
6.728433e+01	-1.501634e+01
6.767297e+01	-1.506579e+01
6.806384e+01	-1.511439e+01
6.845698e+01	-1.516185e+01
6.885238e+01	-1.521041e+01
6.925007e+01	-1.525946e+01
6.965005e+01	-1.530731e+01
7.005235e+01	-1.535651e+01
7.045697e+01	-1.540675e+01
7.086393e+01	-1.545356e+01
7.127323e+01	-1.550248e+01
7.168490e+01	-1.555026e+01
7.209895e+01	-1.559940e+01
7.251539e+01	-1.564870e+01
7.293424e+01	-1.569709e+01
7.335551e+01	-1.574487e+01
7.377920e+01	-1.579498e+01
7.420535e+01	-1.584275e+01
7.463396e+01	-1.589213e+01
7.506504e+01	-1.593991e+01
7.549861e+01	-1.598888e+01
7.593469e+01	-1.603809e+01
7.637328e+01	-1.608538e+01
7.681441e+01	-1.613655e+01
7.725809e+01	-1.618373e+01
7.770433e+01	-1.623356e+01
7.815315e+01	-1.628214e+01
7.860456e+01	-1.633112e+01
7.905857e+01	-1.637865e+01
7.951521e+01	-1.642755e+01
7.997449e+01	-1.647811e+01
8.043642e+01	-1.652666e+01
8.090102e+01	-1.657487e+01
8.136830e+01	-1.662313e+01
8.183828e+01	-1.667371e+01
8.231097e+01	-1.672213e+01
8.278640e+01	-1.677243e+01
8.326457e+01	-1.682033e+01
8.374550e+01	-1.686937e+01
8.422921e+01	-1.691927e+01
8.471572e+01	-1.696589e+01
8.520503e+01	-1.701616e+01
8.569717e+01	-1.706463e+01
8.619215e+01	-1.711504e+01
8.669000e+01	-1.716208e+01
8.719071e+01	-1.721348e+01
8.769432e+01	-1.726215e+01
8.820084e+01	-1.731102e+01
8.871029e+01	-1.735964e+01
8.922267e+01	-1.740922e+01
8.973802e+01	-1.745822e+01
9.025634e+01	-1.750735e+01
9.077766e+01	-1.755643e+01
9.130199e+01	-1.760505e+01
9.182935e+01	-1.765480e+01
9.235975e+01	-1.770416e+01
9.289321e+01	-1.775162e+01
9.342976e+01	-1.780225e+01
9.396941e+01	-1.785195e+01
9.451217e+01	-1.790173e+01
9.505807e+01	-1.794996e+01
9.560712e+01	-1.799942e+01
9.615934e+01	-1.804823e+01
9.671476e+01	-1.809836e+01
9.727338e+01	-1.814739e+01
9.783522e+01	-1.819574e+01
9.840032e+01	-1.824398e+01
9.896867e+01	-1.829524e+01
9.954031e+01	-1.834530e+01
1.001153e+02	-1.839323e+01
1.006935e+02	-1.844263e+01
1.012751e+02	-1.849161e+01
1.018601e+02	-1.854166e+01
1.024484e+02	-1.858996e+01
1.030402e+02	-1.863991e+01
1.036353e+02	-1.868887e+01
1.042339e+02	-1.873868e+01
1.048360e+02	-1.878907e+01
1.054415e+02	-1.883633e+01
1.060505e+02	-1.888601e+01
1.066631e+02	-1.893443e+01
1.072791e+02	-1.898661e+01
1.078988e+02	-1.903463e+01
1.085220e+02	-1.908411e+01
1.091488e+02	-1.913267e+01
1.097793e+02	-1.918410e+01
1.104133e+02	-1.923280e+01
1.110511e+02	-1.928241e+01
1.116925e+02	-1.933163e+01
1.123376e+02	-1.938096e+01
1.129865e+02	-1.943082e+01
1.136391e+02	-1.947888e+01
1.142955e+02	-1.952859e+01
1.149556e+02	-1.957830e+01
1.156196e+02	-1.962698e+01
1.162874e+02	-1.967857e+01
1.169591e+02	-1.972676e+01
1.176347e+02	-1.977669e+01
1.183141e+02	-1.982674e+01
1.189975e+02	-1.987525e+01
1.196848e+02	-1.992431e+01
1.203761e+02	-1.997667e+01
1.210714e+02	-2.002321e+01
1.217707e+02	-2.007338e+01
1.224740e+02	-2.012420e+01
1.231814e+02	-2.017197e+01
1.238929e+02	-2.022238e+01
1.246085e+02	-2.027083e+01
1.253283e+02	-2.032122e+01
1.260522e+02	-2.037191e+01
1.267802e+02	-2.042100e+01
1.275125e+02	-2.047137e+01
1.282490e+02	-2.052139e+01
1.289898e+02	-2.056951e+01
1.297348e+02	-2.061983e+01
1.304842e+02	-2.066887e+01
1.312378e+02	-2.071863e+01
1.319959e+02	-2.076807e+01
1.327583e+02	-2.081915e+01
1.335251e+02	-2.086577e+01
1.342963e+02	-2.091841e+01
1.350720e+02	-2.096682e+01
1.358522e+02	-2.101859e+01
1.366368e+02	-2.106514e+01
1.374260e+02	-2.111446e+01
1.382198e+02	-2.116557e+01
1.390182e+02	-2.121471e+01
1.398211e+02	-2.126536e+01
1.406287e+02	-2.131378e+01
1.414410e+02	-2.136294e+01
1.422579e+02	-2.141279e+01
1.430796e+02	-2.146325e+01
1.439060e+02	-2.151132e+01
1.447372e+02	-2.156326e+01
1.455732e+02	-2.161378e+01
1.464141e+02	-2.166157e+01
1.472597e+02	-2.171251e+01
1.481103e+02	-2.176207e+01
1.489658e+02	-2.181141e+01
1.498262e+02	-2.186117e+01
1.506916e+02	-2.191031e+01
1.515620e+02	-2.195943e+01
1.524374e+02	-2.201066e+01
1.533179e+02	-2.205981e+01
1.542034e+02	-2.210867e+01
1.550941e+02	-2.215887e+01
1.559899e+02	-2.221039e+01
1.568909e+02	-2.225611e+01
1.577971e+02	-2.230727e+01
1.587085e+02	-2.235893e+01
1.596252e+02	-2.240715e+01
1.605472e+02	-2.245732e+01
1.614745e+02	-2.250576e+01
1.624072e+02	-2.255790e+01
1.633453e+02	-2.260574e+01
1.642887e+02	-2.265662e+01
1.652377e+02	-2.270695e+01
1.661921e+02	-2.275650e+01
1.671520e+02	-2.280548e+01
1.681175e+02	-2.285585e+01
1.690885e+02	-2.290511e+01
1.700651e+02	-2.295608e+01
1.710474e+02	-2.300694e+01
1.720354e+02	-2.305539e+01
1.730291e+02	-2.310292e+01
1.740285e+02	-2.315367e+01
1.750337e+02	-2.320613e+01
1.760446e+02	-2.325478e+01
1.770615e+02	-2.330511e+01
1.780842e+02	-2.335470e+01
1.791128e+02	-2.340566e+01
1.801473e+02	-2.345439e+01
1.811878e+02	-2.350221e+01
1.822344e+02	-2.355456e+01
1.832870e+02	-2.360403e+01
1.843456e+02	-2.365289e+01
1.854104e+02	-2.370337e+01
1.864813e+02	-2.375357e+01
1.875584e+02	-2.380240e+01
1.886418e+02	-2.385009e+01
1.897313e+02	-2.390154e+01
1.908272e+02	-2.394976e+01
1.919294e+02	-2.400162e+01
1.930380e+02	-2.404964e+01
1.941530e+02	-2.410193e+01
1.952744e+02	-2.415048e+01
1.964023e+02	-2.419979e+01
1.975367e+02	-2.425177e+01
1.986777e+02	-2.429575e+01
1.998252e+02	-2.435085e+01
2.009794e+02	-2.440175e+01
2.021403e+02	-2.445163e+01
2.033078e+02	-2.450071e+01
2.044821e+02	-2.454888e+01
2.056632e+02	-2.459997e+01
2.068511e+02	-2.465212e+01
2.080459e+02	-2.469990e+01
2.092475e+02	-2.474713e+01
2.104561e+02	-2.480061e+01
2.116717e+02	-2.485178e+01
2.128943e+02	-2.489978e+01
2.141240e+02	-2.494544e+01
2.153608e+02	-2.500075e+01
2.166047e+02	-2.504970e+01
2.178558e+02	-2.510082e+01
2.191141e+02	-2.515122e+01
2.203797e+02	-2.519762e+01
2.216526e+02	-2.524531e+01
2.229329e+02	-2.530028e+01
2.242205e+02	-2.534745e+01
2.255156e+02	-2.540072e+01
2.268182e+02	-2.544876e+01
2.281283e+02	-2.550109e+01
2.294459e+02	-2.554878e+01
2.307712e+02	-2.559622e+01
2.321041e+02	-2.564635e+01
2.334447e+02	-2.569790e+01
2.347931e+02	-2.574691e+01
2.361493e+02	-2.579731e+01
2.375133e+02	-2.584760e+01
2.388851e+02	-2.589849e+01
2.402649e+02	-2.594717e+01
2.416527e+02	-2.599873e+01
2.430484e+02	-2.604612e+01
2.444523e+02	-2.609974e+01
2.458642e+02	-2.614775e+01
2.472843e+02	-2.619597e+01
2.487126e+02	-2.625002e+01
2.501492e+02	-2.629733e+01
2.515940e+02	-2.634745e+01
2.530472e+02	-2.639857e+01
2.545088e+02	-2.644857e+01
2.559789e+02	-2.649652e+01
2.574574e+02	-2.654547e+01
2.589444e+02	-2.659624e+01
2.604401e+02	-2.664889e+01
2.619444e+02	-2.669737e+01
2.634574e+02	-2.674631e+01
2.649791e+02	-2.679525e+01
2.665096e+02	-2.684547e+01
2.680489e+02	-2.689758e+01
2.695972e+02	-2.694740e+01
2.711544e+02	-2.699442e+01
2.727205e+02	-2.704631e+01
2.742958e+02	-2.710122e+01
2.758801e+02	-2.714869e+01
2.774736e+02	-2.719760e+01
2.790762e+02	-2.724690e+01
2.806882e+02	-2.729931e+01
2.823094e+02	-2.734432e+01
2.839400e+02	-2.739589e+01
2.855800e+02	-2.744891e+01
2.872295e+02	-2.749922e+01
2.888886e+02	-2.754564e+01
2.905572e+02	-2.759731e+01
2.922354e+02	-2.764948e+01
2.939234e+02	-2.769507e+01
2.956211e+02	-2.774772e+01
2.973286e+02	-2.779998e+01
2.990459e+02	-2.784784e+01
3.007732e+02	-2.789912e+01
3.025104e+02	-2.794728e+01
3.042577e+02	-2.799827e+01
3.060151e+02	-2.805176e+01
3.077826e+02	-2.809647e+01
3.095604e+02	-2.814913e+01
3.113484e+02	-2.819874e+01
3.131467e+02	-2.824852e+01
3.149554e+02	-2.829776e+01
3.167746e+02	-2.834544e+01
3.186043e+02	-2.839463e+01
3.204445e+02	-2.844730e+01
3.222954e+02	-2.849451e+01
3.241570e+02	-2.854749e+01
3.260293e+02	-2.859601e+01
3.279124e+02	-2.864568e+01
3.298064e+02	-2.869706e+01
3.317114e+02	-2.874270e+01
3.336273e+02	-2.879838e+01
3.355544e+02	-2.884723e+01
3.374925e+02	-2.889576e+01
3.394418e+02	-2.894884e+01
3.414024e+02	-2.899562e+01
3.433744e+02	-2.904866e+01
3.453577e+02	-2.909720e+01
3.473525e+02	-2.914885e+01
3.493588e+02	-2.919685e+01
3.513766e+02	-2.924817e+01
3.534062e+02	-2.930012e+01
3.554474e+02	-2.935024e+01
3.575005e+02	-2.940069e+01
3.595654e+02	-2.944985e+01
3.616422e+02	-2.950227e+01
3.637311e+02	-2.954519e+01
3.658320e+02	-2.959431e+01
3.679450e+02	-2.964650e+01
3.700702e+02	-2.969544e+01
3.722077e+02	-2.974521e+01
3.743576e+02	-2.979482e+01
3.765199e+02	-2.985205e+01
3.786946e+02	-2.989844e+01
3.808820e+02	-2.994753e+01
3.830819e+02	-3.000032e+01
3.852946e+02	-3.004973e+01
3.875200e+02	-3.009790e+01
3.897583e+02	-3.015279e+01
3.920096e+02	-3.019448e+01
3.942738e+02	-3.025138e+01
3.965511e+02	-3.029870e+01
3.988416e+02	-3.034965e+01
4.011452e+02	-3.039811e+01
4.034622e+02	-3.045213e+01
4.057926e+02	-3.050524e+01
4.081365e+02	-3.054916e+01
4.104938e+02	-3.060289e+01
4.128648e+02	-3.064803e+01
4.152495e+02	-3.070000e+01
4.176480e+02	-3.074904e+01
4.200603e+02	-3.079955e+01
4.224866e+02	-3.084607e+01
4.249268e+02	-3.089833e+01
4.273812e+02	-3.094939e+01
4.298497e+02	-3.100459e+01
4.323325e+02	-3.104846e+01
4.348297e+02	-3.110308e+01
4.373412e+02	-3.115281e+01
4.398673e+02	-3.120468e+01
4.424079e+02	-3.125292e+01
4.449633e+02	-3.129909e+01
4.475334e+02	-3.135316e+01
4.501183e+02	-3.140498e+01
4.527182e+02	-3.145309e+01
4.553330e+02	-3.150380e+01
4.579630e+02	-3.155333e+01
4.606082e+02	-3.160192e+01
4.632687e+02	-3.165343e+01
4.659445e+02	-3.170152e+01
4.686358e+02	-3.174954e+01
4.713426e+02	-3.180871e+01
4.740650e+02	-3.184765e+01
4.768032e+02	-3.190158e+01
4.795572e+02	-3.195726e+01
4.823271e+02	-3.200246e+01
4.851130e+02	-3.204788e+01
4.879150e+02	-3.210636e+01
4.907332e+02	-3.215114e+01
4.935676e+02	-3.220437e+01
4.964185e+02	-3.225053e+01
4.992858e+02	-3.230078e+01
5.021696e+02	-3.235529e+01
5.050701e+02	-3.240106e+01
5.079874e+02	-3.245526e+01
5.109215e+02	-3.250916e+01
5.138726e+02	-3.256165e+01
5.168407e+02	-3.260318e+01
5.198259e+02	-3.265399e+01
5.228284e+02	-3.271065e+01
5.258482e+02	-3.275934e+01
5.288855e+02	-3.280716e+01
5.319403e+02	-3.286048e+01
5.350128e+02	-3.291093e+01
5.381030e+02	-3.295297e+01
5.412111e+02	-3.301192e+01
5.443371e+02	-3.305785e+01
5.474812e+02	-3.310913e+01
5.506434e+02	-3.315944e+01
5.538239e+02	-3.321649e+01
5.570228e+02	-3.326509e+01
5.602401e+02	-3.331246e+01
5.634760e+02	-3.336250e+01
5.667306e+02	-3.341078e+01
5.700040e+02	-3.346357e+01
5.732964e+02	-3.351761e+01
5.766077e+02	-3.355985e+01
5.799382e+02	-3.360712e+01
5.832879e+02	-3.366078e+01
5.866569e+02	-3.371760e+01
5.900454e+02	-3.376184e+01
5.934535e+02	-3.381245e+01
5.968813e+02	-3.385680e+01
6.003288e+02	-3.391258e+01
6.037963e+02	-3.396751e+01
6.072838e+02	-3.401415e+01
6.107914e+02	-3.406459e+01
6.143194e+02	-3.411619e+01
6.178676e+02	-3.417120e+01
6.214364e+02	-3.421298e+01
6.250258e+02	-3.426248e+01
6.286359e+02	-3.431169e+01
6.322669e+02	-3.436141e+01
6.359189e+02	-3.441206e+01
6.395919e+02	-3.446839e+01
6.432862e+02	-3.451740e+01
6.470017e+02	-3.455644e+01
6.507388e+02	-3.461896e+01
6.544974e+02	-3.467238e+01
6.582778e+02	-3.471974e+01
6.620800e+02	-3.476943e+01
6.659041e+02	-3.481494e+01
6.697504e+02	-3.486348e+01
6.736188e+02	-3.491811e+01
6.775096e+02	-3.496790e+01
6.814229e+02	-3.502465e+01
6.853587e+02	-3.507243e+01
6.893173e+02	-3.511975e+01
6.932988e+02	-3.517361e+01
6.973033e+02	-3.521771e+01
7.013309e+02	-3.526476e+01
