Frequency(Hz)	Magnitude(dB)
1.000000e+01	-1.885974e-05
1.005776e+01	-1.907824e-05
1.011585e+01	-1.929926e-05
1.017428e+01	-1.952285e-05
1.023305e+01	-1.974903e-05
1.029215e+01	-1.997783e-05
1.035160e+01	-2.020927e-05
1.041139e+01	-2.044340e-05
1.047153e+01	-2.068025e-05
1.053201e+01	-2.091983e-05
1.059284e+01	-2.116219e-05
1.065403e+01	-2.140736e-05
1.071556e+01	-2.165537e-05
1.077746e+01	-2.190625e-05
1.083971e+01	-2.216004e-05
1.090232e+01	-2.241677e-05
1.096529e+01	-2.267648e-05
1.102862e+01	-2.293919e-05
1.109232e+01	-2.320495e-05
1.115639e+01	-2.347378e-05
1.122083e+01	-2.374573e-05
1.128564e+01	-2.402083e-05
1.135083e+01	-2.429912e-05
1.141639e+01	-2.458063e-05
1.148233e+01	-2.486540e-05
1.154865e+01	-2.515347e-05
1.161536e+01	-2.544488e-05
1.168245e+01	-2.573967e-05
1.174992e+01	-2.603787e-05
1.181779e+01	-2.633952e-05
1.188605e+01	-2.664467e-05
1.195470e+01	-2.695336e-05
1.202375e+01	-2.726562e-05
1.209320e+01	-2.758150e-05
1.216305e+01	-2.790104e-05
1.223330e+01	-2.822428e-05
1.230396e+01	-2.855126e-05
1.237503e+01	-2.888204e-05
1.244651e+01	-2.921664e-05
1.251840e+01	-2.955512e-05
1.259070e+01	-2.989753e-05
1.266343e+01	-3.024390e-05
1.273657e+01	-3.059428e-05
1.281014e+01	-3.094872e-05
1.288413e+01	-3.130727e-05
1.295855e+01	-3.166997e-05
1.303339e+01	-3.203688e-05
1.310867e+01	-3.240803e-05
1.318439e+01	-3.278349e-05
1.326054e+01	-3.316329e-05
1.333713e+01	-3.354749e-05
1.341417e+01	-3.393615e-05
1.349165e+01	-3.432931e-05
1.356958e+01	-3.472702e-05
1.364795e+01	-3.512934e-05
1.372678e+01	-3.553632e-05
1.380607e+01	-3.594802e-05
1.388581e+01	-3.636449e-05
1.396602e+01	-3.678578e-05
1.404668e+01	-3.721195e-05
1.412782e+01	-3.764306e-05
1.420942e+01	-3.807916e-05
1.429149e+01	-3.852032e-05
1.437404e+01	-3.896658e-05
1.445706e+01	-3.941802e-05
1.454057e+01	-3.987469e-05
1.462455e+01	-4.033664e-05
1.470902e+01	-4.080395e-05
1.479398e+01	-4.127668e-05
1.487943e+01	-4.175488e-05
1.496537e+01	-4.223862e-05
1.505181e+01	-4.272796e-05
1.513875e+01	-4.322297e-05
1.522619e+01	-4.372372e-05
1.531414e+01	-4.423027e-05
1.540259e+01	-4.474269e-05
1.549156e+01	-4.526104e-05
1.558103e+01	-4.578540e-05
1.567103e+01	-4.631583e-05
1.576155e+01	-4.685241e-05
1.585258e+01	-4.739521e-05
1.594415e+01	-4.794429e-05
1.603624e+01	-4.849974e-05
1.612886e+01	-4.906162e-05
1.622202e+01	-4.963001e-05
1.631572e+01	-5.020498e-05
1.640996e+01	-5.078661e-05
1.650474e+01	-5.137499e-05
1.660008e+01	-5.197018e-05
1.669596e+01	-5.257226e-05
1.679239e+01	-5.318132e-05
1.688938e+01	-5.379744e-05
1.698694e+01	-5.442070e-05
1.708505e+01	-5.505117e-05
1.718373e+01	-5.568895e-05
1.728299e+01	-5.633412e-05
1.738281e+01	-5.698676e-05
1.748322e+01	-5.764696e-05
1.758420e+01	-5.831481e-05
1.768576e+01	-5.899040e-05
1.778792e+01	-5.967382e-05
1.789066e+01	-6.036515e-05
1.799399e+01	-6.106449e-05
1.809793e+01	-6.177194e-05
1.820246e+01	-6.248758e-05
1.830760e+01	-6.321151e-05
1.841334e+01	-6.394383e-05
1.851969e+01	-6.468463e-05
1.862666e+01	-6.543401e-05
1.873425e+01	-6.619208e-05
1.884246e+01	-6.695893e-05
1.895129e+01	-6.773466e-05
1.906075e+01	-6.851938e-05
1.917085e+01	-6.931319e-05
1.928158e+01	-7.011619e-05
1.939295e+01	-7.092850e-05
1.950496e+01	-7.175022e-05
1.961762e+01	-7.258146e-05
1.973093e+01	-7.342233e-05
1.984490e+01	-7.427294e-05
1.995952e+01	-7.513341e-05
2.007480e+01	-7.600384e-05
2.019076e+01	-7.688436e-05
2.030738e+01	-7.777508e-05
2.042467e+01	-7.867612e-05
2.054264e+01	-7.958759e-05
2.066130e+01	-8.050963e-05
2.078064e+01	-8.144235e-05
2.090066e+01	-8.238587e-05
2.102139e+01	-8.334032e-05
2.114280e+01	-8.430584e-05
2.126492e+01	-8.528253e-05
2.138775e+01	-8.627054e-05
2.151128e+01	-8.727000e-05
2.163553e+01	-8.828104e-05
2.176050e+01	-8.930379e-05
2.188619e+01	-9.033839e-05
2.201260e+01	-9.138497e-05
2.213974e+01	-9.244368e-05
2.226762e+01	-9.351466e-05
2.239624e+01	-9.459804e-05
2.252560e+01	-9.569397e-05
2.265571e+01	-9.680260e-05
2.278656e+01	-9.792407e-05
2.291818e+01	-9.905854e-05
2.305055e+01	-1.002061e-04
2.318369e+01	-1.013670e-04
2.331760e+01	-1.025414e-04
2.345228e+01	-1.037294e-04
2.358774e+01	-1.049311e-04
2.372398e+01	-1.061467e-04
2.386101e+01	-1.073764e-04
2.399883e+01	-1.086204e-04
2.413745e+01	-1.098788e-04
2.427686e+01	-1.111518e-04
2.441709e+01	-1.124395e-04
2.455812e+01	-1.137421e-04
2.469997e+01	-1.150598e-04
2.484263e+01	-1.163928e-04
2.498612e+01	-1.177412e-04
2.513044e+01	-1.191053e-04
2.527559e+01	-1.204851e-04
2.542158e+01	-1.218809e-04
2.556842e+01	-1.232929e-04
2.571610e+01	-1.247213e-04
2.586463e+01	-1.261662e-04
2.601403e+01	-1.276279e-04
2.616428e+01	-1.291064e-04
2.631541e+01	-1.306022e-04
2.646740e+01	-1.321152e-04
2.662028e+01	-1.336458e-04
2.677404e+01	-1.351941e-04
2.692868e+01	-1.367603e-04
2.708422e+01	-1.383447e-04
2.724066e+01	-1.399474e-04
2.739800e+01	-1.415687e-04
2.755625e+01	-1.432088e-04
2.771541e+01	-1.448679e-04
2.787550e+01	-1.465462e-04
2.803650e+01	-1.482440e-04
2.819844e+01	-1.499614e-04
2.836131e+01	-1.516987e-04
2.852513e+01	-1.534561e-04
2.868989e+01	-1.552339e-04
2.885560e+01	-1.570323e-04
2.902227e+01	-1.588515e-04
2.918990e+01	-1.606919e-04
2.935850e+01	-1.625535e-04
2.952807e+01	-1.644367e-04
2.969863e+01	-1.663417e-04
2.987016e+01	-1.682688e-04
3.004269e+01	-1.702182e-04
3.021622e+01	-1.721901e-04
3.039075e+01	-1.741850e-04
3.056628e+01	-1.762029e-04
3.074283e+01	-1.782442e-04
3.092040e+01	-1.803092e-04
3.109900e+01	-1.823981e-04
3.127862e+01	-1.845112e-04
3.145929e+01	-1.866487e-04
3.164099e+01	-1.888111e-04
3.182375e+01	-1.909985e-04
3.200756e+01	-1.932112e-04
3.219244e+01	-1.954495e-04
3.237838e+01	-1.977138e-04
3.256540e+01	-2.000043e-04
3.275349e+01	-2.023214e-04
3.294268e+01	-2.046653e-04
3.313295e+01	-2.070363e-04
3.332433e+01	-2.094348e-04
3.351681e+01	-2.118611e-04
3.371040e+01	-2.143156e-04
3.390511e+01	-2.167984e-04
3.410094e+01	-2.193100e-04
3.429791e+01	-2.218507e-04
3.449601e+01	-2.244208e-04
3.469526e+01	-2.270208e-04
3.489566e+01	-2.296508e-04
3.509721e+01	-2.323113e-04
3.529993e+01	-2.350026e-04
3.550382e+01	-2.377251e-04
3.570889e+01	-2.404791e-04
3.591515e+01	-2.432651e-04
3.612259e+01	-2.460833e-04
3.633123e+01	-2.489341e-04
3.654108e+01	-2.518180e-04
3.675214e+01	-2.547353e-04
3.696442e+01	-2.576864e-04
3.717792e+01	-2.606717e-04
3.739266e+01	-2.636916e-04
3.760864e+01	-2.667464e-04
3.782587e+01	-2.698366e-04
3.804435e+01	-2.729627e-04
3.826409e+01	-2.761249e-04
3.848510e+01	-2.793238e-04
3.870739e+01	-2.825598e-04
3.893096e+01	-2.858332e-04
3.915583e+01	-2.891445e-04
3.938199e+01	-2.924942e-04
3.960946e+01	-2.958827e-04
3.983824e+01	-2.993105e-04
4.006834e+01	-3.027780e-04
4.029978e+01	-3.062856e-04
4.053255e+01	-3.098339e-04
4.076666e+01	-3.134233e-04
4.100213e+01	-3.170542e-04
4.123896e+01	-3.207273e-04
4.147715e+01	-3.244428e-04
4.171672e+01	-3.282015e-04
4.195767e+01	-3.320036e-04
4.220002e+01	-3.358498e-04
4.244377e+01	-3.397406e-04
4.268892e+01	-3.436764e-04
4.293549e+01	-3.476579e-04
4.318348e+01	-3.516854e-04
4.343291e+01	-3.557596e-04
4.368377e+01	-3.598810e-04
4.393609e+01	-3.640502e-04
4.418986e+01	-3.682676e-04
4.444510e+01	-3.725339e-04
4.470182e+01	-3.768496e-04
4.496001e+01	-3.812153e-04
4.521970e+01	-3.856316e-04
4.548089e+01	-3.900991e-04
4.574358e+01	-3.946183e-04
4.600779e+01	-3.991898e-04
4.627353e+01	-4.038143e-04
4.654081e+01	-4.084924e-04
4.680963e+01	-4.132247e-04
4.708000e+01	-4.180118e-04
4.735193e+01	-4.228543e-04
4.762543e+01	-4.277530e-04
4.790051e+01	-4.327084e-04
4.817719e+01	-4.377212e-04
4.845545e+01	-4.427920e-04
4.873533e+01	-4.479216e-04
4.901682e+01	-4.531107e-04
4.929994e+01	-4.583598e-04
4.958470e+01	-4.636697e-04
4.987110e+01	-4.690412e-04
5.015915e+01	-4.744749e-04
5.044887e+01	-4.799715e-04
5.074026e+01	-4.855318e-04
5.103333e+01	-4.911565e-04
5.132810e+01	-4.968463e-04
5.162457e+01	-5.026021e-04
5.192275e+01	-5.084245e-04
5.222265e+01	-5.143144e-04
5.252429e+01	-5.202726e-04
5.282767e+01	-5.262997e-04
5.313280e+01	-5.323966e-04
5.343969e+01	-5.385642e-04
5.374836e+01	-5.448032e-04
5.405880e+01	-5.511145e-04
5.437105e+01	-5.574989e-04
5.468509e+01	-5.639573e-04
5.500095e+01	-5.704905e-04
5.531863e+01	-5.770993e-04
5.563815e+01	-5.837847e-04
5.595951e+01	-5.905476e-04
5.628273e+01	-5.973888e-04
5.660782e+01	-6.043092e-04
5.693479e+01	-6.113098e-04
5.726364e+01	-6.183915e-04
5.759439e+01	-6.255552e-04
5.792705e+01	-6.328019e-04
5.826164e+01	-6.401325e-04
5.859815e+01	-6.475481e-04
5.893662e+01	-6.550496e-04
5.927703e+01	-6.626379e-04
5.961941e+01	-6.703142e-04
5.996377e+01	-6.780793e-04
6.031012e+01	-6.859344e-04
6.065847e+01	-6.938806e-04
6.100883e+01	-7.019187e-04
6.136121e+01	-7.100500e-04
6.171563e+01	-7.182754e-04
6.207210e+01	-7.265961e-04
6.243063e+01	-7.350132e-04
6.279122e+01	-7.435278e-04
6.315390e+01	-7.521411e-04
6.351868e+01	-7.608541e-04
6.388556e+01	-7.696680e-04
6.425456e+01	-7.785840e-04
6.462569e+01	-7.876033e-04
6.499897e+01	-7.967270e-04
6.537440e+01	-8.059565e-04
6.575200e+01	-8.152928e-04
6.613178e+01	-8.247373e-04
6.651375e+01	-8.342912e-04
6.689793e+01	-8.439558e-04
6.728433e+01	-8.537323e-04
6.767297e+01	-8.636220e-04
6.806384e+01	-8.736263e-04
6.845698e+01	-8.837465e-04
6.885238e+01	-8.939839e-04
6.925007e+01	-9.043398e-04
6.965005e+01	-9.148158e-04
7.005235e+01	-9.254130e-04
7.045697e+01	-9.361330e-04
7.086393e+01	-9.469772e-04
7.127323e+01	-9.579470e-04
7.168490e+01	-9.690438e-04
7.209895e+01	-9.802692e-04
7.251539e+01	-9.916246e-04
7.293424e+01	-1.003111e-03
7.335551e+01	-1.014731e-03
7.377920e+01	-1.026486e-03
7.420535e+01	-1.038377e-03
7.463396e+01	-1.050405e-03
7.506504e+01	-1.062573e-03
7.549861e+01	-1.074882e-03
7.593469e+01	-1.087333e-03
7.637328e+01	-1.099928e-03
7.681441e+01	-1.112670e-03
7.725809e+01	-1.125558e-03
7.770433e+01	-1.138597e-03
7.815315e+01	-1.151786e-03
7.860456e+01	-1.165128e-03
7.905857e+01	-1.178624e-03
7.951521e+01	-1.192277e-03
7.997449e+01	-1.206088e-03
8.043642e+01	-1.220059e-03
8.090102e+01	-1.234192e-03
8.136830e+01	-1.248488e-03
8.183828e+01	-1.262950e-03
8.231097e+01	-1.277579e-03
8.278640e+01	-1.292378e-03
8.326457e+01	-1.307349e-03
8.374550e+01	-1.322492e-03
8.422921e+01	-1.337811e-03
8.471572e+01	-1.353308e-03
8.520503e+01	-1.368984e-03
8.569717e+01	-1.384841e-03
8.619215e+01	-1.400883e-03
8.669000e+01	-1.417110e-03
8.719071e+01	-1.433524e-03
8.769432e+01	-1.450129e-03
8.820084e+01	-1.466927e-03
8.871029e+01	-1.483919e-03
8.922267e+01	-1.501107e-03
8.973802e+01	-1.518495e-03
9.025634e+01	-1.536084e-03
9.077766e+01	-1.553877e-03
9.130199e+01	-1.571876e-03
9.182935e+01	-1.590083e-03
9.235975e+01	-1.608501e-03
9.289321e+01	-1.627132e-03
9.342976e+01	-1.645980e-03
9.396941e+01	-1.665045e-03
9.451217e+01	-1.684331e-03
9.505807e+01	-1.703841e-03
9.560712e+01	-1.723576e-03
9.615934e+01	-1.743541e-03
9.671476e+01	-1.763736e-03
9.727338e+01	-1.784165e-03
9.783522e+01	-1.804831e-03
9.840032e+01	-1.825736e-03
9.896867e+01	-1.846883e-03
9.954031e+01	-1.868275e-03
1.001153e+02	-1.889915e-03
1.006935e+02	-1.911805e-03
1.012751e+02	-1.933949e-03
1.018601e+02	-1.956349e-03
1.024484e+02	-1.979009e-03
1.030402e+02	-2.001931e-03
1.036353e+02	-2.025118e-03
1.042339e+02	-2.048574e-03
1.048360e+02	-2.072302e-03
1.054415e+02	-2.096304e-03
1.060505e+02	-2.120585e-03
1.066631e+02	-2.145146e-03
1.072791e+02	-2.169992e-03
1.078988e+02	-2.195126e-03
1.085220e+02	-2.220550e-03
1.091488e+02	-2.246269e-03
1.097793e+02	-2.272286e-03
1.104133e+02	-2.298604e-03
1.110511e+02	-2.325227e-03
1.116925e+02	-2.352158e-03
1.123376e+02	-2.379401e-03
1.129865e+02	-2.406959e-03
1.136391e+02	-2.434837e-03
1.142955e+02	-2.463037e-03
1.149556e+02	-2.491564e-03
1.156196e+02	-2.520421e-03
1.162874e+02	-2.549612e-03
1.169591e+02	-2.579141e-03
1.176347e+02	-2.609012e-03
1.183141e+02	-2.639229e-03
1.189975e+02	-2.669796e-03
1.196848e+02	-2.700716e-03
1.203761e+02	-2.731995e-03
1.210714e+02	-2.763636e-03
1.217707e+02	-2.795643e-03
1.224740e+02	-2.828021e-03
1.231814e+02	-2.860773e-03
1.238929e+02	-2.893905e-03
1.246085e+02	-2.927420e-03
1.253283e+02	-2.961324e-03
1.260522e+02	-2.995619e-03
1.267802e+02	-3.030312e-03
1.275125e+02	-3.065407e-03
1.282490e+02	-3.100908e-03
1.289898e+02	-3.136820e-03
1.297348e+02	-3.173147e-03
1.304842e+02	-3.209895e-03
1.312378e+02	-3.247069e-03
1.319959e+02	-3.284673e-03
1.327583e+02	-3.322712e-03
1.335251e+02	-3.361192e-03
1.342963e+02	-3.400117e-03
1.350720e+02	-3.439492e-03
1.358522e+02	-3.479324e-03
1.366368e+02	-3.519616e-03
1.374260e+02	-3.560375e-03
1.382198e+02	-3.601606e-03
1.390182e+02	-3.643314e-03
1.398211e+02	-3.685505e-03
1.406287e+02	-3.728184e-03
1.414410e+02	-3.771357e-03
1.422579e+02	-3.815030e-03
1.430796e+02	-3.859209e-03
1.439060e+02	-3.903898e-03
1.447372e+02	-3.949105e-03
1.455732e+02	-3.994836e-03
1.464141e+02	-4.041095e-03
1.472597e+02	-4.087890e-03
1.481103e+02	-4.135227e-03
1.489658e+02	-4.183112e-03
1.498262e+02	-4.231551e-03
1.506916e+02	-4.280550e-03
1.515620e+02	-4.330116e-03
1.524374e+02	-4.380257e-03
1.533179e+02	-4.430977e-03
1.542034e+02	-4.482285e-03
1.550941e+02	-4.534186e-03
1.559899e+02	-4.586688e-03
1.568909e+02	-4.639797e-03
1.577971e+02	-4.693522e-03
1.587085e+02	-4.747867e-03
1.596252e+02	-4.802842e-03
1.605472e+02	-4.858453e-03
1.614745e+02	-4.914708e-03
1.624072e+02	-4.971613e-03
1.633453e+02	-5.029177e-03
1.642887e+02	-5.087407e-03
1.652377e+02	-5.146311e-03
1.661921e+02	-5.205897e-03
1.671520e+02	-5.266172e-03
1.681175e+02	-5.327144e-03
1.690885e+02	-5.388822e-03
1.700651e+02	-5.451214e-03
1.710474e+02	-5.514328e-03
1.720354e+02	-5.578171e-03
1.730291e+02	-5.642754e-03
1.740285e+02	-5.708083e-03
1.750337e+02	-5.774169e-03
1.760446e+02	-5.841019e-03
1.770615e+02	-5.908643e-03
1.780842e+02	-5.977049e-03
1.791128e+02	-6.046246e-03
1.801473e+02	-6.116244e-03
1.811878e+02	-6.187052e-03
1.822344e+02	-6.258678e-03
1.832870e+02	-6.331134e-03
1.843456e+02	-6.404427e-03
1.854104e+02	-6.478569e-03
1.864813e+02	-6.553568e-03
1.875584e+02	-6.629435e-03
1.886418e+02	-6.706179e-03
1.897313e+02	-6.783811e-03
1.908272e+02	-6.862341e-03
1.919294e+02	-6.941779e-03
1.930380e+02	-7.022136e-03
1.941530e+02	-7.103423e-03
1.952744e+02	-7.185650e-03
1.964023e+02	-7.268827e-03
1.975367e+02	-7.352967e-03
1.986777e+02	-7.438080e-03
1.998252e+02	-7.524177e-03
2.009794e+02	-7.611270e-03
2.021403e+02	-7.699370e-03
2.033078e+02	-7.788489e-03
2.044821e+02	-7.878639e-03
2.056632e+02	-7.969831e-03
2.068511e+02	-8.062078e-03
2.080459e+02	-8.155391e-03
2.092475e+02	-8.249783e-03
2.104561e+02	-8.345267e-03
2.116717e+02	-8.441855e-03
2.128943e+02	-8.539559e-03
2.141240e+02	-8.638394e-03
2.153608e+02	-8.738371e-03
2.166047e+02	-8.839504e-03
2.178558e+02	-8.941806e-03
2.191141e+02	-9.045291e-03
2.203797e+02	-9.149972e-03
2.216526e+02	-9.255864e-03
2.229329e+02	-9.362979e-03
2.242205e+02	-9.471333e-03
2.255156e+02	-9.580940e-03
2.268182e+02	-9.691813e-03
2.281283e+02	-9.803968e-03
2.294459e+02	-9.917419e-03
2.307712e+02	-1.003218e-02
2.321041e+02	-1.014827e-02
2.334447e+02	-1.026570e-02
2.347931e+02	-1.038449e-02
2.361493e+02	-1.050465e-02
2.375133e+02	-1.062620e-02
2.388851e+02	-1.074916e-02
2.402649e+02	-1.087353e-02
2.416527e+02	-1.099934e-02
2.430484e+02	-1.112661e-02
2.444523e+02	-1.125535e-02
2.458642e+02	-1.138557e-02
2.472843e+02	-1.151730e-02
2.487126e+02	-1.165055e-02
2.501492e+02	-1.178534e-02
2.515940e+02	-1.192169e-02
2.530472e+02	-1.205962e-02
2.545088e+02	-1.219913e-02
2.559789e+02	-1.234026e-02
2.574574e+02	-1.248302e-02
2.589444e+02	-1.262743e-02
2.604401e+02	-1.277350e-02
2.619444e+02	-1.292127e-02
2.634574e+02	-1.307074e-02
2.649791e+02	-1.322193e-02
2.665096e+02	-1.337488e-02
2.680489e+02	-1.352959e-02
2.695972e+02	-1.368608e-02
2.711544e+02	-1.384439e-02
2.727205e+02	-1.400452e-02
2.742958e+02	-1.416650e-02
2.758801e+02	-1.433035e-02
2.774736e+02	-1.449609e-02
2.790762e+02	-1.466375e-02
2.806882e+02	-1.483334e-02
2.823094e+02	-1.500489e-02
2.839400e+02	-1.517842e-02
2.855800e+02	-1.535395e-02
2.872295e+02	-1.553152e-02
2.888886e+02	-1.571113e-02
2.905572e+02	-1.589281e-02
2.922354e+02	-1.607659e-02
2.939234e+02	-1.626249e-02
2.956211e+02	-1.645054e-02
2.973286e+02	-1.664076e-02
2.990459e+02	-1.683317e-02
3.007732e+02	-1.702780e-02
3.025104e+02	-1.722468e-02
3.042577e+02	-1.742383e-02
3.060151e+02	-1.762528e-02
3.077826e+02	-1.782905e-02
3.095604e+02	-1.803518e-02
3.113484e+02	-1.824368e-02
3.131467e+02	-1.845459e-02
3.149554e+02	-1.866793e-02
3.167746e+02	-1.888373e-02
3.186043e+02	-1.910202e-02
3.204445e+02	-1.932282e-02
3.222954e+02	-1.954618e-02
3.241570e+02	-1.977211e-02
3.260293e+02	-2.000065e-02
3.279124e+02	-2.023182e-02
3.298064e+02	-2.046565e-02
3.317114e+02	-2.070219e-02
3.336273e+02	-2.094145e-02
3.355544e+02	-2.118346e-02
3.374925e+02	-2.142827e-02
3.394418e+02	-2.167590e-02
3.414024e+02	-2.192639e-02
3.433744e+02	-2.217976e-02
3.453577e+02	-2.243605e-02
3.473525e+02	-2.269530e-02
3.493588e+02	-2.295753e-02
3.513766e+02	-2.322279e-02
3.534062e+02	-2.349110e-02
3.554474e+02	-2.376251e-02
3.575005e+02	-2.403704e-02
3.595654e+02	-2.431473e-02
3.616422e+02	-2.459562e-02
3.637311e+02	-2.487975e-02
3.658320e+02	-2.516715e-02
3.679450e+02	-2.545786e-02
3.700702e+02	-2.575192e-02
3.722077e+02	-2.604937e-02
3.743576e+02	-2.635024e-02
3.765199e+02	-2.665457e-02
3.786946e+02	-2.696241e-02
3.808820e+02	-2.727379e-02
3.830819e+02	-2.758876e-02
3.852946e+02	-2.790735e-02
3.875200e+02	-2.822961e-02
3.897583e+02	-2.855558e-02
3.920096e+02	-2.888530e-02
3.942738e+02	-2.921882e-02
3.965511e+02	-2.955617e-02
3.988416e+02	-2.989740e-02
4.011452e+02	-3.024256e-02
4.034622e+02	-3.059170e-02
4.057926e+02	-3.094484e-02
4.081365e+02	-3.130205e-02
4.104938e+02	-3.166337e-02
4.128648e+02	-3.202884e-02
4.152495e+02	-3.239851e-02
4.176480e+02	-3.277244e-02
4.200603e+02	-3.315066e-02
4.224866e+02	-3.353324e-02
4.249268e+02	-3.392021e-02
4.273812e+02	-3.431163e-02
4.298497e+02	-3.470754e-02
4.323325e+02	-3.510801e-02
4.348297e+02	-3.551308e-02
4.373412e+02	-3.592280e-02
4.398673e+02	-3.633723e-02
4.424079e+02	-3.675642e-02
4.449633e+02	-3.718043e-02
4.475334e+02	-3.760930e-02
4.501183e+02	-3.804310e-02
4.527182e+02	-3.848188e-02
4.553330e+02	-3.892571e-02
4.579630e+02	-3.937462e-02
4.606082e+02	-3.982869e-02
4.632687e+02	-4.028797e-02
4.659445e+02	-4.075252e-02
4.686358e+02	-4.122241e-02
4.713426e+02	-4.169768e-02
4.740650e+02	-4.217841e-02
4.768032e+02	-4.266465e-02
4.795572e+02	-4.315647e-02
4.823271e+02	-4.365393e-02
4.851130e+02	-4.415710e-02
4.879150e+02	-4.466604e-02
4.907332e+02	-4.518081e-02
4.935676e+02	-4.570148e-02
4.964185e+02	-4.622812e-02
4.992858e+02	-4.676080e-02
5.021696e+02	-4.729958e-02
5.050701e+02	-4.784453e-02
5.079874e+02	-4.839573e-02
5.109215e+02	-4.895325e-02
5.138726e+02	-4.951714e-02
5.168407e+02	-5.008750e-02
5.198259e+02	-5.066439e-02
5.228284e+02	-5.124788e-02
5.258482e+02	-5.183805e-02
5.288855e+02	-5.243498e-02
5.319403e+02	-5.303874e-02
5.350128e+02	-5.364941e-02
5.381030e+02	-5.426706e-02
5.412111e+02	-5.489178e-02
5.443371e+02	-5.552365e-02
5.474812e+02	-5.616274e-02
5.506434e+02	-5.680914e-02
5.538239e+02	-5.746293e-02
5.570228e+02	-5.812420e-02
5.602401e+02	-5.879302e-02
5.634760e+02	-5.946948e-02
5.667306e+02	-6.015368e-02
5.700040e+02	-6.084569e-02
5.732964e+02	-6.154560e-02
5.766077e+02	-6.225351e-02
5.799382e+02	-6.296950e-02
5.832879e+02	-6.369367e-02
5.866569e+02	-6.442610e-02
5.900454e+02	-6.516689e-02
5.934535e+02	-6.591614e-02
5.968813e+02	-6.667393e-02
6.003288e+02	-6.744037e-02
6.037963e+02	-6.821554e-02
6.072838e+02	-6.899956e-02
6.107914e+02	-6.979252e-02
6.143194e+02	-7.059451e-02
6.178676e+02	-7.140564e-02
6.214364e+02	-7.222602e-02
6.250258e+02	-7.305574e-02
6.286359e+02	-7.389491e-02
6.322669e+02	-7.474364e-02
6.359189e+02	-7.560203e-02
6.395919e+02	-7.647019e-02
6.432862e+02	-7.734823e-02
6.470017e+02	-7.823626e-02
6.507388e+02	-7.913440e-02
6.544974e+02	-8.004275e-02
6.582778e+02	-8.096143e-02
6.620800e+02	-8.189055e-02
6.659041e+02	-8.283024e-02
6.697504e+02	-8.378060e-02
6.736188e+02	-8.474176e-02
6.775096e+02	-8.571384e-02
6.814229e+02	-8.669696e-02
6.853587e+02	-8.769124e-02
6.893173e+02	-8.869680e-02
6.932988e+02	-8.971378e-02
6.973033e+02	-9.074230e-02
7.013309e+02	-9.178248e-02
