Frequency(Hz)	Magnitude(dB)
1.000000e+01	-2.060527e+00
1.005776e+01	-2.079402e+00
1.011585e+01	-2.098554e+00
1.017428e+01	-2.118003e+00
1.023305e+01	-2.137326e+00
1.029215e+01	-2.156860e+00
1.035160e+01	-2.176612e+00
1.041139e+01	-2.196175e+00
1.047153e+01	-2.215996e+00
1.053201e+01	-2.236104e+00
1.059284e+01	-2.256198e+00
1.065403e+01	-2.276659e+00
1.071556e+01	-2.297496e+00
1.077746e+01	-2.318064e+00
1.083971e+01	-2.338602e+00
1.090232e+01	-2.359439e+00
1.096529e+01	-2.380362e+00
1.102862e+01	-2.401712e+00
1.109232e+01	-2.423049e+00
1.115639e+01	-2.444498e+00
1.122083e+01	-2.466008e+00
1.128564e+01	-2.488063e+00
1.135083e+01	-2.509633e+00
1.141639e+01	-2.531958e+00
1.148233e+01	-2.554055e+00
1.154865e+01	-2.576221e+00
1.161536e+01	-2.598443e+00
1.168245e+01	-2.621216e+00
1.174992e+01	-2.644145e+00
1.181779e+01	-2.666929e+00
1.188605e+01	-2.689828e+00
1.195470e+01	-2.713231e+00
1.202375e+01	-2.736354e+00
1.209320e+01	-2.759801e+00
1.216305e+01	-2.783474e+00
1.223330e+01	-2.807092e+00
1.230396e+01	-2.831016e+00
1.237503e+01	-2.855102e+00
1.244651e+01	-2.879413e+00
1.251840e+01	-2.903664e+00
1.259070e+01	-2.928063e+00
1.266343e+01	-2.952805e+00
1.273657e+01	-2.977464e+00
1.281014e+01	-3.002566e+00
1.288413e+01	-3.027375e+00
1.295855e+01	-3.052710e+00
1.303339e+01	-3.078038e+00
1.310867e+01	-3.103377e+00
1.318439e+01	-3.128865e+00
1.326054e+01	-3.154749e+00
1.333713e+01	-3.180631e+00
1.341417e+01	-3.206717e+00
1.349165e+01	-3.233008e+00
1.356958e+01	-3.258996e+00
1.364795e+01	-3.285755e+00
1.372678e+01	-3.312163e+00
1.380607e+01	-3.339212e+00
1.388581e+01	-3.366105e+00
1.396602e+01	-3.393103e+00
1.404668e+01	-3.420367e+00
1.412782e+01	-3.447490e+00
1.420942e+01	-3.474958e+00
1.429149e+01	-3.502727e+00
1.437404e+01	-3.530357e+00
1.445706e+01	-3.558211e+00
1.454057e+01	-3.586375e+00
1.462455e+01	-3.614590e+00
1.470902e+01	-3.642839e+00
1.479398e+01	-3.671247e+00
1.487943e+01	-3.699983e+00
1.496537e+01	-3.728749e+00
1.505181e+01	-3.757654e+00
1.513875e+01	-3.787012e+00
1.522619e+01	-3.815972e+00
1.531414e+01	-3.845007e+00
1.540259e+01	-3.874768e+00
1.549156e+01	-3.904137e+00
1.558103e+01	-3.934064e+00
1.567103e+01	-3.963949e+00
1.576155e+01	-3.994025e+00
1.585258e+01	-4.023975e+00
1.594415e+01	-4.054171e+00
1.603624e+01	-4.084762e+00
1.612886e+01	-4.115372e+00
1.622202e+01	-4.146268e+00
1.631572e+01	-4.176669e+00
1.640996e+01	-4.207929e+00
1.650474e+01	-4.238869e+00
1.660008e+01	-4.270260e+00
1.669596e+01	-4.301557e+00
1.679239e+01	-4.332964e+00
1.688938e+01	-4.364470e+00
1.698694e+01	-4.396347e+00
1.708505e+01	-4.428363e+00
1.718373e+01	-4.460375e+00
1.728299e+01	-4.492277e+00
1.738281e+01	-4.524828e+00
1.748322e+01	-4.557297e+00
1.758420e+01	-4.589940e+00
1.768576e+01	-4.622399e+00
1.778792e+01	-4.655353e+00
1.789066e+01	-4.688739e+00
1.799399e+01	-4.721816e+00
1.809793e+01	-4.754429e+00
1.820246e+01	-4.788121e+00
1.830760e+01	-4.821669e+00
1.841334e+01	-4.855384e+00
1.851969e+01	-4.888885e+00
1.862666e+01	-4.922560e+00
1.873425e+01	-4.956711e+00
1.884246e+01	-4.990776e+00
1.895129e+01	-5.025274e+00
1.906075e+01	-5.059193e+00
1.917085e+01	-5.093745e+00
1.928158e+01	-5.128611e+00
1.939295e+01	-5.163458e+00
1.950496e+01	-5.198305e+00
1.961762e+01	-5.232999e+00
1.973093e+01	-5.268200e+00
1.984490e+01	-5.303460e+00
1.995952e+01	-5.338721e+00
2.007480e+01	-5.374104e+00
2.019076e+01	-5.409838e+00
2.030738e+01	-5.445232e+00
2.042467e+01	-5.481183e+00
2.054264e+01	-5.516862e+00
2.066130e+01	-5.553273e+00
2.078064e+01	-5.589222e+00
2.090066e+01	-5.625689e+00
2.102139e+01	-5.661766e+00
2.114280e+01	-5.698511e+00
2.126492e+01	-5.735297e+00
2.138775e+01	-5.771909e+00
2.151128e+01	-5.808770e+00
2.163553e+01	-5.845638e+00
2.176050e+01	-5.882906e+00
2.188619e+01	-5.919497e+00
2.201260e+01	-5.957492e+00
2.213974e+01	-5.994296e+00
2.226762e+01	-6.032247e+00
2.239624e+01	-6.069825e+00
2.252560e+01	-6.107598e+00
2.265571e+01	-6.145014e+00
2.278656e+01	-6.183241e+00
2.291818e+01	-6.221232e+00
2.305055e+01	-6.259423e+00
2.318369e+01	-6.297197e+00
2.331760e+01	-6.336346e+00
2.345228e+01	-6.374317e+00
2.358774e+01	-6.412512e+00
2.372398e+01	-6.451432e+00
2.386101e+01	-6.490006e+00
2.399883e+01	-6.529454e+00
2.413745e+01	-6.568053e+00
2.427686e+01	-6.607392e+00
2.441709e+01	-6.646226e+00
2.455812e+01	-6.685500e+00
2.469997e+01	-6.724736e+00
2.484263e+01	-6.764563e+00
2.498612e+01	-6.803804e+00
2.513044e+01	-6.843166e+00
2.527559e+01	-6.883340e+00
2.542158e+01	-6.923027e+00
2.556842e+01	-6.962878e+00
2.571610e+01	-7.002871e+00
2.586463e+01	-7.043163e+00
2.601403e+01	-7.083372e+00
2.616428e+01	-7.123874e+00
2.631541e+01	-7.163802e+00
2.646740e+01	-7.204352e+00
2.662028e+01	-7.244872e+00
2.677404e+01	-7.285214e+00
2.692868e+01	-7.326176e+00
2.708422e+01	-7.367229e+00
2.724066e+01	-7.407896e+00
2.739800e+01	-7.448807e+00
2.755625e+01	-7.489898e+00
2.771541e+01	-7.530971e+00
2.787550e+01	-7.572392e+00
2.803650e+01	-7.613578e+00
2.819844e+01	-7.655012e+00
2.836131e+01	-7.696719e+00
2.852513e+01	-7.737927e+00
2.868989e+01	-7.779829e+00
2.885560e+01	-7.821538e+00
2.902227e+01	-7.863452e+00
2.918990e+01	-7.905036e+00
2.935850e+01	-7.947208e+00
2.952807e+01	-7.988944e+00
2.969863e+01	-8.031085e+00
2.987016e+01	-8.073530e+00
3.004269e+01	-8.115969e+00
3.021622e+01	-8.158376e+00
3.039075e+01	-8.200514e+00
3.056628e+01	-8.243258e+00
3.074283e+01	-8.285881e+00
3.092040e+01	-8.328207e+00
3.109900e+01	-8.371359e+00
3.127862e+01	-8.413641e+00
3.145929e+01	-8.456445e+00
3.164099e+01	-8.499365e+00
3.182375e+01	-8.542270e+00
3.200756e+01	-8.585302e+00
3.219244e+01	-8.628577e+00
3.237838e+01	-8.672288e+00
3.256540e+01	-8.715579e+00
3.275349e+01	-8.758229e+00
3.294268e+01	-8.802344e+00
3.313295e+01	-8.845171e+00
3.332433e+01	-8.889129e+00
3.351681e+01	-8.932145e+00
3.371040e+01	-8.976528e+00
3.390511e+01	-9.019682e+00
3.410094e+01	-9.063818e+00
3.429791e+01	-9.107249e+00
3.449601e+01	-9.151919e+00
3.469526e+01	-9.196032e+00
3.489566e+01	-9.239653e+00
3.509721e+01	-9.283229e+00
3.529993e+01	-9.327497e+00
3.550382e+01	-9.371459e+00
3.570889e+01	-9.415400e+00
3.591515e+01	-9.460630e+00
3.612259e+01	-9.504596e+00
3.633123e+01	-9.549097e+00
3.654108e+01	-9.594191e+00
3.675214e+01	-9.639253e+00
3.696442e+01	-9.682720e+00
3.717792e+01	-9.727672e+00
3.739266e+01	-9.772626e+00
3.760864e+01	-9.817335e+00
3.782587e+01	-9.861960e+00
3.804435e+01	-9.906880e+00
3.826409e+01	-9.951668e+00
3.848510e+01	-9.996785e+00
3.870739e+01	-1.004216e+01
3.893096e+01	-1.008731e+01
3.915583e+01	-1.013204e+01
3.938199e+01	-1.017752e+01
3.960946e+01	-1.022241e+01
3.983824e+01	-1.026850e+01
4.006834e+01	-1.031313e+01
4.029978e+01	-1.035866e+01
4.053255e+01	-1.040420e+01
4.076666e+01	-1.044895e+01
4.100213e+01	-1.049495e+01
4.123896e+01	-1.054048e+01
4.147715e+01	-1.058665e+01
4.171672e+01	-1.063148e+01
4.195767e+01	-1.067749e+01
4.220002e+01	-1.072269e+01
4.244377e+01	-1.076923e+01
4.268892e+01	-1.081515e+01
4.293549e+01	-1.086108e+01
4.318348e+01	-1.090738e+01
4.343291e+01	-1.095300e+01
4.368377e+01	-1.099898e+01
4.393609e+01	-1.104528e+01
4.418986e+01	-1.109103e+01
4.444510e+01	-1.113760e+01
4.470182e+01	-1.118379e+01
4.496001e+01	-1.123005e+01
4.521970e+01	-1.127646e+01
4.548089e+01	-1.132206e+01
4.574358e+01	-1.136838e+01
4.600779e+01	-1.141496e+01
4.627353e+01	-1.146137e+01
4.654081e+01	-1.150823e+01
4.680963e+01	-1.155489e+01
4.708000e+01	-1.160143e+01
4.735193e+01	-1.164787e+01
4.762543e+01	-1.169474e+01
4.790051e+01	-1.174056e+01
4.817719e+01	-1.178744e+01
4.845545e+01	-1.183410e+01
4.873533e+01	-1.188116e+01
4.901682e+01	-1.192815e+01
4.929994e+01	-1.197549e+01
4.958470e+01	-1.202135e+01
4.987110e+01	-1.206782e+01
5.015915e+01	-1.211638e+01
5.044887e+01	-1.216298e+01
5.074026e+01	-1.220890e+01
5.103333e+01	-1.225672e+01
5.132810e+01	-1.230359e+01
5.162457e+01	-1.235102e+01
5.192275e+01	-1.239792e+01
5.222265e+01	-1.244463e+01
5.252429e+01	-1.249231e+01
5.282767e+01	-1.253916e+01
5.313280e+01	-1.258717e+01
5.343969e+01	-1.263400e+01
5.374836e+01	-1.268162e+01
5.405880e+01	-1.272877e+01
5.437105e+01	-1.277612e+01
5.468509e+01	-1.282419e+01
5.500095e+01	-1.287111e+01
5.531863e+01	-1.291821e+01
5.563815e+01	-1.296595e+01
5.595951e+01	-1.301357e+01
5.628273e+01	-1.306048e+01
5.660782e+01	-1.310895e+01
5.693479e+01	-1.315579e+01
5.726364e+01	-1.320358e+01
5.759439e+01	-1.325060e+01
5.792705e+01	-1.329907e+01
5.826164e+01	-1.334654e+01
5.859815e+01	-1.339451e+01
5.893662e+01	-1.344237e+01
5.927703e+01	-1.348962e+01
5.961941e+01	-1.353770e+01
5.996377e+01	-1.358632e+01
6.031012e+01	-1.363273e+01
6.065847e+01	-1.368155e+01
6.100883e+01	-1.372932e+01
6.136121e+01	-1.377726e+01
6.171563e+01	-1.382503e+01
6.207210e+01	-1.387310e+01
6.243063e+01	-1.392121e+01
6.279122e+01	-1.396926e+01
6.315390e+01	-1.401750e+01
6.351868e+01	-1.406448e+01
6.388556e+01	-1.411335e+01
6.425456e+01	-1.416165e+01
6.462569e+01	-1.420969e+01
6.499897e+01	-1.425700e+01
6.537440e+01	-1.430577e+01
6.575200e+01	-1.435419e+01
6.613178e+01	-1.440211e+01
6.651375e+01	-1.445095e+01
6.689793e+01	-1.449874e+01
6.728433e+01	-1.454690e+01
6.767297e+01	-1.459556e+01
6.806384e+01	-1.464315e+01
6.845698e+01	-1.469119e+01
6.885238e+01	-1.474033e+01
6.925007e+01	-1.478758e+01
6.965005e+01	-1.483743e+01
7.005235e+01	-1.488612e+01
7.045697e+01	-1.493404e+01
7.086393e+01	-1.498146e+01
7.127323e+01	-1.503050e+01
7.168490e+01	-1.507978e+01
7.209895e+01	-1.512745e+01
7.251539e+01	-1.517514e+01
7.293424e+01	-1.522456e+01
7.335551e+01	-1.527286e+01
7.377920e+01	-1.532169e+01
7.420535e+01	-1.536956e+01
7.463396e+01	-1.541841e+01
7.506504e+01	-1.546701e+01
7.549861e+01	-1.551619e+01
7.593469e+01	-1.556408e+01
7.637328e+01	-1.561331e+01
7.681441e+01	-1.566226e+01
7.725809e+01	-1.571055e+01
7.770433e+01	-1.575838e+01
7.815315e+01	-1.580768e+01
7.860456e+01	-1.585688e+01
7.905857e+01	-1.590524e+01
7.951521e+01	-1.595462e+01
7.997449e+01	-1.600363e+01
8.043642e+01	-1.605083e+01
8.090102e+01	-1.610054e+01
8.136830e+01	-1.614935e+01
8.183828e+01	-1.619850e+01
8.231097e+01	-1.624688e+01
8.278640e+01	-1.629595e+01
8.326457e+01	-1.634535e+01
8.374550e+01	-1.639343e+01
8.422921e+01	-1.644252e+01
8.471572e+01	-1.649186e+01
8.520503e+01	-1.653960e+01
8.569717e+01	-1.658969e+01
8.619215e+01	-1.663788e+01
8.669000e+01	-1.668805e+01
8.719071e+01	-1.673649e+01
8.769432e+01	-1.678480e+01
8.820084e+01	-1.683362e+01
8.871029e+01	-1.688233e+01
8.922267e+01	-1.693202e+01
8.973802e+01	-1.698087e+01
9.025634e+01	-1.703062e+01
9.077766e+01	-1.708007e+01
9.130199e+01	-1.712866e+01
9.182935e+01	-1.717696e+01
9.235975e+01	-1.722665e+01
9.289321e+01	-1.727522e+01
9.342976e+01	-1.732433e+01
9.396941e+01	-1.737361e+01
9.451217e+01	-1.742229e+01
9.505807e+01	-1.747206e+01
9.560712e+01	-1.752050e+01
9.615934e+01	-1.757010e+01
9.671476e+01	-1.761902e+01
9.727338e+01	-1.766947e+01
9.783522e+01	-1.771647e+01
9.840032e+01	-1.776653e+01
9.896867e+01	-1.781541e+01
9.954031e+01	-1.786547e+01
1.001153e+02	-1.791496e+01
1.006935e+02	-1.796340e+01
1.012751e+02	-1.801191e+01
1.018601e+02	-1.806287e+01
1.024484e+02	-1.811115e+01
1.030402e+02	-1.816101e+01
1.036353e+02	-1.820985e+01
1.042339e+02	-1.825881e+01
1.048360e+02	-1.830860e+01
1.054415e+02	-1.835870e+01
1.060505e+02	-1.840842e+01
1.066631e+02	-1.845676e+01
1.072791e+02	-1.850514e+01
1.078988e+02	-1.855563e+01
1.085220e+02	-1.860381e+01
1.091488e+02	-1.865358e+01
1.097793e+02	-1.870331e+01
1.104133e+02	-1.875348e+01
1.110511e+02	-1.880221e+01
1.116925e+02	-1.885196e+01
1.123376e+02	-1.890144e+01
1.129865e+02	-1.894948e+01
1.136391e+02	-1.900069e+01
1.142955e+02	-1.904882e+01
1.149556e+02	-1.909811e+01
1.156196e+02	-1.914843e+01
1.162874e+02	-1.919729e+01
1.169591e+02	-1.924700e+01
1.176347e+02	-1.929738e+01
1.183141e+02	-1.934557e+01
1.189975e+02	-1.939481e+01
1.196848e+02	-1.944364e+01
1.203761e+02	-1.949346e+01
1.210714e+02	-1.954144e+01
1.217707e+02	-1.959269e+01
1.224740e+02	-1.964341e+01
1.231814e+02	-1.969152e+01
1.238929e+02	-1.974273e+01
1.246085e+02	-1.979150e+01
1.253283e+02	-1.983918e+01
1.260522e+02	-1.989043e+01
1.267802e+02	-1.993959e+01
1.275125e+02	-1.998954e+01
1.282490e+02	-2.003987e+01
1.289898e+02	-2.008909e+01
1.297348e+02	-2.013888e+01
1.304842e+02	-2.018647e+01
1.312378e+02	-2.023698e+01
1.319959e+02	-2.028537e+01
1.327583e+02	-2.033650e+01
1.335251e+02	-2.038541e+01
1.342963e+02	-2.043672e+01
1.350720e+02	-2.048482e+01
1.358522e+02	-2.053470e+01
1.366368e+02	-2.058486e+01
1.374260e+02	-2.063285e+01
1.382198e+02	-2.068191e+01
1.390182e+02	-2.073264e+01
1.398211e+02	-2.078110e+01
1.406287e+02	-2.083251e+01
1.414410e+02	-2.088190e+01
1.422579e+02	-2.093273e+01
1.430796e+02	-2.098074e+01
1.439060e+02	-2.103102e+01
1.447372e+02	-2.108161e+01
1.455732e+02	-2.112918e+01
1.464141e+02	-2.117989e+01
1.472597e+02	-2.122949e+01
1.481103e+02	-2.127751e+01
1.489658e+02	-2.132930e+01
1.498262e+02	-2.137932e+01
1.506916e+02	-2.142589e+01
1.515620e+02	-2.147558e+01
1.524374e+02	-2.152899e+01
1.533179e+02	-2.157714e+01
1.542034e+02	-2.162886e+01
1.550941e+02	-2.167701e+01
1.559899e+02	-2.172346e+01
1.568909e+02	-2.177531e+01
1.577971e+02	-2.182476e+01
1.587085e+02	-2.187493e+01
1.596252e+02	-2.192503e+01
1.605472e+02	-2.197429e+01
1.614745e+02	-2.202312e+01
1.624072e+02	-2.207419e+01
1.633453e+02	-2.212457e+01
1.642887e+02	-2.217376e+01
1.652377e+02	-2.222290e+01
1.661921e+02	-2.227261e+01
1.671520e+02	-2.232362e+01
1.681175e+02	-2.237281e+01
1.690885e+02	-2.242283e+01
1.700651e+02	-2.247184e+01
1.710474e+02	-2.252305e+01
1.720354e+02	-2.257261e+01
1.730291e+02	-2.261924e+01
1.740285e+02	-2.266872e+01
1.750337e+02	-2.272296e+01
1.760446e+02	-2.277053e+01
1.770615e+02	-2.281897e+01
1.780842e+02	-2.287060e+01
1.791128e+02	-2.292166e+01
1.801473e+02	-2.297023e+01
1.811878e+02	-2.301830e+01
1.822344e+02	-2.307080e+01
1.832870e+02	-2.311850e+01
1.843456e+02	-2.316798e+01
1.854104e+02	-2.321787e+01
1.864813e+02	-2.326716e+01
1.875584e+02	-2.331803e+01
1.886418e+02	-2.337035e+01
1.897313e+02	-2.342045e+01
1.908272e+02	-2.346728e+01
1.919294e+02	-2.351724e+01
1.930380e+02	-2.357004e+01
1.941530e+02	-2.361619e+01
1.952744e+02	-2.366764e+01
1.964023e+02	-2.371914e+01
1.975367e+02	-2.377071e+01
1.986777e+02	-2.381746e+01
1.998252e+02	-2.386688e+01
2.009794e+02	-2.391577e+01
2.021403e+02	-2.396436e+01
2.033078e+02	-2.401649e+01
2.044821e+02	-2.406740e+01
2.056632e+02	-2.411594e+01
2.068511e+02	-2.416788e+01
2.080459e+02	-2.421593e+01
2.092475e+02	-2.426475e+01
2.104561e+02	-2.431345e+01
2.116717e+02	-2.436359e+01
2.128943e+02	-2.441672e+01
2.141240e+02	-2.446322e+01
2.153608e+02	-2.451387e+01
2.166047e+02	-2.456545e+01
2.178558e+02	-2.461290e+01
2.191141e+02	-2.466279e+01
2.203797e+02	-2.471551e+01
2.216526e+02	-2.476357e+01
2.229329e+02	-2.481243e+01
2.242205e+02	-2.486402e+01
2.255156e+02	-2.491456e+01
2.268182e+02	-2.496740e+01
2.281283e+02	-2.501414e+01
2.294459e+02	-2.506592e+01
2.307712e+02	-2.511375e+01
2.321041e+02	-2.516496e+01
2.334447e+02	-2.521413e+01
2.347931e+02	-2.526269e+01
2.361493e+02	-2.531584e+01
2.375133e+02	-2.536172e+01
2.388851e+02	-2.541216e+01
2.402649e+02	-2.546309e+01
2.416527e+02	-2.551253e+01
2.430484e+02	-2.556252e+01
2.444523e+02	-2.561504e+01
2.458642e+02	-2.566372e+01
2.472843e+02	-2.571663e+01
2.487126e+02	-2.576256e+01
2.501492e+02	-2.581165e+01
2.515940e+02	-2.586264e+01
2.530472e+02	-2.591273e+01
2.545088e+02	-2.596062e+01
2.559789e+02	-2.601342e+01
2.574574e+02	-2.606470e+01
2.589444e+02	-2.611310e+01
2.604401e+02	-2.615791e+01
2.619444e+02	-2.621112e+01
2.634574e+02	-2.626058e+01
2.649791e+02	-2.631144e+01
2.665096e+02	-2.636450e+01
2.680489e+02	-2.641314e+01
2.695972e+02	-2.645987e+01
2.711544e+02	-2.651627e+01
2.727205e+02	-2.656132e+01
2.742958e+02	-2.661122e+01
2.758801e+02	-2.666007e+01
2.774736e+02	-2.670923e+01
2.790762e+02	-2.676188e+01
2.806882e+02	-2.681206e+01
2.823094e+02	-2.686189e+01
2.839400e+02	-2.691127e+01
2.855800e+02	-2.696386e+01
2.872295e+02	-2.701336e+01
2.888886e+02	-2.706146e+01
2.905572e+02	-2.711224e+01
2.922354e+02	-2.716332e+01
2.939234e+02	-2.720943e+01
2.956211e+02	-2.725923e+01
2.973286e+02	-2.731124e+01
2.990459e+02	-2.736075e+01
3.007732e+02	-2.741157e+01
3.025104e+02	-2.746127e+01
3.042577e+02	-2.751165e+01
3.060151e+02	-2.756201e+01
3.077826e+02	-2.761744e+01
3.095604e+02	-2.766255e+01
3.113484e+02	-2.771225e+01
3.131467e+02	-2.775996e+01
3.149554e+02	-2.781118e+01
3.167746e+02	-2.786369e+01
3.186043e+02	-2.791111e+01
3.204445e+02	-2.796275e+01
3.222954e+02	-2.801115e+01
3.241570e+02	-2.806083e+01
3.260293e+02	-2.810994e+01
3.279124e+02	-2.816399e+01
3.298064e+02	-2.821198e+01
3.317114e+02	-2.826250e+01
3.336273e+02	-2.831414e+01
3.355544e+02	-2.836671e+01
3.374925e+02	-2.841536e+01
3.394418e+02	-2.846494e+01
3.414024e+02	-2.851234e+01
3.433744e+02	-2.856498e+01
3.453577e+02	-2.860887e+01
3.473525e+02	-2.866173e+01
3.493588e+02	-2.871337e+01
3.513766e+02	-2.876260e+01
3.534062e+02	-2.881556e+01
3.554474e+02	-2.886099e+01
3.575005e+02	-2.891388e+01
3.595654e+02	-2.896377e+01
3.616422e+02	-2.901251e+01
3.637311e+02	-2.906309e+01
3.658320e+02	-2.911427e+01
3.679450e+02	-2.916461e+01
3.700702e+02	-2.921208e+01
3.722077e+02	-2.926614e+01
3.743576e+02	-2.931523e+01
3.765199e+02	-2.936776e+01
3.786946e+02	-2.941102e+01
3.808820e+02	-2.946377e+01
3.830819e+02	-2.951440e+01
3.852946e+02	-2.956045e+01
3.875200e+02	-2.960974e+01
3.897583e+02	-2.966596e+01
3.920096e+02	-2.971607e+01
3.942738e+02	-2.976529e+01
3.965511e+02	-2.981468e+01
3.988416e+02	-2.986993e+01
4.011452e+02	-2.991297e+01
4.034622e+02	-2.996662e+01
4.057926e+02	-3.001562e+01
4.081365e+02	-3.006673e+01
4.104938e+02	-3.011997e+01
4.128648e+02	-3.016464e+01
4.152495e+02	-3.021913e+01
4.176480e+02	-3.026867e+01
4.200603e+02	-3.031022e+01
4.224866e+02	-3.036123e+01
4.249268e+02	-3.041734e+01
4.273812e+02	-3.046744e+01
4.298497e+02	-3.051356e+01
4.323325e+02	-3.056427e+01
4.348297e+02	-3.061407e+01
4.373412e+02	-3.066928e+01
4.398673e+02	-3.071659e+01
4.424079e+02	-3.076788e+01
4.449633e+02	-3.081879e+01
4.475334e+02	-3.086369e+01
4.501183e+02	-3.091906e+01
4.527182e+02	-3.097043e+01
4.553330e+02	-3.101631e+01
4.579630e+02	-3.106731e+01
4.606082e+02	-3.112215e+01
4.632687e+02	-3.116642e+01
4.659445e+02	-3.122190e+01
4.686358e+02	-3.127547e+01
4.713426e+02	-3.132175e+01
4.740650e+02	-3.137084e+01
4.768032e+02	-3.142309e+01
4.795572e+02	-3.147059e+01
4.823271e+02	-3.151807e+01
4.851130e+02	-3.156623e+01
4.879150e+02	-3.161530e+01
4.907332e+02	-3.166955e+01
4.935676e+02	-3.171560e+01
4.964185e+02	-3.177289e+01
4.992858e+02	-3.181897e+01
5.021696e+02	-3.186850e+01
5.050701e+02	-3.191891e+01
5.079874e+02	-3.197502e+01
5.109215e+02	-3.202075e+01
5.138726e+02	-3.206658e+01
5.168407e+02	-3.212786e+01
5.198259e+02	-3.217571e+01
5.228284e+02	-3.221839e+01
5.258482e+02	-3.226895e+01
5.288855e+02	-3.231799e+01
5.319403e+02	-3.236893e+01
5.350128e+02	-3.242431e+01
5.381030e+02	-3.247082e+01
5.412111e+02	-3.252419e+01
5.443371e+02	-3.257489e+01
5.474812e+02	-3.262374e+01
5.506434e+02	-3.267171e+01
5.538239e+02	-3.272514e+01
5.570228e+02	-3.278278e+01
5.602401e+02	-3.283388e+01
5.634760e+02	-3.287850e+01
5.667306e+02	-3.292566e+01
5.700040e+02	-3.297311e+01
5.732964e+02	-3.303188e+01
5.766077e+02	-3.308462e+01
5.799382e+02	-3.312415e+01
5.832879e+02	-3.317567e+01
5.866569e+02	-3.323061e+01
5.900454e+02	-3.327833e+01
5.934535e+02	-3.332378e+01
5.968813e+02	-3.338594e+01
6.003288e+02	-3.342801e+01
6.037963e+02	-3.347992e+01
6.072838e+02	-3.352386e+01
6.107914e+02	-3.357947e+01
6.143194e+02	-3.362919e+01
6.178676e+02	-3.367653e+01
6.214364e+02	-3.373376e+01
6.250258e+02	-3.378008e+01
6.286359e+02	-3.383393e+01
6.322669e+02	-3.388891e+01
6.359189e+02	-3.392694e+01
6.395919e+02	-3.398281e+01
6.432862e+02	-3.403441e+01
6.470017e+02	-3.408380e+01
6.507388e+02	-3.413628e+01
6.544974e+02	-3.418114e+01
6.582778e+02	-3.423478e+01
6.620800e+02	-3.428341e+01
6.659041e+02	-3.433219e+01
6.697504e+02	-3.438434e+01
6.736188e+02	-3.443584e+01
6.775096e+02	-3.448565e+01
6.814229e+02	-3.453325e+01
6.853587e+02	-3.458635e+01
6.893173e+02	-3.464490e+01
6.932988e+02	-3.469489e+01
6.973033e+02	-3.473597e+01
7.013309e+02	-3.478118e+01
