Frequency(Hz)	Magnitude(dB)
1.000000e+01	-2.266512e+00
1.005776e+01	-2.286911e+00
1.011585e+01	-2.307404e+00
1.017428e+01	-2.328261e+00
1.023305e+01	-2.349037e+00
1.029215e+01	-2.369953e+00
1.035160e+01	-2.391234e+00
1.041139e+01	-2.412340e+00
1.047153e+01	-2.433701e+00
1.053201e+01	-2.455295e+00
1.059284e+01	-2.477171e+00
1.065403e+01	-2.498650e+00
1.071556e+01	-2.520529e+00
1.077746e+01	-2.542901e+00
1.083971e+01	-2.565114e+00
1.090232e+01	-2.587374e+00
1.096529e+01	-2.609907e+00
1.102862e+01	-2.632667e+00
1.109232e+01	-2.655430e+00
1.115639e+01	-2.678385e+00
1.122083e+01	-2.701566e+00
1.128564e+01	-2.724852e+00
1.135083e+01	-2.747861e+00
1.141639e+01	-2.771775e+00
1.148233e+01	-2.795381e+00
1.154865e+01	-2.819344e+00
1.161536e+01	-2.843010e+00
1.168245e+01	-2.867182e+00
1.174992e+01	-2.891656e+00
1.181779e+01	-2.915775e+00
1.188605e+01	-2.940397e+00
1.195470e+01	-2.965253e+00
1.202375e+01	-2.989870e+00
1.209320e+01	-3.014959e+00
1.216305e+01	-3.039998e+00
1.223330e+01	-3.065386e+00
1.230396e+01	-3.090766e+00
1.237503e+01	-3.116078e+00
1.244651e+01	-3.141920e+00
1.251840e+01	-3.167722e+00
1.259070e+01	-3.193840e+00
1.266343e+01	-3.219972e+00
1.273657e+01	-3.245942e+00
1.281014e+01	-3.272562e+00
1.288413e+01	-3.298947e+00
1.295855e+01	-3.325809e+00
1.303339e+01	-3.352510e+00
1.310867e+01	-3.379630e+00
1.318439e+01	-3.406810e+00
1.326054e+01	-3.433855e+00
1.333713e+01	-3.461531e+00
1.341417e+01	-3.488870e+00
1.349165e+01	-3.516435e+00
1.356958e+01	-3.544332e+00
1.364795e+01	-3.572457e+00
1.372678e+01	-3.600822e+00
1.380607e+01	-3.628732e+00
1.388581e+01	-3.657247e+00
1.396602e+01	-3.685755e+00
1.404668e+01	-3.714421e+00
1.412782e+01	-3.743201e+00
1.420942e+01	-3.772357e+00
1.429149e+01	-3.801330e+00
1.437404e+01	-3.830667e+00
1.445706e+01	-3.859805e+00
1.454057e+01	-3.889558e+00
1.462455e+01	-3.919125e+00
1.470902e+01	-3.949021e+00
1.479398e+01	-3.978899e+00
1.487943e+01	-4.008974e+00
1.496537e+01	-4.039182e+00
1.505181e+01	-4.069730e+00
1.513875e+01	-4.100182e+00
1.522619e+01	-4.130617e+00
1.531414e+01	-4.161426e+00
1.540259e+01	-4.192358e+00
1.549156e+01	-4.223305e+00
1.558103e+01	-4.254656e+00
1.567103e+01	-4.285682e+00
1.576155e+01	-4.317385e+00
1.585258e+01	-4.348882e+00
1.594415e+01	-4.380499e+00
1.603624e+01	-4.412214e+00
1.612886e+01	-4.444176e+00
1.622202e+01	-4.476505e+00
1.631572e+01	-4.508880e+00
1.640996e+01	-4.541036e+00
1.650474e+01	-4.573482e+00
1.660008e+01	-4.606608e+00
1.669596e+01	-4.638976e+00
1.679239e+01	-4.672167e+00
1.688938e+01	-4.705034e+00
1.698694e+01	-4.738217e+00
1.708505e+01	-4.771583e+00
1.718373e+01	-4.804903e+00
1.728299e+01	-4.838515e+00
1.738281e+01	-4.872212e+00
1.748322e+01	-4.905881e+00
1.758420e+01	-4.939937e+00
1.768576e+01	-4.973971e+00
1.778792e+01	-5.007950e+00
1.789066e+01	-5.042299e+00
1.799399e+01	-5.076684e+00
1.809793e+01	-5.111100e+00
1.820246e+01	-5.145982e+00
1.830760e+01	-5.180489e+00
1.841334e+01	-5.215858e+00
1.851969e+01	-5.250781e+00
1.862666e+01	-5.285839e+00
1.873425e+01	-5.320978e+00
1.884246e+01	-5.356516e+00
1.895129e+01	-5.392269e+00
1.906075e+01	-5.427413e+00
1.917085e+01	-5.463225e+00
1.928158e+01	-5.499318e+00
1.939295e+01	-5.535300e+00
1.950496e+01	-5.571434e+00
1.961762e+01	-5.607338e+00
1.973093e+01	-5.643723e+00
1.984490e+01	-5.680120e+00
1.995952e+01	-5.716482e+00
2.007480e+01	-5.753474e+00
2.019076e+01	-5.790555e+00
2.030738e+01	-5.827464e+00
2.042467e+01	-5.864502e+00
2.054264e+01	-5.901289e+00
2.066130e+01	-5.938469e+00
2.078064e+01	-5.976138e+00
2.090066e+01	-6.013441e+00
2.102139e+01	-6.050953e+00
2.114280e+01	-6.088618e+00
2.126492e+01	-6.126388e+00
2.138775e+01	-6.163975e+00
2.151128e+01	-6.202136e+00
2.163553e+01	-6.240300e+00
2.176050e+01	-6.278148e+00
2.188619e+01	-6.316862e+00
2.201260e+01	-6.355418e+00
2.213974e+01	-6.393567e+00
2.226762e+01	-6.432148e+00
2.239624e+01	-6.471156e+00
2.252560e+01	-6.509700e+00
2.265571e+01	-6.548634e+00
2.278656e+01	-6.587474e+00
2.291818e+01	-6.626846e+00
2.305055e+01	-6.665896e+00
2.318369e+01	-6.705292e+00
2.331760e+01	-6.744591e+00
2.345228e+01	-6.783868e+00
2.358774e+01	-6.823548e+00
2.372398e+01	-6.863520e+00
2.386101e+01	-6.902882e+00
2.399883e+01	-6.942911e+00
2.413745e+01	-6.982924e+00
2.427686e+01	-7.023234e+00
2.441709e+01	-7.063245e+00
2.455812e+01	-7.103502e+00
2.469997e+01	-7.143813e+00
2.484263e+01	-7.184208e+00
2.498612e+01	-7.224461e+00
2.513044e+01	-7.265107e+00
2.527559e+01	-7.305791e+00
2.542158e+01	-7.346708e+00
2.556842e+01	-7.387730e+00
2.571610e+01	-7.428545e+00
2.586463e+01	-7.469546e+00
2.601403e+01	-7.510876e+00
2.616428e+01	-7.551690e+00
2.631541e+01	-7.592916e+00
2.646740e+01	-7.634149e+00
2.662028e+01	-7.675758e+00
2.677404e+01	-7.717556e+00
2.692868e+01	-7.759316e+00
2.708422e+01	-7.800976e+00
2.724066e+01	-7.842617e+00
2.739800e+01	-7.884221e+00
2.755625e+01	-7.926139e+00
2.771541e+01	-7.968068e+00
2.787550e+01	-8.010552e+00
2.803650e+01	-8.052481e+00
2.819844e+01	-8.094527e+00
2.836131e+01	-8.136973e+00
2.852513e+01	-8.179276e+00
2.868989e+01	-8.221800e+00
2.885560e+01	-8.264339e+00
2.902227e+01	-8.306982e+00
2.918990e+01	-8.349586e+00
2.935850e+01	-8.392044e+00
2.952807e+01	-8.435233e+00
2.969863e+01	-8.478071e+00
2.987016e+01	-8.521311e+00
3.004269e+01	-8.563959e+00
3.021622e+01	-8.607449e+00
3.039075e+01	-8.650697e+00
3.056628e+01	-8.693679e+00
3.074283e+01	-8.736868e+00
3.092040e+01	-8.779914e+00
3.109900e+01	-8.823873e+00
3.127862e+01	-8.867150e+00
3.145929e+01	-8.910835e+00
3.164099e+01	-8.954543e+00
3.182375e+01	-8.997981e+00
3.200756e+01	-9.041761e+00
3.219244e+01	-9.085662e+00
3.237838e+01	-9.130028e+00
3.256540e+01	-9.173518e+00
3.275349e+01	-9.217572e+00
3.294268e+01	-9.261553e+00
3.313295e+01	-9.305320e+00
3.332433e+01	-9.349771e+00
3.351681e+01	-9.393877e+00
3.371040e+01	-9.438669e+00
3.390511e+01	-9.482752e+00
3.410094e+01	-9.527490e+00
3.429791e+01	-9.571397e+00
3.449601e+01	-9.616599e+00
3.469526e+01	-9.660665e+00
3.489566e+01	-9.705486e+00
3.509721e+01	-9.750369e+00
3.529993e+01	-9.794785e+00
3.550382e+01	-9.839946e+00
3.570889e+01	-9.884893e+00
3.591515e+01	-9.929591e+00
3.612259e+01	-9.973925e+00
3.633123e+01	-1.001945e+01
3.654108e+01	-1.006461e+01
3.675214e+01	-1.011043e+01
3.696442e+01	-1.015429e+01
3.717792e+01	-1.020006e+01
3.739266e+01	-1.024540e+01
3.760864e+01	-1.029065e+01
3.782587e+01	-1.033595e+01
3.804435e+01	-1.038109e+01
3.826409e+01	-1.042646e+01
3.848510e+01	-1.047229e+01
3.870739e+01	-1.051784e+01
3.893096e+01	-1.056365e+01
3.915583e+01	-1.060946e+01
3.938199e+01	-1.065484e+01
3.960946e+01	-1.070048e+01
3.983824e+01	-1.074652e+01
4.006834e+01	-1.079214e+01
4.029978e+01	-1.083828e+01
4.053255e+01	-1.088389e+01
4.076666e+01	-1.093033e+01
4.100213e+01	-1.097528e+01
4.123896e+01	-1.102181e+01
4.147715e+01	-1.106839e+01
4.171672e+01	-1.111455e+01
4.195767e+01	-1.116120e+01
4.220002e+01	-1.120700e+01
4.244377e+01	-1.125329e+01
4.268892e+01	-1.129954e+01
4.293549e+01	-1.134554e+01
4.318348e+01	-1.139158e+01
4.343291e+01	-1.143829e+01
4.368377e+01	-1.148463e+01
4.393609e+01	-1.153149e+01
4.418986e+01	-1.157858e+01
4.444510e+01	-1.162496e+01
4.470182e+01	-1.167072e+01
4.496001e+01	-1.171727e+01
4.521970e+01	-1.176403e+01
4.548089e+01	-1.181101e+01
4.574358e+01	-1.185769e+01
4.600779e+01	-1.190431e+01
4.627353e+01	-1.195117e+01
4.654081e+01	-1.199841e+01
4.680963e+01	-1.204583e+01
4.708000e+01	-1.209225e+01
4.735193e+01	-1.213963e+01
4.762543e+01	-1.218636e+01
4.790051e+01	-1.223319e+01
4.817719e+01	-1.228048e+01
4.845545e+01	-1.232694e+01
4.873533e+01	-1.237396e+01
4.901682e+01	-1.242125e+01
4.929994e+01	-1.246859e+01
4.958470e+01	-1.251623e+01
4.987110e+01	-1.256316e+01
5.015915e+01	-1.261017e+01
5.044887e+01	-1.265767e+01
5.074026e+01	-1.270529e+01
5.103333e+01	-1.275306e+01
5.132810e+01	-1.280010e+01
5.162457e+01	-1.284715e+01
5.192275e+01	-1.289415e+01
5.222265e+01	-1.294237e+01
5.252429e+01	-1.298957e+01
5.282767e+01	-1.303754e+01
5.313280e+01	-1.308451e+01
5.343969e+01	-1.313189e+01
5.374836e+01	-1.317913e+01
5.405880e+01	-1.322765e+01
5.437105e+01	-1.327485e+01
5.468509e+01	-1.332253e+01
5.500095e+01	-1.337023e+01
5.531863e+01	-1.341833e+01
5.563815e+01	-1.346616e+01
5.595951e+01	-1.351419e+01
5.628273e+01	-1.356157e+01
5.660782e+01	-1.360977e+01
5.693479e+01	-1.365771e+01
5.726364e+01	-1.370470e+01
5.759439e+01	-1.375230e+01
5.792705e+01	-1.380151e+01
5.826164e+01	-1.384971e+01
5.859815e+01	-1.389677e+01
5.893662e+01	-1.394523e+01
5.927703e+01	-1.399283e+01
5.961941e+01	-1.404135e+01
5.996377e+01	-1.408875e+01
6.031012e+01	-1.413703e+01
6.065847e+01	-1.418460e+01
6.100883e+01	-1.423341e+01
6.136121e+01	-1.428124e+01
6.171563e+01	-1.432991e+01
6.207210e+01	-1.437785e+01
6.243063e+01	-1.442556e+01
6.279122e+01	-1.447508e+01
6.315390e+01	-1.452282e+01
6.351868e+01	-1.457206e+01
6.388556e+01	-1.461881e+01
6.425456e+01	-1.466742e+01
6.462569e+01	-1.471599e+01
6.499897e+01	-1.476480e+01
6.537440e+01	-1.481242e+01
6.575200e+01	-1.486156e+01
6.613178e+01	-1.490813e+01
6.651375e+01	-1.495725e+01
6.689793e+01	-1.500723e+01
6.728433e+01	-1.505371e+01
6.767297e+01	-1.510236e+01
6.806384e+01	-1.515136e+01
6.845698e+01	-1.519993e+01
6.885238e+01	-1.524873e+01
6.925007e+01	-1.529781e+01
6.965005e+01	-1.534529e+01
7.005235e+01	-1.539382e+01
7.045697e+01	-1.544350e+01
7.086393e+01	-1.549061e+01
7.127323e+01	-1.554041e+01
7.168490e+01	-1.558847e+01
7.209895e+01	-1.563717e+01
7.251539e+01	-1.568594e+01
7.293424e+01	-1.573472e+01
7.335551e+01	-1.578330e+01
7.377920e+01	-1.583261e+01
7.420535e+01	-1.588017e+01
7.463396e+01	-1.592973e+01
7.506504e+01	-1.597837e+01
7.549861e+01	-1.602717e+01
7.593469e+01	-1.607654e+01
7.637328e+01	-1.612447e+01
7.681441e+01	-1.617296e+01
7.725809e+01	-1.622275e+01
7.770433e+01	-1.627127e+01
7.815315e+01	-1.632016e+01
7.860456e+01	-1.636771e+01
7.905857e+01	-1.641879e+01
7.951521e+01	-1.646670e+01
7.997449e+01	-1.651504e+01
8.043642e+01	-1.656438e+01
8.090102e+01	-1.661314e+01
8.136830e+01	-1.666105e+01
8.183828e+01	-1.671091e+01
8.231097e+01	-1.676033e+01
8.278640e+01	-1.680921e+01
8.326457e+01	-1.685885e+01
8.374550e+01	-1.690781e+01
8.422921e+01	-1.695643e+01
8.471572e+01	-1.700585e+01
8.520503e+01	-1.705501e+01
8.569717e+01	-1.710422e+01
8.619215e+01	-1.715265e+01
8.669000e+01	-1.720182e+01
8.719071e+01	-1.725045e+01
8.769432e+01	-1.730046e+01
8.820084e+01	-1.734945e+01
8.871029e+01	-1.739844e+01
8.922267e+01	-1.744686e+01
8.973802e+01	-1.749633e+01
9.025634e+01	-1.754594e+01
9.077766e+01	-1.759562e+01
9.130199e+01	-1.764491e+01
9.182935e+01	-1.769357e+01
9.235975e+01	-1.774273e+01
9.289321e+01	-1.779102e+01
9.342976e+01	-1.784019e+01
9.396941e+01	-1.788913e+01
9.451217e+01	-1.793860e+01
9.505807e+01	-1.798719e+01
9.560712e+01	-1.803627e+01
9.615934e+01	-1.808631e+01
9.671476e+01	-1.813647e+01
9.727338e+01	-1.818655e+01
9.783522e+01	-1.823326e+01
9.840032e+01	-1.828363e+01
9.896867e+01	-1.833376e+01
9.954031e+01	-1.838226e+01
1.001153e+02	-1.843182e+01
1.006935e+02	-1.848127e+01
1.012751e+02	-1.852989e+01
1.018601e+02	-1.858009e+01
1.024484e+02	-1.863057e+01
1.030402e+02	-1.867866e+01
1.036353e+02	-1.872775e+01
1.042339e+02	-1.877763e+01
1.048360e+02	-1.882658e+01
1.054415e+02	-1.887704e+01
1.060505e+02	-1.892378e+01
1.066631e+02	-1.897467e+01
1.072791e+02	-1.902415e+01
1.078988e+02	-1.907246e+01
1.085220e+02	-1.912185e+01
1.091488e+02	-1.917287e+01
1.097793e+02	-1.922347e+01
1.104133e+02	-1.927025e+01
1.110511e+02	-1.932106e+01
1.116925e+02	-1.937021e+01
1.123376e+02	-1.942015e+01
1.129865e+02	-1.946990e+01
1.136391e+02	-1.951800e+01
1.142955e+02	-1.956776e+01
1.149556e+02	-1.961779e+01
1.156196e+02	-1.966685e+01
1.162874e+02	-1.971629e+01
1.169591e+02	-1.976673e+01
1.176347e+02	-1.981668e+01
1.183141e+02	-1.986618e+01
1.189975e+02	-1.991363e+01
1.196848e+02	-1.996431e+01
1.203761e+02	-2.001440e+01
1.210714e+02	-2.006207e+01
1.217707e+02	-2.011259e+01
1.224740e+02	-2.016258e+01
1.231814e+02	-2.021363e+01
1.238929e+02	-2.026054e+01
1.246085e+02	-2.031133e+01
1.253283e+02	-2.035984e+01
1.260522e+02	-2.040902e+01
1.267802e+02	-2.046058e+01
1.275125e+02	-2.050890e+01
1.282490e+02	-2.055810e+01
1.289898e+02	-2.060803e+01
1.297348e+02	-2.065636e+01
1.304842e+02	-2.070756e+01
1.312378e+02	-2.075750e+01
1.319959e+02	-2.080457e+01
1.327583e+02	-2.085625e+01
1.335251e+02	-2.090670e+01
1.342963e+02	-2.095649e+01
1.350720e+02	-2.100672e+01
1.358522e+02	-2.105479e+01
1.366368e+02	-2.110489e+01
1.374260e+02	-2.115529e+01
1.382198e+02	-2.120396e+01
1.390182e+02	-2.125367e+01
1.398211e+02	-2.130361e+01
1.406287e+02	-2.135177e+01
1.414410e+02	-2.140478e+01
1.422579e+02	-2.145347e+01
1.430796e+02	-2.150248e+01
1.439060e+02	-2.155311e+01
1.447372e+02	-2.160322e+01
1.455732e+02	-2.165292e+01
1.464141e+02	-2.170120e+01
1.472597e+02	-2.174991e+01
1.481103e+02	-2.179976e+01
1.489658e+02	-2.185021e+01
1.498262e+02	-2.189965e+01
1.506916e+02	-2.194835e+01
1.515620e+02	-2.199858e+01
1.524374e+02	-2.204819e+01
1.533179e+02	-2.209758e+01
1.542034e+02	-2.214980e+01
1.550941e+02	-2.219798e+01
1.559899e+02	-2.224899e+01
1.568909e+02	-2.229679e+01
1.577971e+02	-2.234765e+01
1.587085e+02	-2.239955e+01
1.596252e+02	-2.244769e+01
1.605472e+02	-2.249752e+01
1.614745e+02	-2.254644e+01
1.624072e+02	-2.259650e+01
1.633453e+02	-2.264545e+01
1.642887e+02	-2.269418e+01
1.652377e+02	-2.274835e+01
1.661921e+02	-2.279581e+01
1.671520e+02	-2.284549e+01
1.681175e+02	-2.289522e+01
1.690885e+02	-2.294388e+01
1.700651e+02	-2.299241e+01
1.710474e+02	-2.304576e+01
1.720354e+02	-2.309537e+01
1.730291e+02	-2.314284e+01
1.740285e+02	-2.319327e+01
1.750337e+02	-2.324341e+01
1.760446e+02	-2.329475e+01
1.770615e+02	-2.334410e+01
1.780842e+02	-2.339305e+01
1.791128e+02	-2.344405e+01
1.801473e+02	-2.349269e+01
1.811878e+02	-2.354265e+01
1.822344e+02	-2.359385e+01
1.832870e+02	-2.364204e+01
1.843456e+02	-2.369264e+01
1.854104e+02	-2.374133e+01
1.864813e+02	-2.379357e+01
1.875584e+02	-2.384307e+01
1.886418e+02	-2.389289e+01
1.897313e+02	-2.393885e+01
1.908272e+02	-2.399093e+01
1.919294e+02	-2.404302e+01
1.930380e+02	-2.408895e+01
1.941530e+02	-2.414048e+01
1.952744e+02	-2.419191e+01
1.964023e+02	-2.424193e+01
1.975367e+02	-2.428977e+01
1.986777e+02	-2.434014e+01
1.998252e+02	-2.438930e+01
2.009794e+02	-2.443902e+01
2.021403e+02	-2.448866e+01
2.033078e+02	-2.454048e+01
2.044821e+02	-2.458912e+01
2.056632e+02	-2.464026e+01
2.068511e+02	-2.469122e+01
2.080459e+02	-2.473850e+01
2.092475e+02	-2.478854e+01
2.104561e+02	-2.483907e+01
2.116717e+02	-2.488724e+01
2.128943e+02	-2.493611e+01
2.141240e+02	-2.498827e+01
2.153608e+02	-2.503870e+01
2.166047e+02	-2.508803e+01
2.178558e+02	-2.513720e+01
2.191141e+02	-2.518988e+01
2.203797e+02	-2.523672e+01
2.216526e+02	-2.528638e+01
2.229329e+02	-2.533732e+01
2.242205e+02	-2.538552e+01
2.255156e+02	-2.543559e+01
2.268182e+02	-2.548782e+01
2.281283e+02	-2.553798e+01
2.294459e+02	-2.558861e+01
2.307712e+02	-2.563702e+01
2.321041e+02	-2.568838e+01
2.334447e+02	-2.573873e+01
2.347931e+02	-2.578846e+01
2.361493e+02	-2.583547e+01
2.375133e+02	-2.588832e+01
2.388851e+02	-2.593816e+01
2.402649e+02	-2.598651e+01
2.416527e+02	-2.603866e+01
2.430484e+02	-2.608484e+01
2.444523e+02	-2.613869e+01
2.458642e+02	-2.618639e+01
2.472843e+02	-2.623466e+01
2.487126e+02	-2.628385e+01
2.501492e+02	-2.633585e+01
2.515940e+02	-2.638546e+01
2.530472e+02	-2.643448e+01
2.545088e+02	-2.649075e+01
2.559789e+02	-2.653593e+01
2.574574e+02	-2.658511e+01
2.589444e+02	-2.663871e+01
2.604401e+02	-2.668423e+01
2.619444e+02	-2.673775e+01
2.634574e+02	-2.678273e+01
2.649791e+02	-2.683903e+01
2.665096e+02	-2.688750e+01
2.680489e+02	-2.693380e+01
2.695972e+02	-2.698367e+01
2.711544e+02	-2.703593e+01
2.727205e+02	-2.708710e+01
2.742958e+02	-2.713905e+01
2.758801e+02	-2.718819e+01
2.774736e+02	-2.723570e+01
2.790762e+02	-2.728660e+01
2.806882e+02	-2.733503e+01
2.823094e+02	-2.738602e+01
2.839400e+02	-2.743506e+01
2.855800e+02	-2.748510e+01
2.872295e+02	-2.753972e+01
2.888886e+02	-2.758584e+01
2.905572e+02	-2.763966e+01
2.922354e+02	-2.768948e+01
2.939234e+02	-2.773760e+01
2.956211e+02	-2.778406e+01
2.973286e+02	-2.783434e+01
2.990459e+02	-2.788995e+01
3.007732e+02	-2.794047e+01
3.025104e+02	-2.798748e+01
3.042577e+02	-2.803724e+01
3.060151e+02	-2.808846e+01
3.077826e+02	-2.813835e+01
3.095604e+02	-2.818379e+01
3.113484e+02	-2.823533e+01
3.131467e+02	-2.828407e+01
3.149554e+02	-2.834053e+01
3.167746e+02	-2.838665e+01
3.186043e+02	-2.843592e+01
3.204445e+02	-2.848572e+01
3.222954e+02	-2.853593e+01
3.241570e+02	-2.858815e+01
3.260293e+02	-2.863288e+01
3.279124e+02	-2.868898e+01
3.298064e+02	-2.873698e+01
3.317114e+02	-2.878870e+01
3.336273e+02	-2.884154e+01
3.355544e+02	-2.889206e+01
3.374925e+02	-2.893916e+01
3.394418e+02	-2.898743e+01
3.414024e+02	-2.904262e+01
3.433744e+02	-2.908892e+01
3.453577e+02	-2.913353e+01
3.473525e+02	-2.918610e+01
3.493588e+02	-2.924299e+01
3.513766e+02	-2.928531e+01
3.534062e+02	-2.934075e+01
3.554474e+02	-2.938534e+01
3.575005e+02	-2.943966e+01
3.595654e+02	-2.949245e+01
3.616422e+02	-2.953980e+01
3.637311e+02	-2.958916e+01
3.658320e+02	-2.963518e+01
3.679450e+02	-2.968491e+01
3.700702e+02	-2.973862e+01
3.722077e+02	-2.978888e+01
3.743576e+02	-2.983835e+01
3.765199e+02	-2.989064e+01
3.786946e+02	-2.993551e+01
3.808820e+02	-2.998815e+01
3.830819e+02	-3.003880e+01
3.852946e+02	-3.008796e+01
3.875200e+02	-3.013766e+01
3.897583e+02	-3.018768e+01
3.920096e+02	-3.023838e+01
3.942738e+02	-3.029114e+01
3.965511e+02	-3.033934e+01
3.988416e+02	-3.039113e+01
4.011452e+02	-3.043545e+01
4.034622e+02	-3.049706e+01
4.057926e+02	-3.053798e+01
4.081365e+02	-3.058826e+01
4.104938e+02	-3.063870e+01
4.128648e+02	-3.068674e+01
4.152495e+02	-3.073871e+01
4.176480e+02	-3.078970e+01
4.200603e+02	-3.084049e+01
4.224866e+02	-3.088706e+01
4.249268e+02	-3.094365e+01
4.273812e+02	-3.099008e+01
4.298497e+02	-3.104192e+01
4.323325e+02	-3.109504e+01
4.348297e+02	-3.114247e+01
4.373412e+02	-3.119474e+01
4.398673e+02	-3.124158e+01
4.424079e+02	-3.128929e+01
4.449633e+02	-3.133950e+01
4.475334e+02	-3.139612e+01
4.501183e+02	-3.144471e+01
4.527182e+02	-3.149430e+01
4.553330e+02	-3.153849e+01
4.579630e+02	-3.159201e+01
4.606082e+02	-3.164492e+01
4.632687e+02	-3.168923e+01
4.659445e+02	-3.173958e+01
4.686358e+02	-3.179110e+01
4.713426e+02	-3.184287e+01
4.740650e+02	-3.189460e+01
4.768032e+02	-3.193810e+01
4.795572e+02	-3.199063e+01
4.823271e+02	-3.204436e+01
4.851130e+02	-3.209309e+01
4.879150e+02	-3.214622e+01
4.907332e+02	-3.219261e+01
4.935676e+02	-3.224944e+01
4.964185e+02	-3.229615e+01
4.992858e+02	-3.234318e+01
5.021696e+02	-3.239595e+01
5.050701e+02	-3.245149e+01
5.079874e+02	-3.249765e+01
5.109215e+02	-3.255275e+01
5.138726e+02	-3.259144e+01
5.168407e+02	-3.264621e+01
5.198259e+02	-3.270075e+01
5.228284e+02	-3.274234e+01
5.258482e+02	-3.279964e+01
5.288855e+02	-3.284613e+01
5.319403e+02	-3.289597e+01
5.350128e+02	-3.294637e+01
5.381030e+02	-3.299039e+01
5.412111e+02	-3.304540e+01
5.443371e+02	-3.310067e+01
5.474812e+02	-3.314656e+01
5.506434e+02	-3.320057e+01
5.538239e+02	-3.324543e+01
5.570228e+02	-3.330204e+01
5.602401e+02	-3.335256e+01
5.634760e+02	-3.339279e+01
5.667306e+02	-3.344518e+01
5.700040e+02	-3.349802e+01
5.732964e+02	-3.355137e+01
5.766077e+02	-3.360466e+01
5.799382e+02	-3.365500e+01
5.832879e+02	-3.370797e+01
5.866569e+02	-3.374994e+01
5.900454e+02	-3.380713e+01
5.934535e+02	-3.385476e+01
5.968813e+02	-3.390175e+01
6.003288e+02	-3.395614e+01
6.037963e+02	-3.400286e+01
6.072838e+02	-3.405527e+01
6.107914e+02	-3.410771e+01
6.143194e+02	-3.415373e+01
6.178676e+02	-3.420797e+01
6.214364e+02	-3.425711e+01
6.250258e+02	-3.430502e+01
6.286359e+02	-3.436109e+01
6.322669e+02	-3.440374e+01
6.359189e+02	-3.446146e+01
6.395919e+02	-3.450546e+01
6.432862e+02	-3.456376e+01
6.470017e+02	-3.460795e+01
6.507388e+02	-3.465652e+01
6.544974e+02	-3.471265e+01
6.582778e+02	-3.475979e+01
6.620800e+02	-3.481030e+01
6.659041e+02	-3.486610e+01
6.697504e+02	-3.490473e+01
6.736188e+02	-3.496098e+01
6.775096e+02	-3.500684e+01
6.814229e+02	-3.507063e+01
6.853587e+02	-3.511259e+01
6.893173e+02	-3.516428e+01
6.932988e+02	-3.521984e+01
6.973033e+02	-3.526492e+01
7.013309e+02	-3.531160e+01
