Frequency(Hz)	Magnitude(dB)
1.000000e+01	-2.176570e+00
1.005776e+01	-2.196635e+00
1.011585e+01	-2.216514e+00
1.017428e+01	-2.236859e+00
1.023305e+01	-2.256796e+00
1.029215e+01	-2.277191e+00
1.035160e+01	-2.297672e+00
1.041139e+01	-2.318433e+00
1.047153e+01	-2.339005e+00
1.053201e+01	-2.360059e+00
1.059284e+01	-2.380988e+00
1.065403e+01	-2.402203e+00
1.071556e+01	-2.423394e+00
1.077746e+01	-2.444959e+00
1.083971e+01	-2.466565e+00
1.090232e+01	-2.488435e+00
1.096529e+01	-2.510222e+00
1.102862e+01	-2.532372e+00
1.109232e+01	-2.554393e+00
1.115639e+01	-2.576785e+00
1.122083e+01	-2.599257e+00
1.128564e+01	-2.621871e+00
1.135083e+01	-2.644653e+00
1.141639e+01	-2.667305e+00
1.148233e+01	-2.690456e+00
1.154865e+01	-2.713688e+00
1.161536e+01	-2.736974e+00
1.168245e+01	-2.760521e+00
1.174992e+01	-2.783918e+00
1.181779e+01	-2.807723e+00
1.188605e+01	-2.831674e+00
1.195470e+01	-2.855733e+00
1.202375e+01	-2.880032e+00
1.209320e+01	-2.904098e+00
1.216305e+01	-2.928765e+00
1.223330e+01	-2.953110e+00
1.230396e+01	-2.977758e+00
1.237503e+01	-3.002923e+00
1.244651e+01	-3.027796e+00
1.251840e+01	-3.052920e+00
1.259070e+01	-3.078354e+00
1.266343e+01	-3.103991e+00
1.273657e+01	-3.129404e+00
1.281014e+01	-3.155249e+00
1.288413e+01	-3.181111e+00
1.295855e+01	-3.207125e+00
1.303339e+01	-3.233287e+00
1.310867e+01	-3.259904e+00
1.318439e+01	-3.286370e+00
1.326054e+01	-3.312694e+00
1.333713e+01	-3.339510e+00
1.341417e+01	-3.366435e+00
1.349165e+01	-3.393643e+00
1.356958e+01	-3.420787e+00
1.364795e+01	-3.448430e+00
1.372678e+01	-3.475724e+00
1.380607e+01	-3.503197e+00
1.388581e+01	-3.531062e+00
1.396602e+01	-3.559046e+00
1.404668e+01	-3.586977e+00
1.412782e+01	-3.615436e+00
1.420942e+01	-3.643416e+00
1.429149e+01	-3.671887e+00
1.437404e+01	-3.700685e+00
1.445706e+01	-3.729370e+00
1.454057e+01	-3.758271e+00
1.462455e+01	-3.787322e+00
1.470902e+01	-3.816539e+00
1.479398e+01	-3.845740e+00
1.487943e+01	-3.875025e+00
1.496537e+01	-3.904592e+00
1.505181e+01	-3.934553e+00
1.513875e+01	-3.964494e+00
1.522619e+01	-3.994550e+00
1.531414e+01	-4.024557e+00
1.540259e+01	-4.054772e+00
1.549156e+01	-4.085300e+00
1.558103e+01	-4.115936e+00
1.567103e+01	-4.146571e+00
1.576155e+01	-4.177547e+00
1.585258e+01	-4.208376e+00
1.594415e+01	-4.239508e+00
1.603624e+01	-4.270540e+00
1.612886e+01	-4.302242e+00
1.622202e+01	-4.333600e+00
1.631572e+01	-4.365362e+00
1.640996e+01	-4.397182e+00
1.650474e+01	-4.429122e+00
1.660008e+01	-4.461152e+00
1.669596e+01	-4.493116e+00
1.679239e+01	-4.525307e+00
1.688938e+01	-4.557645e+00
1.698694e+01	-4.590462e+00
1.708505e+01	-4.623228e+00
1.718373e+01	-4.655964e+00
1.728299e+01	-4.689335e+00
1.738281e+01	-4.722444e+00
1.748322e+01	-4.755540e+00
1.758420e+01	-4.788816e+00
1.768576e+01	-4.822139e+00
1.778792e+01	-4.855953e+00
1.789066e+01	-4.889573e+00
1.799399e+01	-4.923406e+00
1.809793e+01	-4.957585e+00
1.820246e+01	-4.991710e+00
1.830760e+01	-5.026005e+00
1.841334e+01	-5.060253e+00
1.851969e+01	-5.094859e+00
1.862666e+01	-5.129310e+00
1.873425e+01	-5.164355e+00
1.884246e+01	-5.198901e+00
1.895129e+01	-5.233729e+00
1.906075e+01	-5.268793e+00
1.917085e+01	-5.304016e+00
1.928158e+01	-5.339501e+00
1.939295e+01	-5.374697e+00
1.950496e+01	-5.410721e+00
1.961762e+01	-5.446138e+00
1.973093e+01	-5.481997e+00
1.984490e+01	-5.518145e+00
1.995952e+01	-5.553924e+00
2.007480e+01	-5.590244e+00
2.019076e+01	-5.626253e+00
2.030738e+01	-5.662645e+00
2.042467e+01	-5.699347e+00
2.054264e+01	-5.735411e+00
2.066130e+01	-5.772627e+00
2.078064e+01	-5.809341e+00
2.090066e+01	-5.846666e+00
2.102139e+01	-5.883554e+00
2.114280e+01	-5.920452e+00
2.126492e+01	-5.958265e+00
2.138775e+01	-5.995293e+00
2.151128e+01	-6.032564e+00
2.163553e+01	-6.070575e+00
2.176050e+01	-6.108017e+00
2.188619e+01	-6.145971e+00
2.201260e+01	-6.184287e+00
2.213974e+01	-6.222231e+00
2.226762e+01	-6.260046e+00
2.239624e+01	-6.298334e+00
2.252560e+01	-6.336663e+00
2.265571e+01	-6.375400e+00
2.278656e+01	-6.413860e+00
2.291818e+01	-6.452451e+00
2.305055e+01	-6.491091e+00
2.318369e+01	-6.530147e+00
2.331760e+01	-6.568788e+00
2.345228e+01	-6.607937e+00
2.358774e+01	-6.647323e+00
2.372398e+01	-6.686164e+00
2.386101e+01	-6.725814e+00
2.399883e+01	-6.765327e+00
2.413745e+01	-6.804792e+00
2.427686e+01	-6.844105e+00
2.441709e+01	-6.884029e+00
2.455812e+01	-6.923824e+00
2.469997e+01	-6.963784e+00
2.484263e+01	-7.003580e+00
2.498612e+01	-7.043659e+00
2.513044e+01	-7.084036e+00
2.527559e+01	-7.124585e+00
2.542158e+01	-7.164686e+00
2.556842e+01	-7.205107e+00
2.571610e+01	-7.246071e+00
2.586463e+01	-7.286414e+00
2.601403e+01	-7.327162e+00
2.616428e+01	-7.368096e+00
2.631541e+01	-7.408905e+00
2.646740e+01	-7.449553e+00
2.662028e+01	-7.490943e+00
2.677404e+01	-7.531630e+00
2.692868e+01	-7.573364e+00
2.708422e+01	-7.614498e+00
2.724066e+01	-7.655963e+00
2.739800e+01	-7.697533e+00
2.755625e+01	-7.738770e+00
2.771541e+01	-7.780711e+00
2.787550e+01	-7.822430e+00
2.803650e+01	-7.864333e+00
2.819844e+01	-7.905907e+00
2.836131e+01	-7.947903e+00
2.852513e+01	-7.989997e+00
2.868989e+01	-8.032111e+00
2.885560e+01	-8.074343e+00
2.902227e+01	-8.116359e+00
2.918990e+01	-8.159368e+00
2.935850e+01	-8.201600e+00
2.952807e+01	-8.243810e+00
2.969863e+01	-8.286588e+00
2.987016e+01	-8.328992e+00
3.004269e+01	-8.371887e+00
3.021622e+01	-8.414767e+00
3.039075e+01	-8.457473e+00
3.056628e+01	-8.500258e+00
3.074283e+01	-8.543581e+00
3.092040e+01	-8.585934e+00
3.109900e+01	-8.629554e+00
3.127862e+01	-8.673216e+00
3.145929e+01	-8.715857e+00
3.164099e+01	-8.759331e+00
3.182375e+01	-8.802638e+00
3.200756e+01	-8.846323e+00
3.219244e+01	-8.889533e+00
3.237838e+01	-8.933527e+00
3.256540e+01	-8.976979e+00
3.275349e+01	-9.020782e+00
3.294268e+01	-9.064391e+00
3.313295e+01	-9.108638e+00
3.332433e+01	-9.152206e+00
3.351681e+01	-9.196092e+00
3.371040e+01	-9.240143e+00
3.390511e+01	-9.284927e+00
3.410094e+01	-9.328682e+00
3.429791e+01	-9.372349e+00
3.449601e+01	-9.417199e+00
3.469526e+01	-9.462041e+00
3.489566e+01	-9.505559e+00
3.509721e+01	-9.550675e+00
3.529993e+01	-9.594536e+00
3.550382e+01	-9.639318e+00
3.570889e+01	-9.683924e+00
3.591515e+01	-9.728893e+00
3.612259e+01	-9.773550e+00
3.633123e+01	-9.818201e+00
3.654108e+01	-9.862481e+00
3.675214e+01	-9.907370e+00
3.696442e+01	-9.952994e+00
3.717792e+01	-9.997769e+00
3.739266e+01	-1.004308e+01
3.760864e+01	-1.008805e+01
3.782587e+01	-1.013315e+01
3.804435e+01	-1.017801e+01
3.826409e+01	-1.022347e+01
3.848510e+01	-1.026907e+01
3.870739e+01	-1.031395e+01
3.893096e+01	-1.035954e+01
3.915583e+01	-1.040454e+01
3.938199e+01	-1.045083e+01
3.960946e+01	-1.049584e+01
3.983824e+01	-1.054188e+01
4.006834e+01	-1.058737e+01
4.029978e+01	-1.063315e+01
4.053255e+01	-1.067890e+01
4.076666e+01	-1.072542e+01
4.100213e+01	-1.077064e+01
4.123896e+01	-1.081588e+01
4.147715e+01	-1.086207e+01
4.171672e+01	-1.090770e+01
4.195767e+01	-1.095452e+01
4.220002e+01	-1.100025e+01
4.244377e+01	-1.104599e+01
4.268892e+01	-1.109241e+01
4.293549e+01	-1.113858e+01
4.318348e+01	-1.118420e+01
4.343291e+01	-1.123048e+01
4.368377e+01	-1.127671e+01
4.393609e+01	-1.132351e+01
4.418986e+01	-1.137015e+01
4.444510e+01	-1.141598e+01
4.470182e+01	-1.146237e+01
4.496001e+01	-1.150974e+01
4.521970e+01	-1.155528e+01
4.548089e+01	-1.160251e+01
4.574358e+01	-1.164805e+01
4.600779e+01	-1.169548e+01
4.627353e+01	-1.174210e+01
4.654081e+01	-1.178885e+01
4.680963e+01	-1.183503e+01
4.708000e+01	-1.188328e+01
4.735193e+01	-1.192929e+01
4.762543e+01	-1.197567e+01
4.790051e+01	-1.202279e+01
4.817719e+01	-1.206973e+01
4.845545e+01	-1.211590e+01
4.873533e+01	-1.216317e+01
4.901682e+01	-1.221076e+01
4.929994e+01	-1.225799e+01
4.958470e+01	-1.230442e+01
4.987110e+01	-1.235194e+01
5.015915e+01	-1.239857e+01
5.044887e+01	-1.244614e+01
5.074026e+01	-1.249315e+01
5.103333e+01	-1.254034e+01
5.132810e+01	-1.258841e+01
5.162457e+01	-1.263455e+01
5.192275e+01	-1.268297e+01
5.222265e+01	-1.272941e+01
5.252429e+01	-1.277642e+01
5.282767e+01	-1.282502e+01
5.313280e+01	-1.287187e+01
5.343969e+01	-1.291963e+01
5.374836e+01	-1.296696e+01
5.405880e+01	-1.301455e+01
5.437105e+01	-1.306176e+01
5.468509e+01	-1.310924e+01
5.500095e+01	-1.315712e+01
5.531863e+01	-1.320490e+01
5.563815e+01	-1.325215e+01
5.595951e+01	-1.329983e+01
5.628273e+01	-1.334687e+01
5.660782e+01	-1.339566e+01
5.693479e+01	-1.344292e+01
5.726364e+01	-1.349076e+01
5.759439e+01	-1.353869e+01
5.792705e+01	-1.358627e+01
5.826164e+01	-1.363442e+01
5.859815e+01	-1.368242e+01
5.893662e+01	-1.372938e+01
5.927703e+01	-1.377791e+01
5.961941e+01	-1.382607e+01
5.996377e+01	-1.387420e+01
6.031012e+01	-1.392242e+01
6.065847e+01	-1.396982e+01
6.100883e+01	-1.401880e+01
6.136121e+01	-1.406676e+01
6.171563e+01	-1.411450e+01
6.207210e+01	-1.416224e+01
6.243063e+01	-1.421064e+01
6.279122e+01	-1.425853e+01
6.315390e+01	-1.430590e+01
6.351868e+01	-1.435492e+01
6.388556e+01	-1.440260e+01
6.425456e+01	-1.445127e+01
6.462569e+01	-1.449982e+01
6.499897e+01	-1.454832e+01
6.537440e+01	-1.459643e+01
6.575200e+01	-1.464485e+01
6.613178e+01	-1.469206e+01
6.651375e+01	-1.474117e+01
6.689793e+01	-1.478889e+01
6.728433e+01	-1.483772e+01
6.767297e+01	-1.488673e+01
6.806384e+01	-1.493495e+01
6.845698e+01	-1.498345e+01
6.885238e+01	-1.503124e+01
6.925007e+01	-1.508028e+01
6.965005e+01	-1.512940e+01
7.005235e+01	-1.517751e+01
7.045697e+01	-1.522595e+01
7.086393e+01	-1.527451e+01
7.127323e+01	-1.532304e+01
7.168490e+01	-1.537089e+01
7.209895e+01	-1.541885e+01
7.251539e+01	-1.546866e+01
7.293424e+01	-1.551713e+01
7.335551e+01	-1.556489e+01
7.377920e+01	-1.561387e+01
7.420535e+01	-1.566198e+01
7.463396e+01	-1.571084e+01
7.506504e+01	-1.575888e+01
7.549861e+01	-1.580799e+01
7.593469e+01	-1.585619e+01
7.637328e+01	-1.590671e+01
7.681441e+01	-1.595464e+01
7.725809e+01	-1.600400e+01
7.770433e+01	-1.605210e+01
7.815315e+01	-1.610121e+01
7.860456e+01	-1.615080e+01
7.905857e+01	-1.619910e+01
7.951521e+01	-1.624668e+01
7.997449e+01	-1.629734e+01
8.043642e+01	-1.634492e+01
8.090102e+01	-1.639360e+01
8.136830e+01	-1.644461e+01
8.183828e+01	-1.649244e+01
8.231097e+01	-1.654177e+01
8.278640e+01	-1.658990e+01
8.326457e+01	-1.663943e+01
8.374550e+01	-1.668790e+01
8.422921e+01	-1.673721e+01
8.471572e+01	-1.678622e+01
8.520503e+01	-1.683374e+01
8.569717e+01	-1.688326e+01
8.619215e+01	-1.693298e+01
8.669000e+01	-1.698282e+01
8.719071e+01	-1.703127e+01
8.769432e+01	-1.708017e+01
8.820084e+01	-1.712802e+01
8.871029e+01	-1.717831e+01
8.922267e+01	-1.722698e+01
8.973802e+01	-1.727647e+01
9.025634e+01	-1.732479e+01
9.077766e+01	-1.737559e+01
9.130199e+01	-1.742391e+01
9.182935e+01	-1.747153e+01
9.235975e+01	-1.752209e+01
9.289321e+01	-1.757123e+01
9.342976e+01	-1.762031e+01
9.396941e+01	-1.766991e+01
9.451217e+01	-1.771865e+01
9.505807e+01	-1.776723e+01
9.560712e+01	-1.781739e+01
9.615934e+01	-1.786707e+01
9.671476e+01	-1.791589e+01
9.727338e+01	-1.796510e+01
9.783522e+01	-1.801470e+01
9.840032e+01	-1.806265e+01
9.896867e+01	-1.811252e+01
9.954031e+01	-1.816193e+01
1.001153e+02	-1.821178e+01
1.006935e+02	-1.826089e+01
1.012751e+02	-1.831031e+01
1.018601e+02	-1.835860e+01
1.024484e+02	-1.840868e+01
1.030402e+02	-1.845761e+01
1.036353e+02	-1.850831e+01
1.042339e+02	-1.855691e+01
1.048360e+02	-1.860580e+01
1.054415e+02	-1.865495e+01
1.060505e+02	-1.870438e+01
1.066631e+02	-1.875353e+01
1.072791e+02	-1.880416e+01
1.078988e+02	-1.885342e+01
1.085220e+02	-1.890265e+01
1.091488e+02	-1.894928e+01
1.097793e+02	-1.899943e+01
1.104133e+02	-1.904889e+01
1.110511e+02	-1.909889e+01
1.116925e+02	-1.914945e+01
1.123376e+02	-1.919831e+01
1.129865e+02	-1.924718e+01
1.136391e+02	-1.929613e+01
1.142955e+02	-1.934592e+01
1.149556e+02	-1.939539e+01
1.156196e+02	-1.944452e+01
1.162874e+02	-1.949406e+01
1.169591e+02	-1.954467e+01
1.176347e+02	-1.959492e+01
1.183141e+02	-1.964235e+01
1.189975e+02	-1.969196e+01
1.196848e+02	-1.974153e+01
1.203761e+02	-1.979283e+01
1.210714e+02	-1.984147e+01
1.217707e+02	-1.989094e+01
1.224740e+02	-1.993969e+01
1.231814e+02	-1.998997e+01
1.238929e+02	-2.003899e+01
1.246085e+02	-2.008845e+01
1.253283e+02	-2.013831e+01
1.260522e+02	-2.018663e+01
1.267802e+02	-2.023828e+01
1.275125e+02	-2.028680e+01
1.282490e+02	-2.033651e+01
1.289898e+02	-2.038469e+01
1.297348e+02	-2.043492e+01
1.304842e+02	-2.048453e+01
1.312378e+02	-2.053712e+01
1.319959e+02	-2.058408e+01
1.327583e+02	-2.063275e+01
1.335251e+02	-2.068371e+01
1.342963e+02	-2.073443e+01
1.350720e+02	-2.078350e+01
1.358522e+02	-2.083411e+01
1.366368e+02	-2.088150e+01
1.374260e+02	-2.093330e+01
1.382198e+02	-2.097934e+01
1.390182e+02	-2.103088e+01
1.398211e+02	-2.108291e+01
1.406287e+02	-2.113157e+01
1.414410e+02	-2.118023e+01
1.422579e+02	-2.123053e+01
1.430796e+02	-2.127778e+01
1.439060e+02	-2.132964e+01
1.447372e+02	-2.137767e+01
1.455732e+02	-2.142885e+01
1.464141e+02	-2.147905e+01
1.472597e+02	-2.152590e+01
1.481103e+02	-2.157954e+01
1.489658e+02	-2.162690e+01
1.498262e+02	-2.167634e+01
1.506916e+02	-2.172545e+01
1.515620e+02	-2.177808e+01
1.524374e+02	-2.182499e+01
1.533179e+02	-2.187741e+01
1.542034e+02	-2.192491e+01
1.550941e+02	-2.197654e+01
1.559899e+02	-2.202532e+01
1.568909e+02	-2.207652e+01
1.577971e+02	-2.212457e+01
1.587085e+02	-2.217454e+01
1.596252e+02	-2.222469e+01
1.605472e+02	-2.227279e+01
1.614745e+02	-2.232307e+01
1.624072e+02	-2.237211e+01
1.633453e+02	-2.242423e+01
1.642887e+02	-2.247446e+01
1.652377e+02	-2.252115e+01
1.661921e+02	-2.257352e+01
1.671520e+02	-2.262006e+01
1.681175e+02	-2.267296e+01
1.690885e+02	-2.272355e+01
1.700651e+02	-2.277112e+01
1.710474e+02	-2.282135e+01
1.720354e+02	-2.287086e+01
1.730291e+02	-2.292101e+01
1.740285e+02	-2.297257e+01
1.750337e+02	-2.302080e+01
1.760446e+02	-2.306963e+01
1.770615e+02	-2.311852e+01
1.780842e+02	-2.317096e+01
1.791128e+02	-2.321926e+01
1.801473e+02	-2.326873e+01
1.811878e+02	-2.331675e+01
1.822344e+02	-2.337142e+01
1.832870e+02	-2.341739e+01
1.843456e+02	-2.346853e+01
1.854104e+02	-2.351922e+01
1.864813e+02	-2.356714e+01
1.875584e+02	-2.361715e+01
1.886418e+02	-2.366816e+01
1.897313e+02	-2.371922e+01
1.908272e+02	-2.376752e+01
1.919294e+02	-2.381674e+01
1.930380e+02	-2.386781e+01
1.941530e+02	-2.391853e+01
1.952744e+02	-2.396620e+01
1.964023e+02	-2.401627e+01
1.975367e+02	-2.407001e+01
1.986777e+02	-2.411778e+01
1.998252e+02	-2.416648e+01
2.009794e+02	-2.421543e+01
2.021403e+02	-2.426690e+01
2.033078e+02	-2.431579e+01
2.044821e+02	-2.436470e+01
2.056632e+02	-2.441513e+01
2.068511e+02	-2.446797e+01
2.080459e+02	-2.451525e+01
2.092475e+02	-2.456600e+01
2.104561e+02	-2.461671e+01
2.116717e+02	-2.466681e+01
2.128943e+02	-2.471252e+01
2.141240e+02	-2.476458e+01
2.153608e+02	-2.481708e+01
2.166047e+02	-2.486557e+01
2.178558e+02	-2.491429e+01
2.191141e+02	-2.496220e+01
2.203797e+02	-2.501621e+01
2.216526e+02	-2.506179e+01
2.229329e+02	-2.511447e+01
2.242205e+02	-2.516469e+01
2.255156e+02	-2.521251e+01
2.268182e+02	-2.526528e+01
2.281283e+02	-2.531338e+01
2.294459e+02	-2.536527e+01
2.307712e+02	-2.541427e+01
2.321041e+02	-2.546371e+01
2.334447e+02	-2.551338e+01
2.347931e+02	-2.556507e+01
2.361493e+02	-2.561580e+01
2.375133e+02	-2.566416e+01
2.388851e+02	-2.571397e+01
2.402649e+02	-2.576470e+01
2.416527e+02	-2.581576e+01
2.430484e+02	-2.586687e+01
2.444523e+02	-2.591692e+01
2.458642e+02	-2.596124e+01
2.472843e+02	-2.601832e+01
2.487126e+02	-2.606274e+01
2.501492e+02	-2.610960e+01
2.515940e+02	-2.616193e+01
2.530472e+02	-2.621206e+01
2.545088e+02	-2.626282e+01
2.559789e+02	-2.631176e+01
2.574574e+02	-2.636304e+01
2.589444e+02	-2.641330e+01
2.604401e+02	-2.646474e+01
2.619444e+02	-2.651359e+01
2.634574e+02	-2.656120e+01
2.649791e+02	-2.661355e+01
2.665096e+02	-2.666173e+01
2.680489e+02	-2.670963e+01
2.695972e+02	-2.676377e+01
2.711544e+02	-2.681026e+01
2.727205e+02	-2.686112e+01
2.742958e+02	-2.691011e+01
2.758801e+02	-2.696333e+01
2.774736e+02	-2.701033e+01
2.790762e+02	-2.706387e+01
2.806882e+02	-2.711015e+01
2.823094e+02	-2.716258e+01
2.839400e+02	-2.721298e+01
2.855800e+02	-2.726499e+01
2.872295e+02	-2.731396e+01
2.888886e+02	-2.736365e+01
2.905572e+02	-2.741317e+01
2.922354e+02	-2.746847e+01
2.939234e+02	-2.751451e+01
2.956211e+02	-2.756184e+01
2.973286e+02	-2.761656e+01
2.990459e+02	-2.766574e+01
3.007732e+02	-2.771367e+01
3.025104e+02	-2.776307e+01
3.042577e+02	-2.781361e+01
3.060151e+02	-2.786456e+01
3.077826e+02	-2.790977e+01
3.095604e+02	-2.796448e+01
3.113484e+02	-2.801042e+01
3.131467e+02	-2.806175e+01
3.149554e+02	-2.811208e+01
3.167746e+02	-2.816202e+01
3.186043e+02	-2.821458e+01
3.204445e+02	-2.826507e+01
3.222954e+02	-2.831383e+01
3.241570e+02	-2.835927e+01
3.260293e+02	-2.841245e+01
3.279124e+02	-2.845930e+01
3.298064e+02	-2.851369e+01
3.317114e+02	-2.856021e+01
3.336273e+02	-2.861492e+01
3.355544e+02	-2.866352e+01
3.374925e+02	-2.871583e+01
3.394418e+02	-2.876412e+01
3.414024e+02	-2.881341e+01
3.433744e+02	-2.886369e+01
3.453577e+02	-2.891341e+01
3.473525e+02	-2.896252e+01
3.493588e+02	-2.900958e+01
3.513766e+02	-2.906237e+01
3.534062e+02	-2.911961e+01
3.554474e+02	-2.916136e+01
3.575005e+02	-2.921833e+01
3.595654e+02	-2.926481e+01
3.616422e+02	-2.931426e+01
3.637311e+02	-2.936926e+01
3.658320e+02	-2.941628e+01
3.679450e+02	-2.946357e+01
3.700702e+02	-2.951363e+01
3.722077e+02	-2.956954e+01
3.743576e+02	-2.961557e+01
3.765199e+02	-2.966654e+01
3.786946e+02	-2.971141e+01
3.808820e+02	-2.976353e+01
3.830819e+02	-2.981852e+01
3.852946e+02	-2.986324e+01
3.875200e+02	-2.991629e+01
3.897583e+02	-2.996308e+01
3.920096e+02	-3.001723e+01
3.942738e+02	-3.007024e+01
3.965511e+02	-3.011374e+01
3.988416e+02	-3.016700e+01
4.011452e+02	-3.022003e+01
4.034622e+02	-3.026385e+01
4.057926e+02	-3.032299e+01
4.081365e+02	-3.036857e+01
4.104938e+02	-3.041827e+01
4.128648e+02	-3.046847e+01
4.152495e+02	-3.051563e+01
4.176480e+02	-3.056817e+01
4.200603e+02	-3.061394e+01
4.224866e+02	-3.066950e+01
4.249268e+02	-3.071817e+01
4.273812e+02	-3.077203e+01
4.298497e+02	-3.081899e+01
4.323325e+02	-3.086350e+01
4.348297e+02	-3.092034e+01
4.373412e+02	-3.096493e+01
4.398673e+02	-3.102057e+01
4.424079e+02	-3.106953e+01
4.449633e+02	-3.112293e+01
4.475334e+02	-3.116879e+01
4.501183e+02	-3.121835e+01
4.527182e+02	-3.127419e+01
4.553330e+02	-3.132189e+01
4.579630e+02	-3.136773e+01
4.606082e+02	-3.141832e+01
4.632687e+02	-3.147189e+01
4.659445e+02	-3.152890e+01
4.686358e+02	-3.157057e+01
4.713426e+02	-3.161945e+01
4.740650e+02	-3.167366e+01
4.768032e+02	-3.172442e+01
4.795572e+02	-3.176864e+01
4.823271e+02	-3.181913e+01
4.851130e+02	-3.187160e+01
4.879150e+02	-3.192372e+01
4.907332e+02	-3.197189e+01
4.935676e+02	-3.203055e+01
4.964185e+02	-3.207109e+01
4.992858e+02	-3.212240e+01
5.021696e+02	-3.217321e+01
5.050701e+02	-3.222204e+01
5.079874e+02	-3.227585e+01
5.109215e+02	-3.232214e+01
5.138726e+02	-3.237510e+01
5.168407e+02	-3.241894e+01
5.198259e+02	-3.248118e+01
5.228284e+02	-3.252661e+01
5.258482e+02	-3.257475e+01
5.288855e+02	-3.261926e+01
5.319403e+02	-3.267310e+01
5.350128e+02	-3.272832e+01
5.381030e+02	-3.277439e+01
5.412111e+02	-3.281912e+01
5.443371e+02	-3.288478e+01
5.474812e+02	-3.293529e+01
5.506434e+02	-3.297420e+01
5.538239e+02	-3.302273e+01
5.570228e+02	-3.307375e+01
5.602401e+02	-3.312891e+01
5.634760e+02	-3.317811e+01
5.667306e+02	-3.322760e+01
5.700040e+02	-3.328086e+01
5.732964e+02	-3.332630e+01
5.766077e+02	-3.337250e+01
5.799382e+02	-3.343116e+01
5.832879e+02	-3.348357e+01
5.866569e+02	-3.352415e+01
5.900454e+02	-3.358163e+01
5.934535e+02	-3.363789e+01
5.968813e+02	-3.367723e+01
6.003288e+02	-3.373143e+01
6.037963e+02	-3.378068e+01
6.072838e+02	-3.383686e+01
6.107914e+02	-3.388290e+01
6.143194e+02	-3.394468e+01
6.178676e+02	-3.398805e+01
6.214364e+02	-3.403816e+01
6.250258e+02	-3.408001e+01
6.286359e+02	-3.413651e+01
6.322669e+02	-3.418828e+01
6.359189e+02	-3.423056e+01
6.395919e+02	-3.428416e+01
6.432862e+02	-3.434355e+01
6.470017e+02	-3.438755e+01
6.507388e+02	-3.444401e+01
6.544974e+02	-3.448820e+01
6.582778e+02	-3.453492e+01
6.620800e+02	-3.458447e+01
6.659041e+02	-3.463073e+01
6.697504e+02	-3.468669e+01
6.736188e+02	-3.473434e+01
6.775096e+02	-3.478064e+01
6.814229e+02	-3.483641e+01
6.853587e+02	-3.489024e+01
6.893173e+02	-3.493686e+01
6.932988e+02	-3.499616e+01
6.973033e+02	-3.504047e+01
7.013309e+02	-3.509256e+01
