Frequency(Hz)	Magnitude(dB)
1.000000e+01	-2.190918e+00
1.005776e+01	-2.210791e+00
1.011585e+01	-2.230940e+00
1.017428e+01	-2.251076e+00
1.023305e+01	-2.271323e+00
1.029215e+01	-2.291860e+00
1.035160e+01	-2.312444e+00
1.041139e+01	-2.333073e+00
1.047153e+01	-2.353785e+00
1.053201e+01	-2.375010e+00
1.059284e+01	-2.396109e+00
1.065403e+01	-2.417474e+00
1.071556e+01	-2.438904e+00
1.077746e+01	-2.460468e+00
1.083971e+01	-2.482157e+00
1.090232e+01	-2.503928e+00
1.096529e+01	-2.525997e+00
1.102862e+01	-2.547996e+00
1.109232e+01	-2.570332e+00
1.115639e+01	-2.592806e+00
1.122083e+01	-2.615322e+00
1.128564e+01	-2.638046e+00
1.135083e+01	-2.661005e+00
1.141639e+01	-2.683763e+00
1.148233e+01	-2.707100e+00
1.154865e+01	-2.730113e+00
1.161536e+01	-2.753787e+00
1.168245e+01	-2.777051e+00
1.174992e+01	-2.800824e+00
1.181779e+01	-2.824935e+00
1.188605e+01	-2.848910e+00
1.195470e+01	-2.872958e+00
1.202375e+01	-2.897171e+00
1.209320e+01	-2.921546e+00
1.216305e+01	-2.946223e+00
1.223330e+01	-2.970909e+00
1.230396e+01	-2.995646e+00
1.237503e+01	-3.020687e+00
1.244651e+01	-3.045746e+00
1.251840e+01	-3.071085e+00
1.259070e+01	-3.096623e+00
1.266343e+01	-3.122088e+00
1.273657e+01	-3.148004e+00
1.281014e+01	-3.173668e+00
1.288413e+01	-3.199779e+00
1.295855e+01	-3.226075e+00
1.303339e+01	-3.252289e+00
1.310867e+01	-3.278714e+00
1.318439e+01	-3.305080e+00
1.326054e+01	-3.332096e+00
1.333713e+01	-3.358920e+00
1.341417e+01	-3.386071e+00
1.349165e+01	-3.412869e+00
1.356958e+01	-3.440151e+00
1.364795e+01	-3.467455e+00
1.372678e+01	-3.495330e+00
1.380607e+01	-3.523244e+00
1.388581e+01	-3.551189e+00
1.396602e+01	-3.579047e+00
1.404668e+01	-3.606995e+00
1.412782e+01	-3.635303e+00
1.420942e+01	-3.663869e+00
1.429149e+01	-3.692654e+00
1.437404e+01	-3.721037e+00
1.445706e+01	-3.750259e+00
1.454057e+01	-3.778818e+00
1.462455e+01	-3.808071e+00
1.470902e+01	-3.837437e+00
1.479398e+01	-3.866830e+00
1.487943e+01	-3.896489e+00
1.496537e+01	-3.926143e+00
1.505181e+01	-3.955809e+00
1.513875e+01	-3.985913e+00
1.522619e+01	-4.016002e+00
1.531414e+01	-4.046583e+00
1.540259e+01	-4.076400e+00
1.549156e+01	-4.107210e+00
1.558103e+01	-4.138027e+00
1.567103e+01	-4.168812e+00
1.576155e+01	-4.199549e+00
1.585258e+01	-4.230600e+00
1.594415e+01	-4.262049e+00
1.603624e+01	-4.293198e+00
1.612886e+01	-4.324860e+00
1.622202e+01	-4.356171e+00
1.631572e+01	-4.388196e+00
1.640996e+01	-4.419786e+00
1.650474e+01	-4.452063e+00
1.660008e+01	-4.484210e+00
1.669596e+01	-4.516447e+00
1.679239e+01	-4.548484e+00
1.688938e+01	-4.581465e+00
1.698694e+01	-4.613870e+00
1.708505e+01	-4.646632e+00
1.718373e+01	-4.679682e+00
1.728299e+01	-4.712943e+00
1.738281e+01	-4.746063e+00
1.748322e+01	-4.779280e+00
1.758420e+01	-4.812708e+00
1.768576e+01	-4.846272e+00
1.778792e+01	-4.880165e+00
1.789066e+01	-4.913893e+00
1.799399e+01	-4.947731e+00
1.809793e+01	-4.981840e+00
1.820246e+01	-5.015893e+00
1.830760e+01	-5.050370e+00
1.841334e+01	-5.084799e+00
1.851969e+01	-5.119053e+00
1.862666e+01	-5.153971e+00
1.873425e+01	-5.188734e+00
1.884246e+01	-5.223854e+00
1.895129e+01	-5.258895e+00
1.906075e+01	-5.294210e+00
1.917085e+01	-5.329225e+00
1.928158e+01	-5.364862e+00
1.939295e+01	-5.400213e+00
1.950496e+01	-5.436078e+00
1.961762e+01	-5.471756e+00
1.973093e+01	-5.507415e+00
1.984490e+01	-5.543392e+00
1.995952e+01	-5.579955e+00
2.007480e+01	-5.615901e+00
2.019076e+01	-5.652194e+00
2.030738e+01	-5.688754e+00
2.042467e+01	-5.725459e+00
2.054264e+01	-5.762363e+00
2.066130e+01	-5.798862e+00
2.078064e+01	-5.835779e+00
2.090066e+01	-5.873115e+00
2.102139e+01	-5.910047e+00
2.114280e+01	-5.947294e+00
2.126492e+01	-5.984676e+00
2.138775e+01	-6.021663e+00
2.151128e+01	-6.059599e+00
2.163553e+01	-6.097699e+00
2.176050e+01	-6.135314e+00
2.188619e+01	-6.173213e+00
2.201260e+01	-6.211440e+00
2.213974e+01	-6.249349e+00
2.226762e+01	-6.287165e+00
2.239624e+01	-6.325647e+00
2.252560e+01	-6.364119e+00
2.265571e+01	-6.402564e+00
2.278656e+01	-6.441351e+00
2.291818e+01	-6.480020e+00
2.305055e+01	-6.518808e+00
2.318369e+01	-6.557445e+00
2.331760e+01	-6.596707e+00
2.345228e+01	-6.635854e+00
2.358774e+01	-6.675326e+00
2.372398e+01	-6.714350e+00
2.386101e+01	-6.753930e+00
2.399883e+01	-6.793570e+00
2.413745e+01	-6.832905e+00
2.427686e+01	-6.872635e+00
2.441709e+01	-6.912315e+00
2.455812e+01	-6.952323e+00
2.469997e+01	-6.992292e+00
2.484263e+01	-7.032406e+00
2.498612e+01	-7.072722e+00
2.513044e+01	-7.112912e+00
2.527559e+01	-7.153553e+00
2.542158e+01	-7.193514e+00
2.556842e+01	-7.234628e+00
2.571610e+01	-7.274815e+00
2.586463e+01	-7.315581e+00
2.601403e+01	-7.356635e+00
2.616428e+01	-7.396573e+00
2.631541e+01	-7.437964e+00
2.646740e+01	-7.478871e+00
2.662028e+01	-7.520501e+00
2.677404e+01	-7.561613e+00
2.692868e+01	-7.602707e+00
2.708422e+01	-7.643866e+00
2.724066e+01	-7.686004e+00
2.739800e+01	-7.727285e+00
2.755625e+01	-7.768574e+00
2.771541e+01	-7.809968e+00
2.787550e+01	-7.852133e+00
2.803650e+01	-7.893989e+00
2.819844e+01	-7.936349e+00
2.836131e+01	-7.978104e+00
2.852513e+01	-8.020106e+00
2.868989e+01	-8.062332e+00
2.885560e+01	-8.104148e+00
2.902227e+01	-8.147100e+00
2.918990e+01	-8.189659e+00
2.935850e+01	-8.231647e+00
2.952807e+01	-8.274529e+00
2.969863e+01	-8.316706e+00
2.987016e+01	-8.359632e+00
3.004269e+01	-8.402126e+00
3.021622e+01	-8.445289e+00
3.039075e+01	-8.488423e+00
3.056628e+01	-8.531091e+00
3.074283e+01	-8.574254e+00
3.092040e+01	-8.617631e+00
3.109900e+01	-8.660063e+00
3.127862e+01	-8.703687e+00
3.145929e+01	-8.746953e+00
3.164099e+01	-8.790289e+00
3.182375e+01	-8.833819e+00
3.200756e+01	-8.877295e+00
3.219244e+01	-8.921275e+00
3.237838e+01	-8.964814e+00
3.256540e+01	-9.008241e+00
3.275349e+01	-9.052168e+00
3.294268e+01	-9.095902e+00
3.313295e+01	-9.140012e+00
3.332433e+01	-9.184018e+00
3.351681e+01	-9.227703e+00
3.371040e+01	-9.272587e+00
3.390511e+01	-9.316402e+00
3.410094e+01	-9.360109e+00
3.429791e+01	-9.404719e+00
3.449601e+01	-9.448944e+00
3.469526e+01	-9.493089e+00
3.489566e+01	-9.537670e+00
3.509721e+01	-9.581711e+00
3.529993e+01	-9.626675e+00
3.550382e+01	-9.671226e+00
3.570889e+01	-9.715408e+00
3.591515e+01	-9.759908e+00
3.612259e+01	-9.805090e+00
3.633123e+01	-9.850148e+00
3.654108e+01	-9.894846e+00
3.675214e+01	-9.939726e+00
3.696442e+01	-9.984473e+00
3.717792e+01	-1.003008e+01
3.739266e+01	-1.007558e+01
3.760864e+01	-1.011994e+01
3.782587e+01	-1.016525e+01
3.804435e+01	-1.021090e+01
3.826409e+01	-1.025539e+01
3.848510e+01	-1.030151e+01
3.870739e+01	-1.034620e+01
3.893096e+01	-1.039223e+01
3.915583e+01	-1.043738e+01
3.938199e+01	-1.048260e+01
3.960946e+01	-1.052859e+01
3.983824e+01	-1.057448e+01
4.006834e+01	-1.062004e+01
4.029978e+01	-1.066586e+01
4.053255e+01	-1.071086e+01
4.076666e+01	-1.075713e+01
4.100213e+01	-1.080307e+01
4.123896e+01	-1.084924e+01
4.147715e+01	-1.089515e+01
4.171672e+01	-1.094152e+01
4.195767e+01	-1.098709e+01
4.220002e+01	-1.103305e+01
4.244377e+01	-1.107936e+01
4.268892e+01	-1.112481e+01
4.293549e+01	-1.117170e+01
4.318348e+01	-1.121714e+01
4.343291e+01	-1.126398e+01
4.368377e+01	-1.131018e+01
4.393609e+01	-1.135620e+01
4.418986e+01	-1.140310e+01
4.444510e+01	-1.144914e+01
4.470182e+01	-1.149519e+01
4.496001e+01	-1.154254e+01
4.521970e+01	-1.158887e+01
4.548089e+01	-1.163522e+01
4.574358e+01	-1.168150e+01
4.600779e+01	-1.172882e+01
4.627353e+01	-1.177538e+01
4.654081e+01	-1.182239e+01
4.680963e+01	-1.186836e+01
4.708000e+01	-1.191543e+01
4.735193e+01	-1.196213e+01
4.762543e+01	-1.200993e+01
4.790051e+01	-1.205655e+01
4.817719e+01	-1.210334e+01
4.845545e+01	-1.214942e+01
4.873533e+01	-1.219756e+01
4.901682e+01	-1.224404e+01
4.929994e+01	-1.229121e+01
4.958470e+01	-1.233885e+01
4.987110e+01	-1.238536e+01
5.015915e+01	-1.243205e+01
5.044887e+01	-1.248031e+01
5.074026e+01	-1.252672e+01
5.103333e+01	-1.257417e+01
5.132810e+01	-1.262137e+01
5.162457e+01	-1.266865e+01
5.192275e+01	-1.271606e+01
5.222265e+01	-1.276298e+01
5.252429e+01	-1.281100e+01
5.282767e+01	-1.285822e+01
5.313280e+01	-1.290590e+01
5.343969e+01	-1.295290e+01
5.374836e+01	-1.300037e+01
5.405880e+01	-1.304860e+01
5.437105e+01	-1.309565e+01
5.468509e+01	-1.314372e+01
5.500095e+01	-1.319114e+01
5.531863e+01	-1.323835e+01
5.563815e+01	-1.328652e+01
5.595951e+01	-1.333394e+01
5.628273e+01	-1.338218e+01
5.660782e+01	-1.342991e+01
5.693479e+01	-1.347734e+01
5.726364e+01	-1.352532e+01
5.759439e+01	-1.357260e+01
5.792705e+01	-1.362050e+01
5.826164e+01	-1.366873e+01
5.859815e+01	-1.371699e+01
5.893662e+01	-1.376418e+01
5.927703e+01	-1.381322e+01
5.961941e+01	-1.385941e+01
5.996377e+01	-1.390796e+01
6.031012e+01	-1.395565e+01
6.065847e+01	-1.400438e+01
6.100883e+01	-1.405228e+01
6.136121e+01	-1.410042e+01
6.171563e+01	-1.414873e+01
6.207210e+01	-1.419636e+01
6.243063e+01	-1.424474e+01
6.279122e+01	-1.429196e+01
6.315390e+01	-1.434100e+01
6.351868e+01	-1.438896e+01
6.388556e+01	-1.443764e+01
6.425456e+01	-1.448560e+01
6.462569e+01	-1.453426e+01
6.499897e+01	-1.458291e+01
6.537440e+01	-1.463089e+01
6.575200e+01	-1.467852e+01
6.613178e+01	-1.472728e+01
6.651375e+01	-1.477521e+01
6.689793e+01	-1.482348e+01
6.728433e+01	-1.487268e+01
6.767297e+01	-1.492111e+01
6.806384e+01	-1.496951e+01
6.845698e+01	-1.501706e+01
6.885238e+01	-1.506647e+01
6.925007e+01	-1.511450e+01
6.965005e+01	-1.516406e+01
7.005235e+01	-1.521066e+01
7.045697e+01	-1.526088e+01
7.086393e+01	-1.530848e+01
7.127323e+01	-1.535786e+01
7.168490e+01	-1.540564e+01
7.209895e+01	-1.545484e+01
7.251539e+01	-1.550316e+01
7.293424e+01	-1.555128e+01
7.335551e+01	-1.560132e+01
7.377920e+01	-1.564833e+01
7.420535e+01	-1.569737e+01
7.463396e+01	-1.574634e+01
7.506504e+01	-1.579527e+01
7.549861e+01	-1.584387e+01
7.593469e+01	-1.589271e+01
7.637328e+01	-1.594221e+01
7.681441e+01	-1.598993e+01
7.725809e+01	-1.603881e+01
7.770433e+01	-1.608796e+01
7.815315e+01	-1.613672e+01
7.860456e+01	-1.618495e+01
7.905857e+01	-1.623409e+01
7.951521e+01	-1.628294e+01
7.997449e+01	-1.633215e+01
8.043642e+01	-1.638077e+01
8.090102e+01	-1.642918e+01
8.136830e+01	-1.647750e+01
8.183828e+01	-1.652758e+01
8.231097e+01	-1.657718e+01
8.278640e+01	-1.662415e+01
8.326457e+01	-1.667341e+01
8.374550e+01	-1.672363e+01
8.422921e+01	-1.677276e+01
8.471572e+01	-1.681950e+01
8.520503e+01	-1.687038e+01
8.569717e+01	-1.691847e+01
8.619215e+01	-1.696829e+01
8.669000e+01	-1.701748e+01
8.719071e+01	-1.706633e+01
8.769432e+01	-1.711556e+01
8.820084e+01	-1.716520e+01
8.871029e+01	-1.721307e+01
8.922267e+01	-1.726265e+01
8.973802e+01	-1.731216e+01
9.025634e+01	-1.736106e+01
9.077766e+01	-1.741015e+01
9.130199e+01	-1.745976e+01
9.182935e+01	-1.750846e+01
9.235975e+01	-1.755723e+01
9.289321e+01	-1.760554e+01
9.342976e+01	-1.765606e+01
9.396941e+01	-1.770435e+01
9.451217e+01	-1.775406e+01
9.505807e+01	-1.780364e+01
9.560712e+01	-1.785229e+01
9.615934e+01	-1.790109e+01
9.671476e+01	-1.794987e+01
9.727338e+01	-1.800043e+01
9.783522e+01	-1.805005e+01
9.840032e+01	-1.809756e+01
9.896867e+01	-1.814696e+01
9.954031e+01	-1.819755e+01
1.001153e+02	-1.824593e+01
1.006935e+02	-1.829554e+01
1.012751e+02	-1.834567e+01
1.018601e+02	-1.839373e+01
1.024484e+02	-1.844487e+01
1.030402e+02	-1.849256e+01
1.036353e+02	-1.854381e+01
1.042339e+02	-1.859090e+01
1.048360e+02	-1.864081e+01
1.054415e+02	-1.869031e+01
1.060505e+02	-1.874080e+01
1.066631e+02	-1.878902e+01
1.072791e+02	-1.883825e+01
1.078988e+02	-1.888893e+01
1.085220e+02	-1.893627e+01
1.091488e+02	-1.898629e+01
1.097793e+02	-1.903630e+01
1.104133e+02	-1.908408e+01
1.110511e+02	-1.913408e+01
1.116925e+02	-1.918404e+01
1.123376e+02	-1.923375e+01
1.129865e+02	-1.928296e+01
1.136391e+02	-1.933294e+01
1.142955e+02	-1.938106e+01
1.149556e+02	-1.943153e+01
1.156196e+02	-1.948184e+01
1.162874e+02	-1.953089e+01
1.169591e+02	-1.957963e+01
1.176347e+02	-1.962803e+01
1.183141e+02	-1.967753e+01
1.189975e+02	-1.972812e+01
1.196848e+02	-1.977847e+01
1.203761e+02	-1.982758e+01
1.210714e+02	-1.987749e+01
1.217707e+02	-1.992709e+01
1.224740e+02	-1.997472e+01
1.231814e+02	-2.002506e+01
1.238929e+02	-2.007286e+01
1.246085e+02	-2.012421e+01
1.253283e+02	-2.017358e+01
1.260522e+02	-2.022356e+01
1.267802e+02	-2.027244e+01
1.275125e+02	-2.032172e+01
1.282490e+02	-2.037142e+01
1.289898e+02	-2.042169e+01
1.297348e+02	-2.047173e+01
1.304842e+02	-2.051925e+01
1.312378e+02	-2.057098e+01
1.319959e+02	-2.061986e+01
1.327583e+02	-2.066935e+01
1.335251e+02	-2.072114e+01
1.342963e+02	-2.076774e+01
1.350720e+02	-2.081716e+01
1.358522e+02	-2.086944e+01
1.366368e+02	-2.091853e+01
1.374260e+02	-2.096864e+01
1.382198e+02	-2.101865e+01
1.390182e+02	-2.106720e+01
1.398211e+02	-2.111483e+01
1.406287e+02	-2.116600e+01
1.414410e+02	-2.121451e+01
1.422579e+02	-2.126699e+01
1.430796e+02	-2.131448e+01
1.439060e+02	-2.136578e+01
1.447372e+02	-2.141448e+01
1.455732e+02	-2.146313e+01
1.464141e+02	-2.151304e+01
1.472597e+02	-2.156320e+01
1.481103e+02	-2.161324e+01
1.489658e+02	-2.166227e+01
1.498262e+02	-2.171307e+01
1.506916e+02	-2.176036e+01
1.515620e+02	-2.181309e+01
1.524374e+02	-2.186178e+01
1.533179e+02	-2.191095e+01
1.542034e+02	-2.196211e+01
1.550941e+02	-2.201018e+01
1.559899e+02	-2.205986e+01
1.568909e+02	-2.211162e+01
1.577971e+02	-2.216046e+01
1.587085e+02	-2.220919e+01
1.596252e+02	-2.226142e+01
1.605472e+02	-2.230819e+01
1.614745e+02	-2.235935e+01
1.624072e+02	-2.240768e+01
1.633453e+02	-2.245812e+01
1.642887e+02	-2.250874e+01
1.652377e+02	-2.255738e+01
1.661921e+02	-2.260715e+01
1.671520e+02	-2.265662e+01
1.681175e+02	-2.270816e+01
1.690885e+02	-2.275920e+01
1.700651e+02	-2.280917e+01
1.710474e+02	-2.285575e+01
1.720354e+02	-2.290674e+01
1.730291e+02	-2.295867e+01
1.740285e+02	-2.300836e+01
1.750337e+02	-2.305757e+01
1.760446e+02	-2.310633e+01
1.770615e+02	-2.315735e+01
1.780842e+02	-2.320615e+01
1.791128e+02	-2.325399e+01
1.801473e+02	-2.330374e+01
1.811878e+02	-2.335546e+01
1.822344e+02	-2.340748e+01
1.832870e+02	-2.345402e+01
1.843456e+02	-2.350478e+01
1.854104e+02	-2.355554e+01
1.864813e+02	-2.360443e+01
1.875584e+02	-2.365109e+01
1.886418e+02	-2.370378e+01
1.897313e+02	-2.375418e+01
1.908272e+02	-2.380408e+01
1.919294e+02	-2.385377e+01
1.930380e+02	-2.390127e+01
1.941530e+02	-2.395140e+01
1.952744e+02	-2.400297e+01
1.964023e+02	-2.405305e+01
1.975367e+02	-2.410174e+01
1.986777e+02	-2.415540e+01
1.998252e+02	-2.420111e+01
2.009794e+02	-2.425432e+01
2.021403e+02	-2.430463e+01
2.033078e+02	-2.435226e+01
2.044821e+02	-2.440171e+01
2.056632e+02	-2.445232e+01
2.068511e+02	-2.450191e+01
2.080459e+02	-2.455361e+01
2.092475e+02	-2.460385e+01
2.104561e+02	-2.465085e+01
2.116717e+02	-2.469971e+01
2.128943e+02	-2.475062e+01
2.141240e+02	-2.480311e+01
2.153608e+02	-2.484893e+01
2.166047e+02	-2.490119e+01
2.178558e+02	-2.495124e+01
2.191141e+02	-2.500097e+01
2.203797e+02	-2.504938e+01
2.216526e+02	-2.510124e+01
2.229329e+02	-2.515148e+01
2.242205e+02	-2.520101e+01
2.255156e+02	-2.524936e+01
2.268182e+02	-2.529936e+01
2.281283e+02	-2.534894e+01
2.294459e+02	-2.539831e+01
2.307712e+02	-2.545013e+01
2.321041e+02	-2.550074e+01
2.334447e+02	-2.554786e+01
2.347931e+02	-2.560093e+01
2.361493e+02	-2.564855e+01
2.375133e+02	-2.570234e+01
2.388851e+02	-2.575259e+01
2.402649e+02	-2.580100e+01
2.416527e+02	-2.584736e+01
2.430484e+02	-2.590009e+01
2.444523e+02	-2.594942e+01
2.458642e+02	-2.599914e+01
2.472843e+02	-2.605131e+01
2.487126e+02	-2.609922e+01
2.501492e+02	-2.614633e+01
2.515940e+02	-2.620156e+01
2.530472e+02	-2.625051e+01
2.545088e+02	-2.629906e+01
2.559789e+02	-2.634863e+01
2.574574e+02	-2.640246e+01
2.589444e+02	-2.645156e+01
2.604401e+02	-2.650218e+01
2.619444e+02	-2.654683e+01
2.634574e+02	-2.660047e+01
2.649791e+02	-2.665123e+01
2.665096e+02	-2.669694e+01
2.680489e+02	-2.675379e+01
2.695972e+02	-2.679514e+01
2.711544e+02	-2.684933e+01
2.727205e+02	-2.689945e+01
2.742958e+02	-2.695129e+01
2.758801e+02	-2.699768e+01
2.774736e+02	-2.704829e+01
2.790762e+02	-2.709981e+01
2.806882e+02	-2.714501e+01
2.823094e+02	-2.719908e+01
2.839400e+02	-2.725050e+01
2.855800e+02	-2.729728e+01
2.872295e+02	-2.734700e+01
2.888886e+02	-2.739624e+01
2.905572e+02	-2.744886e+01
2.922354e+02	-2.750094e+01
2.939234e+02	-2.754737e+01
2.956211e+02	-2.759800e+01
2.973286e+02	-2.764306e+01
2.990459e+02	-2.769818e+01
3.007732e+02	-2.775124e+01
3.025104e+02	-2.779959e+01
3.042577e+02	-2.784745e+01
3.060151e+02	-2.789696e+01
3.077826e+02	-2.795118e+01
3.095604e+02	-2.800138e+01
3.113484e+02	-2.804590e+01
3.131467e+02	-2.810154e+01
3.149554e+02	-2.815150e+01
3.167746e+02	-2.819975e+01
3.186043e+02	-2.824581e+01
3.204445e+02	-2.829724e+01
3.222954e+02	-2.834991e+01
3.241570e+02	-2.840260e+01
3.260293e+02	-2.844794e+01
3.279124e+02	-2.849967e+01
3.298064e+02	-2.855239e+01
3.317114e+02	-2.859749e+01
3.336273e+02	-2.864789e+01
3.355544e+02	-2.870083e+01
3.374925e+02	-2.875130e+01
3.394418e+02	-2.879418e+01
3.414024e+02	-2.885208e+01
3.433744e+02	-2.889638e+01
3.453577e+02	-2.894910e+01
3.473525e+02	-2.900190e+01
3.493588e+02	-2.905088e+01
3.513766e+02	-2.909819e+01
3.534062e+02	-2.914715e+01
3.554474e+02	-2.919947e+01
3.575005e+02	-2.925175e+01
3.595654e+02	-2.930163e+01
3.616422e+02	-2.934916e+01
3.637311e+02	-2.939626e+01
3.658320e+02	-2.945291e+01
3.679450e+02	-2.950017e+01
3.700702e+02	-2.955010e+01
3.722077e+02	-2.960125e+01
3.743576e+02	-2.964932e+01
3.765199e+02	-2.969998e+01
3.786946e+02	-2.975016e+01
3.808820e+02	-2.980121e+01
3.830819e+02	-2.984910e+01
3.852946e+02	-2.990093e+01
3.875200e+02	-2.995399e+01
3.897583e+02	-3.000426e+01
3.920096e+02	-3.005261e+01
3.942738e+02	-3.010138e+01
3.965511e+02	-3.015306e+01
3.988416e+02	-3.019601e+01
4.011452e+02	-3.025100e+01
4.034622e+02	-3.030124e+01
4.057926e+02	-3.034665e+01
4.081365e+02	-3.040386e+01
4.104938e+02	-3.045074e+01
4.128648e+02	-3.050625e+01
4.152495e+02	-3.055346e+01
4.176480e+02	-3.060393e+01
4.200603e+02	-3.065260e+01
4.224866e+02	-3.070402e+01
4.249268e+02	-3.075355e+01
4.273812e+02	-3.080222e+01
4.298497e+02	-3.084895e+01
4.323325e+02	-3.090370e+01
4.348297e+02	-3.094990e+01
4.373412e+02	-3.100494e+01
4.398673e+02	-3.105570e+01
4.424079e+02	-3.111067e+01
4.449633e+02	-3.115793e+01
4.475334e+02	-3.120221e+01
4.501183e+02	-3.125390e+01
4.527182e+02	-3.129893e+01
4.553330e+02	-3.136426e+01
4.579630e+02	-3.140153e+01
4.606082e+02	-3.145512e+01
4.632687e+02	-3.150654e+01
4.659445e+02	-3.155813e+01
4.686358e+02	-3.160810e+01
4.713426e+02	-3.165741e+01
4.740650e+02	-3.170329e+01
4.768032e+02	-3.175722e+01
4.795572e+02	-3.180782e+01
4.823271e+02	-3.185689e+01
4.851130e+02	-3.190658e+01
4.879150e+02	-3.195408e+01
4.907332e+02	-3.201133e+01
4.935676e+02	-3.205830e+01
4.964185e+02	-3.210406e+01
4.992858e+02	-3.216378e+01
5.021696e+02	-3.220146e+01
5.050701e+02	-3.226521e+01
5.079874e+02	-3.231051e+01
5.109215e+02	-3.236119e+01
5.138726e+02	-3.241360e+01
5.168407e+02	-3.245219e+01
5.198259e+02	-3.250637e+01
5.228284e+02	-3.255159e+01
5.258482e+02	-3.260655e+01
5.288855e+02	-3.265302e+01
5.319403e+02	-3.271441e+01
5.350128e+02	-3.276603e+01
5.381030e+02	-3.281256e+01
5.412111e+02	-3.286351e+01
5.443371e+02	-3.291494e+01
5.474812e+02	-3.295361e+01
5.506434e+02	-3.301171e+01
5.538239e+02	-3.305685e+01
5.570228e+02	-3.311446e+01
5.602401e+02	-3.316094e+01
5.634760e+02	-3.322014e+01
5.667306e+02	-3.326679e+01
5.700040e+02	-3.331185e+01
5.732964e+02	-3.336250e+01
5.766077e+02	-3.341275e+01
5.799382e+02	-3.345547e+01
5.832879e+02	-3.351357e+01
5.866569e+02	-3.356166e+01
5.900454e+02	-3.360470e+01
5.934535e+02	-3.366889e+01
5.968813e+02	-3.371721e+01
6.003288e+02	-3.376050e+01
6.037963e+02	-3.381953e+01
6.072838e+02	-3.385773e+01
6.107914e+02	-3.391790e+01
6.143194e+02	-3.396456e+01
6.178676e+02	-3.401589e+01
6.214364e+02	-3.406596e+01
6.250258e+02	-3.411466e+01
6.286359e+02	-3.417103e+01
6.322669e+02	-3.421953e+01
6.359189e+02	-3.426953e+01
6.395919e+02	-3.431679e+01
6.432862e+02	-3.436979e+01
6.470017e+02	-3.442211e+01
6.507388e+02	-3.446828e+01
6.544974e+02	-3.453353e+01
6.582778e+02	-3.456762e+01
6.620800e+02	-3.462665e+01
6.659041e+02	-3.466918e+01
6.697504e+02	-3.472719e+01
6.736188e+02	-3.476986e+01
6.775096e+02	-3.482401e+01
6.814229e+02	-3.486794e+01
6.853587e+02	-3.493336e+01
6.893173e+02	-3.497400e+01
6.932988e+02	-3.503487e+01
6.973033e+02	-3.506970e+01
7.013309e+02	-3.513728e+01
