Frequency(Hz)	Magnitude(dB)
1.000000e+01	-2.093648e+00
1.005776e+01	-2.113007e+00
1.011585e+01	-2.132303e+00
1.017428e+01	-2.151803e+00
1.023305e+01	-2.171230e+00
1.029215e+01	-2.191173e+00
1.035160e+01	-2.210758e+00
1.041139e+01	-2.231174e+00
1.047153e+01	-2.251209e+00
1.053201e+01	-2.271569e+00
1.059284e+01	-2.292028e+00
1.065403e+01	-2.312684e+00
1.071556e+01	-2.333064e+00
1.077746e+01	-2.354174e+00
1.083971e+01	-2.374971e+00
1.090232e+01	-2.396089e+00
1.096529e+01	-2.417697e+00
1.102862e+01	-2.438939e+00
1.109232e+01	-2.460611e+00
1.115639e+01	-2.482521e+00
1.122083e+01	-2.504078e+00
1.128564e+01	-2.525933e+00
1.135083e+01	-2.548358e+00
1.141639e+01	-2.570540e+00
1.148233e+01	-2.593038e+00
1.154865e+01	-2.615444e+00
1.161536e+01	-2.638066e+00
1.168245e+01	-2.660994e+00
1.174992e+01	-2.684104e+00
1.181779e+01	-2.707137e+00
1.188605e+01	-2.730241e+00
1.195470e+01	-2.753785e+00
1.202375e+01	-2.777439e+00
1.209320e+01	-2.801070e+00
1.216305e+01	-2.825068e+00
1.223330e+01	-2.849059e+00
1.230396e+01	-2.873154e+00
1.237503e+01	-2.897263e+00
1.244651e+01	-2.921900e+00
1.251840e+01	-2.946433e+00
1.259070e+01	-2.971063e+00
1.266343e+01	-2.996079e+00
1.273657e+01	-3.020954e+00
1.281014e+01	-3.046097e+00
1.288413e+01	-3.071141e+00
1.295855e+01	-3.097067e+00
1.303339e+01	-3.122374e+00
1.310867e+01	-3.148127e+00
1.318439e+01	-3.173889e+00
1.326054e+01	-3.199955e+00
1.333713e+01	-3.226137e+00
1.341417e+01	-3.252567e+00
1.349165e+01	-3.278918e+00
1.356958e+01	-3.305607e+00
1.364795e+01	-3.331953e+00
1.372678e+01	-3.358828e+00
1.380607e+01	-3.386042e+00
1.388581e+01	-3.413532e+00
1.396602e+01	-3.440468e+00
1.404668e+01	-3.468102e+00
1.412782e+01	-3.495546e+00
1.420942e+01	-3.523406e+00
1.429149e+01	-3.551313e+00
1.437404e+01	-3.579155e+00
1.445706e+01	-3.607337e+00
1.454057e+01	-3.635655e+00
1.462455e+01	-3.664159e+00
1.470902e+01	-3.692831e+00
1.479398e+01	-3.721383e+00
1.487943e+01	-3.750448e+00
1.496537e+01	-3.779268e+00
1.505181e+01	-3.808391e+00
1.513875e+01	-3.837671e+00
1.522619e+01	-3.866848e+00
1.531414e+01	-3.896917e+00
1.540259e+01	-3.926300e+00
1.549156e+01	-3.956185e+00
1.558103e+01	-3.986333e+00
1.567103e+01	-4.015993e+00
1.576155e+01	-4.046383e+00
1.585258e+01	-4.076894e+00
1.594415e+01	-4.107549e+00
1.603624e+01	-4.138192e+00
1.612886e+01	-4.168841e+00
1.622202e+01	-4.199983e+00
1.631572e+01	-4.230838e+00
1.640996e+01	-4.262120e+00
1.650474e+01	-4.293766e+00
1.660008e+01	-4.324701e+00
1.669596e+01	-4.356491e+00
1.679239e+01	-4.388265e+00
1.688938e+01	-4.420203e+00
1.698694e+01	-4.452401e+00
1.708505e+01	-4.484487e+00
1.718373e+01	-4.516421e+00
1.728299e+01	-4.549046e+00
1.738281e+01	-4.581674e+00
1.748322e+01	-4.614380e+00
1.758420e+01	-4.646786e+00
1.768576e+01	-4.679930e+00
1.778792e+01	-4.712939e+00
1.789066e+01	-4.746604e+00
1.799399e+01	-4.779748e+00
1.809793e+01	-4.812829e+00
1.820246e+01	-4.846511e+00
1.830760e+01	-4.880242e+00
1.841334e+01	-4.914040e+00
1.851969e+01	-4.948193e+00
1.862666e+01	-4.982148e+00
1.873425e+01	-5.016463e+00
1.884246e+01	-5.050577e+00
1.895129e+01	-5.085254e+00
1.906075e+01	-5.119492e+00
1.917085e+01	-5.154306e+00
1.928158e+01	-5.189266e+00
1.939295e+01	-5.224144e+00
1.950496e+01	-5.259292e+00
1.961762e+01	-5.294230e+00
1.973093e+01	-5.329864e+00
1.984490e+01	-5.365154e+00
1.995952e+01	-5.400603e+00
2.007480e+01	-5.436379e+00
2.019076e+01	-5.472207e+00
2.030738e+01	-5.508069e+00
2.042467e+01	-5.543816e+00
2.054264e+01	-5.579919e+00
2.066130e+01	-5.616457e+00
2.078064e+01	-5.652741e+00
2.090066e+01	-5.689253e+00
2.102139e+01	-5.725728e+00
2.114280e+01	-5.762693e+00
2.126492e+01	-5.799453e+00
2.138775e+01	-5.836333e+00
2.151128e+01	-5.873273e+00
2.163553e+01	-5.910160e+00
2.176050e+01	-5.947685e+00
2.188619e+01	-5.985311e+00
2.201260e+01	-6.022246e+00
2.213974e+01	-6.060107e+00
2.226762e+01	-6.097675e+00
2.239624e+01	-6.135591e+00
2.252560e+01	-6.173543e+00
2.265571e+01	-6.211204e+00
2.278656e+01	-6.249459e+00
2.291818e+01	-6.287531e+00
2.305055e+01	-6.326070e+00
2.318369e+01	-6.364586e+00
2.331760e+01	-6.402870e+00
2.345228e+01	-6.441480e+00
2.358774e+01	-6.480195e+00
2.372398e+01	-6.519352e+00
2.386101e+01	-6.557990e+00
2.399883e+01	-6.597029e+00
2.413745e+01	-6.636146e+00
2.427686e+01	-6.675496e+00
2.441709e+01	-6.714598e+00
2.455812e+01	-6.754003e+00
2.469997e+01	-6.793631e+00
2.484263e+01	-6.833500e+00
2.498612e+01	-6.873148e+00
2.513044e+01	-6.912762e+00
2.527559e+01	-6.952568e+00
2.542158e+01	-6.992647e+00
2.556842e+01	-7.032761e+00
2.571610e+01	-7.073057e+00
2.586463e+01	-7.113143e+00
2.601403e+01	-7.153275e+00
2.616428e+01	-7.193783e+00
2.631541e+01	-7.234744e+00
2.646740e+01	-7.275175e+00
2.662028e+01	-7.315652e+00
2.677404e+01	-7.356469e+00
2.692868e+01	-7.397385e+00
2.708422e+01	-7.438603e+00
2.724066e+01	-7.479235e+00
2.739800e+01	-7.520456e+00
2.755625e+01	-7.562049e+00
2.771541e+01	-7.603072e+00
2.787550e+01	-7.644623e+00
2.803650e+01	-7.686109e+00
2.819844e+01	-7.727633e+00
2.836131e+01	-7.768806e+00
2.852513e+01	-7.810610e+00
2.868989e+01	-7.852769e+00
2.885560e+01	-7.894639e+00
2.902227e+01	-7.936427e+00
2.918990e+01	-7.978738e+00
2.935850e+01	-8.020761e+00
2.952807e+01	-8.062475e+00
2.969863e+01	-8.104844e+00
2.987016e+01	-8.147048e+00
3.004269e+01	-8.189301e+00
3.021622e+01	-8.232411e+00
3.039075e+01	-8.274463e+00
3.056628e+01	-8.317019e+00
3.074283e+01	-8.359989e+00
3.092040e+01	-8.402764e+00
3.109900e+01	-8.445347e+00
3.127862e+01	-8.488259e+00
3.145929e+01	-8.531660e+00
3.164099e+01	-8.574456e+00
3.182375e+01	-8.617689e+00
3.200756e+01	-8.660847e+00
3.219244e+01	-8.704611e+00
3.237838e+01	-8.747423e+00
3.256540e+01	-8.790816e+00
3.275349e+01	-8.834675e+00
3.294268e+01	-8.878091e+00
3.313295e+01	-8.921689e+00
3.332433e+01	-8.964640e+00
3.351681e+01	-9.008920e+00
3.371040e+01	-9.052422e+00
3.390511e+01	-9.096289e+00
3.410094e+01	-9.139416e+00
3.429791e+01	-9.184550e+00
3.449601e+01	-9.228363e+00
3.469526e+01	-9.271709e+00
3.489566e+01	-9.316224e+00
3.509721e+01	-9.360643e+00
3.529993e+01	-9.404614e+00
3.550382e+01	-9.448799e+00
3.570889e+01	-9.494118e+00
3.591515e+01	-9.537737e+00
3.612259e+01	-9.582893e+00
3.633123e+01	-9.627314e+00
3.654108e+01	-9.671641e+00
3.675214e+01	-9.716088e+00
3.696442e+01	-9.760944e+00
3.717792e+01	-9.805781e+00
3.739266e+01	-9.850535e+00
3.760864e+01	-9.895782e+00
3.782587e+01	-9.940782e+00
3.804435e+01	-9.985360e+00
3.826409e+01	-1.003015e+01
3.848510e+01	-1.007574e+01
3.870739e+01	-1.012091e+01
3.893096e+01	-1.016596e+01
3.915583e+01	-1.021094e+01
3.938199e+01	-1.025623e+01
3.960946e+01	-1.030161e+01
3.983824e+01	-1.034755e+01
4.006834e+01	-1.039245e+01
4.029978e+01	-1.043761e+01
4.053255e+01	-1.048379e+01
4.076666e+01	-1.052904e+01
4.100213e+01	-1.057441e+01
4.123896e+01	-1.062003e+01
4.147715e+01	-1.066559e+01
4.171672e+01	-1.071176e+01
4.195767e+01	-1.075765e+01
4.220002e+01	-1.080352e+01
4.244377e+01	-1.084901e+01
4.268892e+01	-1.089480e+01
4.293549e+01	-1.094171e+01
4.318348e+01	-1.098733e+01
4.343291e+01	-1.103313e+01
4.368377e+01	-1.107995e+01
4.393609e+01	-1.112598e+01
4.418986e+01	-1.117214e+01
4.444510e+01	-1.121823e+01
4.470182e+01	-1.126380e+01
4.496001e+01	-1.131070e+01
4.521970e+01	-1.135679e+01
4.548089e+01	-1.140315e+01
4.574358e+01	-1.144936e+01
4.600779e+01	-1.149594e+01
4.627353e+01	-1.154252e+01
4.654081e+01	-1.158948e+01
4.680963e+01	-1.163583e+01
4.708000e+01	-1.168219e+01
4.735193e+01	-1.172930e+01
4.762543e+01	-1.177531e+01
4.790051e+01	-1.182238e+01
4.817719e+01	-1.186943e+01
4.845545e+01	-1.191622e+01
4.873533e+01	-1.196257e+01
4.901682e+01	-1.200915e+01
4.929994e+01	-1.205641e+01
4.958470e+01	-1.210389e+01
4.987110e+01	-1.215104e+01
5.015915e+01	-1.219751e+01
5.044887e+01	-1.224458e+01
5.074026e+01	-1.229096e+01
5.103333e+01	-1.233838e+01
5.132810e+01	-1.238557e+01
5.162457e+01	-1.243273e+01
5.192275e+01	-1.247990e+01
5.222265e+01	-1.252777e+01
5.252429e+01	-1.257522e+01
5.282767e+01	-1.262179e+01
5.313280e+01	-1.266920e+01
5.343969e+01	-1.271699e+01
5.374836e+01	-1.276424e+01
5.405880e+01	-1.281176e+01
5.437105e+01	-1.285936e+01
5.468509e+01	-1.290618e+01
5.500095e+01	-1.295371e+01
5.531863e+01	-1.300118e+01
5.563815e+01	-1.304823e+01
5.595951e+01	-1.309702e+01
5.628273e+01	-1.314405e+01
5.660782e+01	-1.319112e+01
5.693479e+01	-1.323816e+01
5.726364e+01	-1.328626e+01
5.759439e+01	-1.333424e+01
5.792705e+01	-1.338198e+01
5.826164e+01	-1.343006e+01
5.859815e+01	-1.347743e+01
5.893662e+01	-1.352528e+01
5.927703e+01	-1.357372e+01
5.961941e+01	-1.362100e+01
5.996377e+01	-1.366945e+01
6.031012e+01	-1.371660e+01
6.065847e+01	-1.376513e+01
6.100883e+01	-1.381267e+01
6.136121e+01	-1.386088e+01
6.171563e+01	-1.390905e+01
6.207210e+01	-1.395641e+01
6.243063e+01	-1.400482e+01
6.279122e+01	-1.405238e+01
6.315390e+01	-1.410036e+01
6.351868e+01	-1.414803e+01
6.388556e+01	-1.419784e+01
6.425456e+01	-1.424456e+01
6.462569e+01	-1.429321e+01
6.499897e+01	-1.434178e+01
6.537440e+01	-1.438984e+01
6.575200e+01	-1.443761e+01
6.613178e+01	-1.448539e+01
6.651375e+01	-1.453446e+01
6.689793e+01	-1.458206e+01
6.728433e+01	-1.463051e+01
6.767297e+01	-1.467861e+01
6.806384e+01	-1.472818e+01
6.845698e+01	-1.477521e+01
6.885238e+01	-1.482414e+01
6.925007e+01	-1.487313e+01
6.965005e+01	-1.492064e+01
7.005235e+01	-1.496893e+01
7.045697e+01	-1.501845e+01
7.086393e+01	-1.506685e+01
7.127323e+01	-1.511510e+01
7.168490e+01	-1.516358e+01
7.209895e+01	-1.521258e+01
7.251539e+01	-1.526046e+01
7.293424e+01	-1.530903e+01
7.335551e+01	-1.535829e+01
7.377920e+01	-1.540613e+01
7.420535e+01	-1.545509e+01
7.463396e+01	-1.550255e+01
7.506504e+01	-1.555122e+01
7.549861e+01	-1.559961e+01
7.593469e+01	-1.564979e+01
7.637328e+01	-1.569785e+01
7.681441e+01	-1.574619e+01
7.725809e+01	-1.579429e+01
7.770433e+01	-1.584509e+01
7.815315e+01	-1.589279e+01
7.860456e+01	-1.594154e+01
7.905857e+01	-1.599040e+01
7.951521e+01	-1.603744e+01
7.997449e+01	-1.608738e+01
8.043642e+01	-1.613634e+01
8.090102e+01	-1.618491e+01
8.136830e+01	-1.623539e+01
8.183828e+01	-1.628222e+01
8.231097e+01	-1.633161e+01
8.278640e+01	-1.638141e+01
8.326457e+01	-1.642990e+01
8.374550e+01	-1.647935e+01
8.422921e+01	-1.652813e+01
8.471572e+01	-1.657753e+01
8.520503e+01	-1.662543e+01
8.569717e+01	-1.667386e+01
8.619215e+01	-1.672367e+01
8.669000e+01	-1.677221e+01
8.719071e+01	-1.682181e+01
8.769432e+01	-1.687092e+01
8.820084e+01	-1.691946e+01
8.871029e+01	-1.696849e+01
8.922267e+01	-1.701817e+01
8.973802e+01	-1.706741e+01
9.025634e+01	-1.711528e+01
9.077766e+01	-1.716498e+01
9.130199e+01	-1.721400e+01
9.182935e+01	-1.726298e+01
9.235975e+01	-1.731158e+01
9.289321e+01	-1.736130e+01
9.342976e+01	-1.741037e+01
9.396941e+01	-1.745968e+01
9.451217e+01	-1.750880e+01
9.505807e+01	-1.755835e+01
9.560712e+01	-1.760713e+01
9.615934e+01	-1.765615e+01
9.671476e+01	-1.770394e+01
9.727338e+01	-1.775364e+01
9.783522e+01	-1.780292e+01
9.840032e+01	-1.785278e+01
9.896867e+01	-1.790106e+01
9.954031e+01	-1.795094e+01
1.001153e+02	-1.800068e+01
1.006935e+02	-1.804867e+01
1.012751e+02	-1.809914e+01
1.018601e+02	-1.814864e+01
1.024484e+02	-1.819581e+01
1.030402e+02	-1.824536e+01
1.036353e+02	-1.829460e+01
1.042339e+02	-1.834608e+01
1.048360e+02	-1.839443e+01
1.054415e+02	-1.844573e+01
1.060505e+02	-1.849319e+01
1.066631e+02	-1.854294e+01
1.072791e+02	-1.859149e+01
1.078988e+02	-1.864051e+01
1.085220e+02	-1.868971e+01
1.091488e+02	-1.873919e+01
1.097793e+02	-1.878990e+01
1.104133e+02	-1.883769e+01
1.110511e+02	-1.888771e+01
1.116925e+02	-1.893721e+01
1.123376e+02	-1.898673e+01
1.129865e+02	-1.903566e+01
1.136391e+02	-1.908661e+01
1.142955e+02	-1.913611e+01
1.149556e+02	-1.918483e+01
1.156196e+02	-1.923421e+01
1.162874e+02	-1.928384e+01
1.169591e+02	-1.933284e+01
1.176347e+02	-1.938058e+01
1.183141e+02	-1.943145e+01
1.189975e+02	-1.948091e+01
1.196848e+02	-1.953023e+01
1.203761e+02	-1.958068e+01
1.210714e+02	-1.962931e+01
1.217707e+02	-1.967879e+01
1.224740e+02	-1.972855e+01
1.231814e+02	-1.977809e+01
1.238929e+02	-1.982753e+01
1.246085e+02	-1.987655e+01
1.253283e+02	-1.992679e+01
1.260522e+02	-1.997623e+01
1.267802e+02	-2.002693e+01
1.275125e+02	-2.007616e+01
1.282490e+02	-2.012507e+01
1.289898e+02	-2.017410e+01
1.297348e+02	-2.022432e+01
1.304842e+02	-2.027550e+01
1.312378e+02	-2.032357e+01
1.319959e+02	-2.037299e+01
1.327583e+02	-2.042470e+01
1.335251e+02	-2.047190e+01
1.342963e+02	-2.052167e+01
1.350720e+02	-2.057243e+01
1.358522e+02	-2.061905e+01
1.366368e+02	-2.067223e+01
1.374260e+02	-2.072060e+01
1.382198e+02	-2.077038e+01
1.390182e+02	-2.082090e+01
1.398211e+02	-2.086929e+01
1.406287e+02	-2.091897e+01
1.414410e+02	-2.096782e+01
1.422579e+02	-2.101738e+01
1.430796e+02	-2.106608e+01
1.439060e+02	-2.111660e+01
1.447372e+02	-2.116679e+01
1.455732e+02	-2.121689e+01
1.464141e+02	-2.126725e+01
1.472597e+02	-2.131425e+01
1.481103e+02	-2.136532e+01
1.489658e+02	-2.141534e+01
1.498262e+02	-2.146305e+01
1.506916e+02	-2.151555e+01
1.515620e+02	-2.156550e+01
1.524374e+02	-2.161503e+01
1.533179e+02	-2.166460e+01
1.542034e+02	-2.171112e+01
1.550941e+02	-2.176230e+01
1.559899e+02	-2.181134e+01
1.568909e+02	-2.186249e+01
1.577971e+02	-2.191303e+01
1.587085e+02	-2.196179e+01
1.596252e+02	-2.201251e+01
1.605472e+02	-2.206363e+01
1.614745e+02	-2.211232e+01
1.624072e+02	-2.215925e+01
1.633453e+02	-2.221069e+01
1.642887e+02	-2.226276e+01
1.652377e+02	-2.231217e+01
1.661921e+02	-2.235878e+01
1.671520e+02	-2.240997e+01
1.681175e+02	-2.245996e+01
1.690885e+02	-2.250872e+01
1.700651e+02	-2.255890e+01
1.710474e+02	-2.260612e+01
1.720354e+02	-2.265890e+01
1.730291e+02	-2.270839e+01
1.740285e+02	-2.275816e+01
1.750337e+02	-2.280820e+01
1.760446e+02	-2.285725e+01
1.770615e+02	-2.290670e+01
1.780842e+02	-2.295745e+01
1.791128e+02	-2.300604e+01
1.801473e+02	-2.305478e+01
1.811878e+02	-2.310491e+01
1.822344e+02	-2.315667e+01
1.832870e+02	-2.320791e+01
1.843456e+02	-2.325563e+01
1.854104e+02	-2.330574e+01
1.864813e+02	-2.335631e+01
1.875584e+02	-2.340275e+01
1.886418e+02	-2.345626e+01
1.897313e+02	-2.350630e+01
1.908272e+02	-2.355374e+01
1.919294e+02	-2.360561e+01
1.930380e+02	-2.365457e+01
1.941530e+02	-2.370311e+01
1.952744e+02	-2.375381e+01
1.964023e+02	-2.380308e+01
1.975367e+02	-2.385411e+01
1.986777e+02	-2.390422e+01
1.998252e+02	-2.395421e+01
2.009794e+02	-2.400226e+01
2.021403e+02	-2.405449e+01
2.033078e+02	-2.410376e+01
2.044821e+02	-2.415602e+01
2.056632e+02	-2.420232e+01
2.068511e+02	-2.425173e+01
2.080459e+02	-2.430273e+01
2.092475e+02	-2.435197e+01
2.104561e+02	-2.440344e+01
2.116717e+02	-2.444996e+01
2.128943e+02	-2.450180e+01
2.141240e+02	-2.455097e+01
2.153608e+02	-2.460423e+01
2.166047e+02	-2.465197e+01
2.178558e+02	-2.470157e+01
2.191141e+02	-2.475228e+01
2.203797e+02	-2.480283e+01
2.216526e+02	-2.485225e+01
2.229329e+02	-2.490091e+01
2.242205e+02	-2.495292e+01
2.255156e+02	-2.500170e+01
2.268182e+02	-2.504967e+01
2.281283e+02	-2.510050e+01
2.294459e+02	-2.515027e+01
2.307712e+02	-2.520178e+01
2.321041e+02	-2.524880e+01
2.334447e+02	-2.530213e+01
2.347931e+02	-2.535132e+01
2.361493e+02	-2.540156e+01
2.375133e+02	-2.545079e+01
2.388851e+02	-2.549932e+01
2.402649e+02	-2.555037e+01
2.416527e+02	-2.559885e+01
2.430484e+02	-2.564755e+01
2.444523e+02	-2.569980e+01
2.458642e+02	-2.575182e+01
2.472843e+02	-2.579869e+01
2.487126e+02	-2.584915e+01
2.501492e+02	-2.590072e+01
2.515940e+02	-2.594906e+01
2.530472e+02	-2.599970e+01
2.545088e+02	-2.604695e+01
2.559789e+02	-2.609892e+01
2.574574e+02	-2.614869e+01
2.589444e+02	-2.619902e+01
2.604401e+02	-2.624858e+01
2.619444e+02	-2.630008e+01
2.634574e+02	-2.634748e+01
2.649791e+02	-2.639849e+01
2.665096e+02	-2.644936e+01
2.680489e+02	-2.649864e+01
2.695972e+02	-2.654964e+01
2.711544e+02	-2.659877e+01
2.727205e+02	-2.664841e+01
2.742958e+02	-2.669949e+01
2.758801e+02	-2.674650e+01
2.774736e+02	-2.679872e+01
2.790762e+02	-2.684723e+01
2.806882e+02	-2.690111e+01
2.823094e+02	-2.695041e+01
2.839400e+02	-2.699877e+01
2.855800e+02	-2.704852e+01
2.872295e+02	-2.710213e+01
2.888886e+02	-2.714731e+01
2.905572e+02	-2.719983e+01
2.922354e+02	-2.725265e+01
2.939234e+02	-2.729603e+01
2.956211e+02	-2.734826e+01
2.973286e+02	-2.739602e+01
2.990459e+02	-2.744868e+01
3.007732e+02	-2.749955e+01
3.025104e+02	-2.754718e+01
3.042577e+02	-2.760020e+01
3.060151e+02	-2.764896e+01
3.077826e+02	-2.769570e+01
3.095604e+02	-2.775024e+01
3.113484e+02	-2.779919e+01
3.131467e+02	-2.784875e+01
3.149554e+02	-2.790015e+01
3.167746e+02	-2.795205e+01
3.186043e+02	-2.799903e+01
3.204445e+02	-2.805413e+01
3.222954e+02	-2.809452e+01
3.241570e+02	-2.814936e+01
3.260293e+02	-2.819900e+01
3.279124e+02	-2.825005e+01
3.298064e+02	-2.829676e+01
3.317114e+02	-2.834870e+01
3.336273e+02	-2.840030e+01
3.355544e+02	-2.845415e+01
3.374925e+02	-2.850117e+01
3.394418e+02	-2.855069e+01
3.414024e+02	-2.859787e+01
3.433744e+02	-2.864751e+01
3.453577e+02	-2.870142e+01
3.473525e+02	-2.874980e+01
3.493588e+02	-2.880136e+01
3.513766e+02	-2.884985e+01
3.534062e+02	-2.889555e+01
3.554474e+02	-2.894997e+01
3.575005e+02	-2.900364e+01
3.595654e+02	-2.905218e+01
3.616422e+02	-2.910125e+01
3.637311e+02	-2.915081e+01
3.658320e+02	-2.919554e+01
3.679450e+02	-2.924935e+01
3.700702e+02	-2.930169e+01
3.722077e+02	-2.935386e+01
3.743576e+02	-2.939780e+01
3.765199e+02	-2.945087e+01
3.786946e+02	-2.949700e+01
3.808820e+02	-2.955027e+01
3.830819e+02	-2.960072e+01
3.852946e+02	-2.964951e+01
3.875200e+02	-2.969831e+01
3.897583e+02	-2.975270e+01
3.920096e+02	-2.980310e+01
3.942738e+02	-2.985118e+01
3.965511e+02	-2.989957e+01
3.988416e+02	-2.994892e+01
4.011452e+02	-3.000247e+01
4.034622e+02	-3.005120e+01
4.057926e+02	-3.009992e+01
4.081365e+02	-3.015328e+01
4.104938e+02	-3.020150e+01
4.128648e+02	-3.024983e+01
4.152495e+02	-3.029867e+01
4.176480e+02	-3.035582e+01
4.200603e+02	-3.039809e+01
4.224866e+02	-3.045113e+01
4.249268e+02	-3.050042e+01
4.273812e+02	-3.056068e+01
4.298497e+02	-3.060040e+01
4.323325e+02	-3.065332e+01
4.348297e+02	-3.070146e+01
4.373412e+02	-3.075384e+01
4.398673e+02	-3.079875e+01
4.424079e+02	-3.085040e+01
4.449633e+02	-3.090456e+01
4.475334e+02	-3.095660e+01
4.501183e+02	-3.099974e+01
4.527182e+02	-3.105765e+01
4.553330e+02	-3.109801e+01
4.579630e+02	-3.116054e+01
4.606082e+02	-3.120237e+01
4.632687e+02	-3.126061e+01
4.659445e+02	-3.129876e+01
4.686358e+02	-3.135350e+01
4.713426e+02	-3.140525e+01
4.740650e+02	-3.145326e+01
4.768032e+02	-3.151038e+01
4.795572e+02	-3.155325e+01
4.823271e+02	-3.160664e+01
4.851130e+02	-3.165737e+01
4.879150e+02	-3.171082e+01
4.907332e+02	-3.176218e+01
4.935676e+02	-3.180983e+01
4.964185e+02	-3.185649e+01
4.992858e+02	-3.190656e+01
5.021696e+02	-3.195639e+01
5.050701e+02	-3.200739e+01
5.079874e+02	-3.205595e+01
5.109215e+02	-3.210798e+01
5.138726e+02	-3.216101e+01
5.168407e+02	-3.220533e+01
5.198259e+02	-3.225165e+01
5.228284e+02	-3.231360e+01
5.258482e+02	-3.235787e+01
5.288855e+02	-3.240935e+01
5.319403e+02	-3.246296e+01
5.350128e+02	-3.250792e+01
5.381030e+02	-3.255675e+01
5.412111e+02	-3.260858e+01
5.443371e+02	-3.266457e+01
5.474812e+02	-3.270793e+01
5.506434e+02	-3.276276e+01
5.538239e+02	-3.280896e+01
5.570228e+02	-3.285874e+01
5.602401e+02	-3.291168e+01
5.634760e+02	-3.296481e+01
5.667306e+02	-3.301509e+01
5.700040e+02	-3.305826e+01
5.732964e+02	-3.311137e+01
5.766077e+02	-3.317109e+01
5.799382e+02	-3.321649e+01
5.832879e+02	-3.326213e+01
5.866569e+02	-3.330940e+01
5.900454e+02	-3.336501e+01
5.934535e+02	-3.341096e+01
5.968813e+02	-3.346421e+01
6.003288e+02	-3.351246e+01
6.037963e+02	-3.357178e+01
6.072838e+02	-3.361840e+01
6.107914e+02	-3.366014e+01
6.143194e+02	-3.371648e+01
6.178676e+02	-3.376148e+01
6.214364e+02	-3.381999e+01
6.250258e+02	-3.386539e+01
6.286359e+02	-3.392260e+01
6.322669e+02	-3.395897e+01
6.359189e+02	-3.400946e+01
6.395919e+02	-3.406739e+01
6.432862e+02	-3.411893e+01
6.470017e+02	-3.417410e+01
6.507388e+02	-3.422770e+01
6.544974e+02	-3.427743e+01
6.582778e+02	-3.432318e+01
6.620800e+02	-3.437418e+01
6.659041e+02	-3.441356e+01
6.697504e+02	-3.447394e+01
6.736188e+02	-3.452535e+01
6.775096e+02	-3.456755e+01
6.814229e+02	-3.461421e+01
6.853587e+02	-3.467608e+01
6.893173e+02	-3.472243e+01
6.932988e+02	-3.476902e+01
6.973033e+02	-3.481964e+01
7.013309e+02	-3.487502e+01
