Frequency(Hz)	Magnitude(dB)
1.000000e+01	-2.475368e+00
1.005776e+01	-2.497332e+00
1.011585e+01	-2.519261e+00
1.017428e+01	-2.541267e+00
1.023305e+01	-2.563503e+00
1.029215e+01	-2.585866e+00
1.035160e+01	-2.608246e+00
1.041139e+01	-2.630883e+00
1.047153e+01	-2.653735e+00
1.053201e+01	-2.676879e+00
1.059284e+01	-2.699974e+00
1.065403e+01	-2.723074e+00
1.071556e+01	-2.746398e+00
1.077746e+01	-2.769952e+00
1.083971e+01	-2.793487e+00
1.090232e+01	-2.817192e+00
1.096529e+01	-2.841163e+00
1.102862e+01	-2.865413e+00
1.109232e+01	-2.889800e+00
1.115639e+01	-2.914033e+00
1.122083e+01	-2.938580e+00
1.128564e+01	-2.963442e+00
1.135083e+01	-2.988236e+00
1.141639e+01	-3.013234e+00
1.148233e+01	-3.038173e+00
1.154865e+01	-3.063292e+00
1.161536e+01	-3.088658e+00
1.168245e+01	-3.114251e+00
1.174992e+01	-3.139985e+00
1.181779e+01	-3.165741e+00
1.188605e+01	-3.191834e+00
1.195470e+01	-3.217856e+00
1.202375e+01	-3.244153e+00
1.209320e+01	-3.270723e+00
1.216305e+01	-3.296978e+00
1.223330e+01	-3.323648e+00
1.230396e+01	-3.350313e+00
1.237503e+01	-3.377380e+00
1.244651e+01	-3.404646e+00
1.251840e+01	-3.432114e+00
1.259070e+01	-3.459077e+00
1.266343e+01	-3.487085e+00
1.273657e+01	-3.514405e+00
1.281014e+01	-3.542281e+00
1.288413e+01	-3.570182e+00
1.295855e+01	-3.598404e+00
1.303339e+01	-3.626553e+00
1.310867e+01	-3.655159e+00
1.318439e+01	-3.683596e+00
1.326054e+01	-3.712476e+00
1.333713e+01	-3.741160e+00
1.341417e+01	-3.770364e+00
1.349165e+01	-3.799232e+00
1.356958e+01	-3.828681e+00
1.364795e+01	-3.857936e+00
1.372678e+01	-3.887428e+00
1.380607e+01	-3.916798e+00
1.388581e+01	-3.946676e+00
1.396602e+01	-3.976695e+00
1.404668e+01	-4.006990e+00
1.412782e+01	-4.037062e+00
1.420942e+01	-4.067207e+00
1.429149e+01	-4.097810e+00
1.437404e+01	-4.128124e+00
1.445706e+01	-4.158972e+00
1.454057e+01	-4.189922e+00
1.462455e+01	-4.221008e+00
1.470902e+01	-4.252174e+00
1.479398e+01	-4.283498e+00
1.487943e+01	-4.315011e+00
1.496537e+01	-4.346769e+00
1.505181e+01	-4.378174e+00
1.513875e+01	-4.410039e+00
1.522619e+01	-4.442193e+00
1.531414e+01	-4.474135e+00
1.540259e+01	-4.506567e+00
1.549156e+01	-4.538824e+00
1.558103e+01	-4.571189e+00
1.567103e+01	-4.603630e+00
1.576155e+01	-4.636569e+00
1.585258e+01	-4.669579e+00
1.594415e+01	-4.702394e+00
1.603624e+01	-4.735692e+00
1.612886e+01	-4.768988e+00
1.622202e+01	-4.802593e+00
1.631572e+01	-4.836448e+00
1.640996e+01	-4.869580e+00
1.650474e+01	-4.903478e+00
1.660008e+01	-4.937264e+00
1.669596e+01	-4.971393e+00
1.679239e+01	-5.005749e+00
1.688938e+01	-5.039671e+00
1.698694e+01	-5.074227e+00
1.708505e+01	-5.108865e+00
1.718373e+01	-5.143431e+00
1.728299e+01	-5.178192e+00
1.738281e+01	-5.212962e+00
1.748322e+01	-5.248265e+00
1.758420e+01	-5.283250e+00
1.768576e+01	-5.318154e+00
1.778792e+01	-5.354175e+00
1.789066e+01	-5.389390e+00
1.799399e+01	-5.424882e+00
1.809793e+01	-5.460831e+00
1.820246e+01	-5.496683e+00
1.830760e+01	-5.532687e+00
1.841334e+01	-5.568866e+00
1.851969e+01	-5.605070e+00
1.862666e+01	-5.641275e+00
1.873425e+01	-5.677759e+00
1.884246e+01	-5.714194e+00
1.895129e+01	-5.750820e+00
1.906075e+01	-5.787837e+00
1.917085e+01	-5.824580e+00
1.928158e+01	-5.861408e+00
1.939295e+01	-5.898720e+00
1.950496e+01	-5.935954e+00
1.961762e+01	-5.973370e+00
1.973093e+01	-6.010463e+00
1.984490e+01	-6.048659e+00
1.995952e+01	-6.085591e+00
2.007480e+01	-6.123618e+00
2.019076e+01	-6.161376e+00
2.030738e+01	-6.199293e+00
2.042467e+01	-6.237302e+00
2.054264e+01	-6.276217e+00
2.066130e+01	-6.314290e+00
2.078064e+01	-6.352418e+00
2.090066e+01	-6.391206e+00
2.102139e+01	-6.429455e+00
2.114280e+01	-6.468363e+00
2.126492e+01	-6.506874e+00
2.138775e+01	-6.545860e+00
2.151128e+01	-6.584606e+00
2.163553e+01	-6.623834e+00
2.176050e+01	-6.663057e+00
2.188619e+01	-6.702607e+00
2.201260e+01	-6.741610e+00
2.213974e+01	-6.781175e+00
2.226762e+01	-6.821060e+00
2.239624e+01	-6.860467e+00
2.252560e+01	-6.900051e+00
2.265571e+01	-6.940285e+00
2.278656e+01	-6.979930e+00
2.291818e+01	-7.019768e+00
2.305055e+01	-7.060107e+00
2.318369e+01	-7.100421e+00
2.331760e+01	-7.140967e+00
2.345228e+01	-7.181175e+00
2.358774e+01	-7.221832e+00
2.372398e+01	-7.262350e+00
2.386101e+01	-7.303026e+00
2.399883e+01	-7.343944e+00
2.413745e+01	-7.384493e+00
2.427686e+01	-7.425543e+00
2.441709e+01	-7.466944e+00
2.455812e+01	-7.507610e+00
2.469997e+01	-7.548586e+00
2.484263e+01	-7.590016e+00
2.498612e+01	-7.631811e+00
2.513044e+01	-7.672914e+00
2.527559e+01	-7.713993e+00
2.542158e+01	-7.756283e+00
2.556842e+01	-7.797672e+00
2.571610e+01	-7.839105e+00
2.586463e+01	-7.881246e+00
2.601403e+01	-7.923111e+00
2.616428e+01	-7.965129e+00
2.631541e+01	-8.007558e+00
2.646740e+01	-8.049657e+00
2.662028e+01	-8.091683e+00
2.677404e+01	-8.133871e+00
2.692868e+01	-8.176040e+00
2.708422e+01	-8.218316e+00
2.724066e+01	-8.261148e+00
2.739800e+01	-8.303776e+00
2.755625e+01	-8.346380e+00
2.771541e+01	-8.389919e+00
2.787550e+01	-8.431921e+00
2.803650e+01	-8.474765e+00
2.819844e+01	-8.517618e+00
2.836131e+01	-8.560660e+00
2.852513e+01	-8.603512e+00
2.868989e+01	-8.647319e+00
2.885560e+01	-8.690237e+00
2.902227e+01	-8.734069e+00
2.918990e+01	-8.777188e+00
2.935850e+01	-8.820573e+00
2.952807e+01	-8.863959e+00
2.969863e+01	-8.907913e+00
2.987016e+01	-8.950957e+00
3.004269e+01	-8.994768e+00
3.021622e+01	-9.038458e+00
3.039075e+01	-9.081989e+00
3.056628e+01	-9.126441e+00
3.074283e+01	-9.170423e+00
3.092040e+01	-9.214282e+00
3.109900e+01	-9.258205e+00
3.127862e+01	-9.302374e+00
3.145929e+01	-9.346622e+00
3.164099e+01	-9.390744e+00
3.182375e+01	-9.434802e+00
3.200756e+01	-9.479089e+00
3.219244e+01	-9.524149e+00
3.237838e+01	-9.568457e+00
3.256540e+01	-9.612959e+00
3.275349e+01	-9.657684e+00
3.294268e+01	-9.701825e+00
3.313295e+01	-9.747154e+00
3.332433e+01	-9.791617e+00
3.351681e+01	-9.836292e+00
3.371040e+01	-9.880991e+00
3.390511e+01	-9.926356e+00
3.410094e+01	-9.970559e+00
3.429791e+01	-1.001590e+01
3.449601e+01	-1.006103e+01
3.469526e+01	-1.010641e+01
3.489566e+01	-1.015163e+01
3.509721e+01	-1.019704e+01
3.529993e+01	-1.024248e+01
3.550382e+01	-1.028721e+01
3.570889e+01	-1.033239e+01
3.591515e+01	-1.037808e+01
3.612259e+01	-1.042331e+01
3.633123e+01	-1.046902e+01
3.654108e+01	-1.051526e+01
3.675214e+01	-1.056002e+01
3.696442e+01	-1.060582e+01
3.717792e+01	-1.065103e+01
3.739266e+01	-1.069761e+01
3.760864e+01	-1.074310e+01
3.782587e+01	-1.078882e+01
3.804435e+01	-1.083508e+01
3.826409e+01	-1.088036e+01
3.848510e+01	-1.092661e+01
3.870739e+01	-1.097298e+01
3.893096e+01	-1.101859e+01
3.915583e+01	-1.106458e+01
3.938199e+01	-1.111108e+01
3.960946e+01	-1.115707e+01
3.983824e+01	-1.120356e+01
4.006834e+01	-1.124957e+01
4.029978e+01	-1.129603e+01
4.053255e+01	-1.134193e+01
4.076666e+01	-1.138832e+01
4.100213e+01	-1.143541e+01
4.123896e+01	-1.148153e+01
4.147715e+01	-1.152790e+01
4.171672e+01	-1.157489e+01
4.195767e+01	-1.162164e+01
4.220002e+01	-1.166814e+01
4.244377e+01	-1.171442e+01
4.268892e+01	-1.176017e+01
4.293549e+01	-1.180843e+01
4.318348e+01	-1.185432e+01
4.343291e+01	-1.190147e+01
4.368377e+01	-1.194809e+01
4.393609e+01	-1.199506e+01
4.418986e+01	-1.204174e+01
4.444510e+01	-1.208820e+01
4.470182e+01	-1.213523e+01
4.496001e+01	-1.218304e+01
4.521970e+01	-1.222959e+01
4.548089e+01	-1.227692e+01
4.574358e+01	-1.232426e+01
4.600779e+01	-1.237095e+01
4.627353e+01	-1.241923e+01
4.654081e+01	-1.246512e+01
4.680963e+01	-1.251251e+01
4.708000e+01	-1.255975e+01
4.735193e+01	-1.260667e+01
4.762543e+01	-1.265469e+01
4.790051e+01	-1.270212e+01
4.817719e+01	-1.274914e+01
4.845545e+01	-1.279546e+01
4.873533e+01	-1.284314e+01
4.901682e+01	-1.289110e+01
4.929994e+01	-1.293856e+01
4.958470e+01	-1.298633e+01
4.987110e+01	-1.303366e+01
5.015915e+01	-1.308092e+01
5.044887e+01	-1.312872e+01
5.074026e+01	-1.317663e+01
5.103333e+01	-1.322416e+01
5.132810e+01	-1.327237e+01
5.162457e+01	-1.331934e+01
5.192275e+01	-1.336716e+01
5.222265e+01	-1.341498e+01
5.252429e+01	-1.346276e+01
5.282767e+01	-1.351013e+01
5.313280e+01	-1.355847e+01
5.343969e+01	-1.360641e+01
5.374836e+01	-1.365482e+01
5.405880e+01	-1.370143e+01
5.437105e+01	-1.374937e+01
5.468509e+01	-1.379727e+01
5.500095e+01	-1.384597e+01
5.531863e+01	-1.389386e+01
5.563815e+01	-1.394217e+01
5.595951e+01	-1.398931e+01
5.628273e+01	-1.403727e+01
5.660782e+01	-1.408522e+01
5.693479e+01	-1.413325e+01
5.726364e+01	-1.418147e+01
5.759439e+01	-1.422880e+01
5.792705e+01	-1.427827e+01
5.826164e+01	-1.432576e+01
5.859815e+01	-1.437373e+01
5.893662e+01	-1.442247e+01
5.927703e+01	-1.447144e+01
5.961941e+01	-1.451962e+01
5.996377e+01	-1.456739e+01
6.031012e+01	-1.461520e+01
6.065847e+01	-1.466299e+01
6.100883e+01	-1.471198e+01
6.136121e+01	-1.476015e+01
6.171563e+01	-1.480933e+01
6.207210e+01	-1.485704e+01
6.243063e+01	-1.490580e+01
6.279122e+01	-1.495441e+01
6.315390e+01	-1.500266e+01
6.351868e+01	-1.505094e+01
6.388556e+01	-1.509911e+01
6.425456e+01	-1.514794e+01
6.462569e+01	-1.519624e+01
6.499897e+01	-1.524501e+01
6.537440e+01	-1.529352e+01
6.575200e+01	-1.534287e+01
6.613178e+01	-1.539014e+01
6.651375e+01	-1.544000e+01
6.689793e+01	-1.548749e+01
6.728433e+01	-1.553574e+01
6.767297e+01	-1.558572e+01
6.806384e+01	-1.563278e+01
6.845698e+01	-1.568181e+01
6.885238e+01	-1.573101e+01
6.925007e+01	-1.578002e+01
6.965005e+01	-1.582864e+01
7.005235e+01	-1.587871e+01
7.045697e+01	-1.592591e+01
7.086393e+01	-1.597518e+01
7.127323e+01	-1.602323e+01
7.168490e+01	-1.607289e+01
7.209895e+01	-1.612177e+01
7.251539e+01	-1.617044e+01
7.293424e+01	-1.621894e+01
7.335551e+01	-1.626677e+01
7.377920e+01	-1.631512e+01
7.420535e+01	-1.636551e+01
7.463396e+01	-1.641391e+01
7.506504e+01	-1.646289e+01
7.549861e+01	-1.651255e+01
7.593469e+01	-1.656126e+01
7.637328e+01	-1.661032e+01
7.681441e+01	-1.665878e+01
7.725809e+01	-1.670809e+01
7.770433e+01	-1.675559e+01
7.815315e+01	-1.680599e+01
7.860456e+01	-1.685438e+01
7.905857e+01	-1.690395e+01
7.951521e+01	-1.695250e+01
7.997449e+01	-1.700297e+01
8.043642e+01	-1.705055e+01
8.090102e+01	-1.709967e+01
8.136830e+01	-1.714927e+01
8.183828e+01	-1.719840e+01
8.231097e+01	-1.724728e+01
8.278640e+01	-1.729686e+01
8.326457e+01	-1.734585e+01
8.374550e+01	-1.739379e+01
8.422921e+01	-1.744416e+01
8.471572e+01	-1.749258e+01
8.520503e+01	-1.754248e+01
8.569717e+01	-1.758934e+01
8.619215e+01	-1.764000e+01
8.669000e+01	-1.768915e+01
8.719071e+01	-1.773877e+01
8.769432e+01	-1.778756e+01
8.820084e+01	-1.783726e+01
8.871029e+01	-1.788689e+01
8.922267e+01	-1.793487e+01
8.973802e+01	-1.798505e+01
9.025634e+01	-1.803366e+01
9.077766e+01	-1.808301e+01
9.130199e+01	-1.813233e+01
9.182935e+01	-1.818205e+01
9.235975e+01	-1.823118e+01
9.289321e+01	-1.828023e+01
9.342976e+01	-1.832993e+01
9.396941e+01	-1.837907e+01
9.451217e+01	-1.842752e+01
9.505807e+01	-1.847702e+01
9.560712e+01	-1.852492e+01
9.615934e+01	-1.857652e+01
9.671476e+01	-1.862564e+01
9.727338e+01	-1.867413e+01
9.783522e+01	-1.872472e+01
9.840032e+01	-1.877478e+01
9.896867e+01	-1.882199e+01
9.954031e+01	-1.887163e+01
1.001153e+02	-1.892227e+01
1.006935e+02	-1.897177e+01
1.012751e+02	-1.901999e+01
1.018601e+02	-1.906985e+01
1.024484e+02	-1.911920e+01
1.030402e+02	-1.916873e+01
1.036353e+02	-1.921919e+01
1.042339e+02	-1.926674e+01
1.048360e+02	-1.931715e+01
1.054415e+02	-1.936768e+01
1.060505e+02	-1.941548e+01
1.066631e+02	-1.946442e+01
1.072791e+02	-1.951601e+01
1.078988e+02	-1.956479e+01
1.085220e+02	-1.961383e+01
1.091488e+02	-1.966417e+01
1.097793e+02	-1.971169e+01
1.104133e+02	-1.976175e+01
1.110511e+02	-1.981141e+01
1.116925e+02	-1.986269e+01
1.123376e+02	-1.990917e+01
1.129865e+02	-1.996112e+01
1.136391e+02	-2.000992e+01
1.142955e+02	-2.006053e+01
1.149556e+02	-2.010716e+01
1.156196e+02	-2.015815e+01
1.162874e+02	-2.020784e+01
1.169591e+02	-2.025720e+01
1.176347e+02	-2.030681e+01
1.183141e+02	-2.035491e+01
1.189975e+02	-2.040664e+01
1.196848e+02	-2.045729e+01
1.203761e+02	-2.050711e+01
1.210714e+02	-2.055721e+01
1.217707e+02	-2.060474e+01
1.224740e+02	-2.065307e+01
1.231814e+02	-2.070473e+01
1.238929e+02	-2.075209e+01
1.246085e+02	-2.080296e+01
1.253283e+02	-2.085291e+01
1.260522e+02	-2.090169e+01
1.267802e+02	-2.095093e+01
1.275125e+02	-2.100186e+01
1.282490e+02	-2.105101e+01
1.289898e+02	-2.110101e+01
1.297348e+02	-2.115026e+01
1.304842e+02	-2.120058e+01
1.312378e+02	-2.124911e+01
1.319959e+02	-2.129762e+01
1.327583e+02	-2.134773e+01
1.335251e+02	-2.140015e+01
1.342963e+02	-2.144841e+01
1.350720e+02	-2.149703e+01
1.358522e+02	-2.154632e+01
1.366368e+02	-2.159657e+01
1.374260e+02	-2.164762e+01
1.382198e+02	-2.169604e+01
1.390182e+02	-2.174634e+01
1.398211e+02	-2.179628e+01
1.406287e+02	-2.184616e+01
1.414410e+02	-2.189650e+01
1.422579e+02	-2.194497e+01
1.430796e+02	-2.199475e+01
1.439060e+02	-2.204517e+01
1.447372e+02	-2.209638e+01
1.455732e+02	-2.214347e+01
1.464141e+02	-2.219385e+01
1.472597e+02	-2.224316e+01
1.481103e+02	-2.229338e+01
1.489658e+02	-2.234319e+01
1.498262e+02	-2.239304e+01
1.506916e+02	-2.244382e+01
1.515620e+02	-2.249260e+01
1.524374e+02	-2.254330e+01
1.533179e+02	-2.259254e+01
1.542034e+02	-2.264352e+01
1.550941e+02	-2.269330e+01
1.559899e+02	-2.274322e+01
1.568909e+02	-2.279194e+01
1.577971e+02	-2.284126e+01
1.587085e+02	-2.289059e+01
1.596252e+02	-2.294245e+01
1.605472e+02	-2.299093e+01
1.614745e+02	-2.304074e+01
1.624072e+02	-2.308837e+01
1.633453e+02	-2.313949e+01
1.642887e+02	-2.318763e+01
1.652377e+02	-2.323950e+01
1.661921e+02	-2.328965e+01
1.671520e+02	-2.333749e+01
1.681175e+02	-2.338700e+01
1.690885e+02	-2.343675e+01
1.700651e+02	-2.348950e+01
1.710474e+02	-2.353534e+01
1.720354e+02	-2.358896e+01
1.730291e+02	-2.364029e+01
1.740285e+02	-2.368872e+01
1.750337e+02	-2.373704e+01
1.760446e+02	-2.378823e+01
1.770615e+02	-2.383688e+01
1.780842e+02	-2.388676e+01
1.791128e+02	-2.393751e+01
1.801473e+02	-2.398804e+01
1.811878e+02	-2.403709e+01
1.822344e+02	-2.408602e+01
1.832870e+02	-2.413625e+01
1.843456e+02	-2.418589e+01
1.854104e+02	-2.423752e+01
1.864813e+02	-2.428762e+01
1.875584e+02	-2.433548e+01
1.886418e+02	-2.438571e+01
1.897313e+02	-2.443572e+01
1.908272e+02	-2.448401e+01
1.919294e+02	-2.453941e+01
1.930380e+02	-2.458866e+01
1.941530e+02	-2.463597e+01
1.952744e+02	-2.468505e+01
1.964023e+02	-2.473479e+01
1.975367e+02	-2.478456e+01
1.986777e+02	-2.483397e+01
1.998252e+02	-2.488568e+01
2.009794e+02	-2.493319e+01
2.021403e+02	-2.498365e+01
2.033078e+02	-2.503651e+01
2.044821e+02	-2.508728e+01
2.056632e+02	-2.513251e+01
2.068511e+02	-2.518473e+01
2.080459e+02	-2.523510e+01
2.092475e+02	-2.528442e+01
2.104561e+02	-2.533596e+01
2.116717e+02	-2.538086e+01
2.128943e+02	-2.543347e+01
2.141240e+02	-2.548794e+01
2.153608e+02	-2.553093e+01
2.166047e+02	-2.558341e+01
2.178558e+02	-2.563395e+01
2.191141e+02	-2.568213e+01
2.203797e+02	-2.573257e+01
2.216526e+02	-2.578430e+01
2.229329e+02	-2.583572e+01
2.242205e+02	-2.588268e+01
2.255156e+02	-2.593272e+01
2.268182e+02	-2.598245e+01
2.281283e+02	-2.603182e+01
2.294459e+02	-2.608315e+01
2.307712e+02	-2.613103e+01
2.321041e+02	-2.618258e+01
2.334447e+02	-2.623104e+01
2.347931e+02	-2.627770e+01
2.361493e+02	-2.633301e+01
2.375133e+02	-2.638320e+01
2.388851e+02	-2.643155e+01
2.402649e+02	-2.648011e+01
2.416527e+02	-2.653298e+01
2.430484e+02	-2.658370e+01
2.444523e+02	-2.663325e+01
2.458642e+02	-2.668728e+01
2.472843e+02	-2.673311e+01
2.487126e+02	-2.678248e+01
2.501492e+02	-2.683253e+01
2.515940e+02	-2.688158e+01
2.530472e+02	-2.693154e+01
2.545088e+02	-2.698475e+01
2.559789e+02	-2.703273e+01
2.574574e+02	-2.708331e+01
2.589444e+02	-2.713490e+01
2.604401e+02	-2.718393e+01
2.619444e+02	-2.723383e+01
2.634574e+02	-2.728499e+01
2.649791e+02	-2.733239e+01
2.665096e+02	-2.738412e+01
2.680489e+02	-2.743200e+01
2.695972e+02	-2.748443e+01
2.711544e+02	-2.753326e+01
2.727205e+02	-2.757984e+01
2.742958e+02	-2.763530e+01
2.758801e+02	-2.768385e+01
2.774736e+02	-2.773134e+01
2.790762e+02	-2.778587e+01
2.806882e+02	-2.783010e+01
2.823094e+02	-2.787900e+01
2.839400e+02	-2.793550e+01
2.855800e+02	-2.798413e+01
2.872295e+02	-2.803082e+01
2.888886e+02	-2.808347e+01
2.905572e+02	-2.812996e+01
2.922354e+02	-2.818116e+01
2.939234e+02	-2.823119e+01
2.956211e+02	-2.828375e+01
2.973286e+02	-2.833050e+01
2.990459e+02	-2.838553e+01
3.007732e+02	-2.842898e+01
3.025104e+02	-2.848268e+01
3.042577e+02	-2.853247e+01
3.060151e+02	-2.858692e+01
3.077826e+02	-2.863826e+01
3.095604e+02	-2.867817e+01
3.113484e+02	-2.872866e+01
3.131467e+02	-2.878436e+01
3.149554e+02	-2.883132e+01
3.167746e+02	-2.888382e+01
3.186043e+02	-2.893339e+01
3.204445e+02	-2.898273e+01
3.222954e+02	-2.903237e+01
3.241570e+02	-2.908734e+01
3.260293e+02	-2.913310e+01
3.279124e+02	-2.917870e+01
3.298064e+02	-2.923161e+01
3.317114e+02	-2.928279e+01
3.336273e+02	-2.933332e+01
3.355544e+02	-2.938602e+01
3.374925e+02	-2.943426e+01
3.394418e+02	-2.948434e+01
3.414024e+02	-2.953138e+01
3.433744e+02	-2.957874e+01
3.453577e+02	-2.963166e+01
3.473525e+02	-2.967862e+01
3.493588e+02	-2.973618e+01
3.513766e+02	-2.978357e+01
3.534062e+02	-2.983490e+01
3.554474e+02	-2.988461e+01
3.575005e+02	-2.993587e+01
3.595654e+02	-2.998838e+01
3.616422e+02	-3.003893e+01
3.637311e+02	-3.008354e+01
3.658320e+02	-3.013841e+01
3.679450e+02	-3.018354e+01
3.700702e+02	-3.023720e+01
3.722077e+02	-3.028332e+01
3.743576e+02	-3.033048e+01
3.765199e+02	-3.038492e+01
3.786946e+02	-3.043564e+01
3.808820e+02	-3.049110e+01
3.830819e+02	-3.054026e+01
3.852946e+02	-3.058472e+01
3.875200e+02	-3.063818e+01
3.897583e+02	-3.068512e+01
3.920096e+02	-3.073746e+01
3.942738e+02	-3.078932e+01
3.965511e+02	-3.083843e+01
3.988416e+02	-3.088469e+01
4.011452e+02	-3.093732e+01
4.034622e+02	-3.098580e+01
4.057926e+02	-3.103830e+01
4.081365e+02	-3.108481e+01
4.104938e+02	-3.113788e+01
4.128648e+02	-3.118773e+01
4.152495e+02	-3.123789e+01
4.176480e+02	-3.128599e+01
4.200603e+02	-3.133604e+01
4.224866e+02	-3.138442e+01
4.249268e+02	-3.144086e+01
4.273812e+02	-3.148604e+01
4.298497e+02	-3.153371e+01
4.323325e+02	-3.158598e+01
4.348297e+02	-3.163971e+01
4.373412e+02	-3.169016e+01
4.398673e+02	-3.173457e+01
4.424079e+02	-3.178423e+01
4.449633e+02	-3.183889e+01
4.475334e+02	-3.189480e+01
4.501183e+02	-3.193704e+01
4.527182e+02	-3.198739e+01
4.553330e+02	-3.203996e+01
4.579630e+02	-3.209818e+01
4.606082e+02	-3.214110e+01
4.632687e+02	-3.219508e+01
4.659445e+02	-3.224012e+01
4.686358e+02	-3.229107e+01
4.713426e+02	-3.234157e+01
4.740650e+02	-3.238707e+01
4.768032e+02	-3.243854e+01
4.795572e+02	-3.249762e+01
4.823271e+02	-3.254375e+01
4.851130e+02	-3.259656e+01
4.879150e+02	-3.264106e+01
4.907332e+02	-3.268558e+01
4.935676e+02	-3.274375e+01
4.964185e+02	-3.278976e+01
4.992858e+02	-3.283910e+01
5.021696e+02	-3.289415e+01
5.050701e+02	-3.294337e+01
5.079874e+02	-3.298676e+01
5.109215e+02	-3.303776e+01
5.138726e+02	-3.309677e+01
5.168407e+02	-3.313737e+01
5.198259e+02	-3.320045e+01
5.228284e+02	-3.324189e+01
5.258482e+02	-3.329604e+01
5.288855e+02	-3.334923e+01
5.319403e+02	-3.339683e+01
5.350128e+02	-3.345212e+01
5.381030e+02	-3.349890e+01
5.412111e+02	-3.354181e+01
5.443371e+02	-3.359612e+01
5.474812e+02	-3.363880e+01
5.506434e+02	-3.370206e+01
5.538239e+02	-3.373609e+01
5.570228e+02	-3.379509e+01
5.602401e+02	-3.384480e+01
5.634760e+02	-3.389343e+01
5.667306e+02	-3.395158e+01
5.700040e+02	-3.399225e+01
5.732964e+02	-3.404713e+01
5.766077e+02	-3.410175e+01
5.799382e+02	-3.414922e+01
5.832879e+02	-3.420649e+01
5.866569e+02	-3.425379e+01
5.900454e+02	-3.430030e+01
5.934535e+02	-3.434842e+01
5.968813e+02	-3.439879e+01
6.003288e+02	-3.444601e+01
6.037963e+02	-3.450283e+01
6.072838e+02	-3.455294e+01
6.107914e+02	-3.460690e+01
6.143194e+02	-3.465203e+01
6.178676e+02	-3.470389e+01
6.214364e+02	-3.475364e+01
6.250258e+02	-3.479954e+01
6.286359e+02	-3.485373e+01
6.322669e+02	-3.489604e+01
6.359189e+02	-3.495057e+01
6.395919e+02	-3.501015e+01
6.432862e+02	-3.506147e+01
6.470017e+02	-3.510159e+01
6.507388e+02	-3.515831e+01
6.544974e+02	-3.520598e+01
6.582778e+02	-3.525504e+01
6.620800e+02	-3.531451e+01
6.659041e+02	-3.535605e+01
6.697504e+02	-3.542101e+01
6.736188e+02	-3.545630e+01
6.775096e+02	-3.551217e+01
6.814229e+02	-3.556142e+01
6.853587e+02	-3.561359e+01
6.893173e+02	-3.566965e+01
6.932988e+02	-3.569690e+01
6.973033e+02	-3.575856e+01
7.013309e+02	-3.580502e+01
