Frequency(Hz)	Magnitude(dB)
1.000000e+01	-2.274370e+00
1.005776e+01	-2.294797e+00
1.011585e+01	-2.315599e+00
1.017428e+01	-2.336241e+00
1.023305e+01	-2.356986e+00
1.029215e+01	-2.377892e+00
1.035160e+01	-2.399082e+00
1.041139e+01	-2.420397e+00
1.047153e+01	-2.441835e+00
1.053201e+01	-2.463360e+00
1.059284e+01	-2.485191e+00
1.065403e+01	-2.506856e+00
1.071556e+01	-2.528864e+00
1.077746e+01	-2.551149e+00
1.083971e+01	-2.573312e+00
1.090232e+01	-2.595768e+00
1.096529e+01	-2.618542e+00
1.102862e+01	-2.641182e+00
1.109232e+01	-2.664174e+00
1.115639e+01	-2.687088e+00
1.122083e+01	-2.710176e+00
1.128564e+01	-2.733717e+00
1.135083e+01	-2.756949e+00
1.141639e+01	-2.780712e+00
1.148233e+01	-2.804143e+00
1.154865e+01	-2.828215e+00
1.161536e+01	-2.852050e+00
1.168245e+01	-2.876360e+00
1.174992e+01	-2.900661e+00
1.181779e+01	-2.925012e+00
1.188605e+01	-2.949569e+00
1.195470e+01	-2.974477e+00
1.202375e+01	-2.999336e+00
1.209320e+01	-3.024649e+00
1.216305e+01	-3.049530e+00
1.223330e+01	-3.074777e+00
1.230396e+01	-3.100259e+00
1.237503e+01	-3.125799e+00
1.244651e+01	-3.151670e+00
1.251840e+01	-3.177653e+00
1.259070e+01	-3.203465e+00
1.266343e+01	-3.229770e+00
1.273657e+01	-3.256015e+00
1.281014e+01	-3.282457e+00
1.288413e+01	-3.309175e+00
1.295855e+01	-3.335933e+00
1.303339e+01	-3.362555e+00
1.310867e+01	-3.389767e+00
1.318439e+01	-3.417023e+00
1.326054e+01	-3.444318e+00
1.333713e+01	-3.471675e+00
1.341417e+01	-3.499151e+00
1.349165e+01	-3.526873e+00
1.356958e+01	-3.555062e+00
1.364795e+01	-3.582911e+00
1.372678e+01	-3.610860e+00
1.380607e+01	-3.639694e+00
1.388581e+01	-3.668075e+00
1.396602e+01	-3.696588e+00
1.404668e+01	-3.725134e+00
1.412782e+01	-3.754019e+00
1.420942e+01	-3.783212e+00
1.429149e+01	-3.812261e+00
1.437404e+01	-3.841676e+00
1.445706e+01	-3.870947e+00
1.454057e+01	-3.900603e+00
1.462455e+01	-3.930439e+00
1.470902e+01	-3.960359e+00
1.479398e+01	-3.990293e+00
1.487943e+01	-4.020190e+00
1.496537e+01	-4.050478e+00
1.505181e+01	-4.081172e+00
1.513875e+01	-4.111495e+00
1.522619e+01	-4.142045e+00
1.531414e+01	-4.172696e+00
1.540259e+01	-4.204261e+00
1.549156e+01	-4.235208e+00
1.558103e+01	-4.266224e+00
1.567103e+01	-4.297804e+00
1.576155e+01	-4.329342e+00
1.585258e+01	-4.360937e+00
1.594415e+01	-4.392714e+00
1.603624e+01	-4.424295e+00
1.612886e+01	-4.456661e+00
1.622202e+01	-4.488538e+00
1.631572e+01	-4.520822e+00
1.640996e+01	-4.553513e+00
1.650474e+01	-4.585673e+00
1.660008e+01	-4.618537e+00
1.669596e+01	-4.651415e+00
1.679239e+01	-4.684272e+00
1.688938e+01	-4.717573e+00
1.698694e+01	-4.750951e+00
1.708505e+01	-4.783888e+00
1.718373e+01	-4.817761e+00
1.728299e+01	-4.851168e+00
1.738281e+01	-4.884901e+00
1.748322e+01	-4.918751e+00
1.758420e+01	-4.952903e+00
1.768576e+01	-4.986623e+00
1.778792e+01	-5.020853e+00
1.789066e+01	-5.055063e+00
1.799399e+01	-5.089677e+00
1.809793e+01	-5.124147e+00
1.820246e+01	-5.159010e+00
1.830760e+01	-5.193718e+00
1.841334e+01	-5.228924e+00
1.851969e+01	-5.264130e+00
1.862666e+01	-5.299094e+00
1.873425e+01	-5.334107e+00
1.884246e+01	-5.369605e+00
1.895129e+01	-5.405143e+00
1.906075e+01	-5.440852e+00
1.917085e+01	-5.476915e+00
1.928158e+01	-5.512888e+00
1.939295e+01	-5.548716e+00
1.950496e+01	-5.584984e+00
1.961762e+01	-5.621400e+00
1.973093e+01	-5.657620e+00
1.984490e+01	-5.694126e+00
1.995952e+01	-5.730752e+00
2.007480e+01	-5.767405e+00
2.019076e+01	-5.804344e+00
2.030738e+01	-5.841032e+00
2.042467e+01	-5.877958e+00
2.054264e+01	-5.915446e+00
2.066130e+01	-5.952689e+00
2.078064e+01	-5.989868e+00
2.090066e+01	-6.027342e+00
2.102139e+01	-6.064949e+00
2.114280e+01	-6.102561e+00
2.126492e+01	-6.140378e+00
2.138775e+01	-6.178155e+00
2.151128e+01	-6.216611e+00
2.163553e+01	-6.254991e+00
2.176050e+01	-6.292932e+00
2.188619e+01	-6.331075e+00
2.201260e+01	-6.369763e+00
2.213974e+01	-6.407939e+00
2.226762e+01	-6.446725e+00
2.239624e+01	-6.485800e+00
2.252560e+01	-6.524497e+00
2.265571e+01	-6.563195e+00
2.278656e+01	-6.602610e+00
2.291818e+01	-6.641352e+00
2.305055e+01	-6.680403e+00
2.318369e+01	-6.720288e+00
2.331760e+01	-6.759415e+00
2.345228e+01	-6.799153e+00
2.358774e+01	-6.838719e+00
2.372398e+01	-6.878098e+00
2.386101e+01	-6.918355e+00
2.399883e+01	-6.958576e+00
2.413745e+01	-6.998074e+00
2.427686e+01	-7.038301e+00
2.441709e+01	-7.078013e+00
2.455812e+01	-7.118299e+00
2.469997e+01	-7.158635e+00
2.484263e+01	-7.199450e+00
2.498612e+01	-7.239586e+00
2.513044e+01	-7.280329e+00
2.527559e+01	-7.321268e+00
2.542158e+01	-7.361973e+00
2.556842e+01	-7.402920e+00
2.571610e+01	-7.443922e+00
2.586463e+01	-7.484990e+00
2.601403e+01	-7.526171e+00
2.616428e+01	-7.567412e+00
2.631541e+01	-7.608359e+00
2.646740e+01	-7.650190e+00
2.662028e+01	-7.691671e+00
2.677404e+01	-7.733185e+00
2.692868e+01	-7.774661e+00
2.708422e+01	-7.816070e+00
2.724066e+01	-7.858421e+00
2.739800e+01	-7.900112e+00
2.755625e+01	-7.942023e+00
2.771541e+01	-7.983782e+00
2.787550e+01	-8.026189e+00
2.803650e+01	-8.068333e+00
2.819844e+01	-8.110631e+00
2.836131e+01	-8.152869e+00
2.852513e+01	-8.195144e+00
2.868989e+01	-8.237637e+00
2.885560e+01	-8.280538e+00
2.902227e+01	-8.322920e+00
2.918990e+01	-8.365675e+00
2.935850e+01	-8.408646e+00
2.952807e+01	-8.451556e+00
2.969863e+01	-8.494686e+00
2.987016e+01	-8.537424e+00
3.004269e+01	-8.580398e+00
3.021622e+01	-8.623339e+00
3.039075e+01	-8.666708e+00
3.056628e+01	-8.709873e+00
3.074283e+01	-8.753233e+00
3.092040e+01	-8.796697e+00
3.109900e+01	-8.839795e+00
3.127862e+01	-8.883407e+00
3.145929e+01	-8.927023e+00
3.164099e+01	-8.970635e+00
3.182375e+01	-9.014465e+00
3.200756e+01	-9.058179e+00
3.219244e+01	-9.102237e+00
3.237838e+01	-9.145728e+00
3.256540e+01	-9.189486e+00
3.275349e+01	-9.234355e+00
3.294268e+01	-9.278184e+00
3.313295e+01	-9.322282e+00
3.332433e+01	-9.366622e+00
3.351681e+01	-9.410575e+00
3.371040e+01	-9.455247e+00
3.390511e+01	-9.499799e+00
3.410094e+01	-9.543714e+00
3.429791e+01	-9.588435e+00
3.449601e+01	-9.632838e+00
3.469526e+01	-9.677226e+00
3.489566e+01	-9.721816e+00
3.509721e+01	-9.766990e+00
3.529993e+01	-9.811703e+00
3.550382e+01	-9.856806e+00
3.570889e+01	-9.901981e+00
3.591515e+01	-9.946079e+00
3.612259e+01	-9.991471e+00
3.633123e+01	-1.003610e+01
3.654108e+01	-1.008132e+01
3.675214e+01	-1.012639e+01
3.696442e+01	-1.017164e+01
3.717792e+01	-1.021736e+01
3.739266e+01	-1.026258e+01
3.760864e+01	-1.030724e+01
3.782587e+01	-1.035305e+01
3.804435e+01	-1.039876e+01
3.826409e+01	-1.044421e+01
3.848510e+01	-1.048946e+01
3.870739e+01	-1.053531e+01
3.893096e+01	-1.058089e+01
3.915583e+01	-1.062613e+01
3.938199e+01	-1.067194e+01
3.960946e+01	-1.071783e+01
3.983824e+01	-1.076347e+01
4.006834e+01	-1.080936e+01
4.029978e+01	-1.085510e+01
4.053255e+01	-1.090173e+01
4.076666e+01	-1.094768e+01
4.100213e+01	-1.099343e+01
4.123896e+01	-1.103868e+01
4.147715e+01	-1.108527e+01
4.171672e+01	-1.113234e+01
4.195767e+01	-1.117743e+01
4.220002e+01	-1.122396e+01
4.244377e+01	-1.127036e+01
4.268892e+01	-1.131704e+01
4.293549e+01	-1.136304e+01
4.318348e+01	-1.140930e+01
4.343291e+01	-1.145598e+01
4.368377e+01	-1.150204e+01
4.393609e+01	-1.154828e+01
4.418986e+01	-1.159607e+01
4.444510e+01	-1.164240e+01
4.470182e+01	-1.168823e+01
4.496001e+01	-1.173576e+01
4.521970e+01	-1.178156e+01
4.548089e+01	-1.182764e+01
4.574358e+01	-1.187524e+01
4.600779e+01	-1.192222e+01
4.627353e+01	-1.196910e+01
4.654081e+01	-1.201611e+01
4.680963e+01	-1.206284e+01
4.708000e+01	-1.210950e+01
4.735193e+01	-1.215723e+01
4.762543e+01	-1.220327e+01
4.790051e+01	-1.225100e+01
4.817719e+01	-1.229767e+01
4.845545e+01	-1.234541e+01
4.873533e+01	-1.239232e+01
4.901682e+01	-1.244031e+01
4.929994e+01	-1.248599e+01
4.958470e+01	-1.253435e+01
4.987110e+01	-1.258079e+01
5.015915e+01	-1.262803e+01
5.044887e+01	-1.267535e+01
5.074026e+01	-1.272220e+01
5.103333e+01	-1.276995e+01
5.132810e+01	-1.281727e+01
5.162457e+01	-1.286544e+01
5.192275e+01	-1.291221e+01
5.222265e+01	-1.295981e+01
5.252429e+01	-1.300666e+01
5.282767e+01	-1.305473e+01
5.313280e+01	-1.310255e+01
5.343969e+01	-1.315031e+01
5.374836e+01	-1.319784e+01
5.405880e+01	-1.324520e+01
5.437105e+01	-1.329341e+01
5.468509e+01	-1.334056e+01
5.500095e+01	-1.338848e+01
5.531863e+01	-1.343622e+01
5.563815e+01	-1.348429e+01
5.595951e+01	-1.353127e+01
5.628273e+01	-1.357970e+01
5.660782e+01	-1.362730e+01
5.693479e+01	-1.367532e+01
5.726364e+01	-1.372256e+01
5.759439e+01	-1.377087e+01
5.792705e+01	-1.381906e+01
5.826164e+01	-1.386679e+01
5.859815e+01	-1.391511e+01
5.893662e+01	-1.396316e+01
5.927703e+01	-1.401123e+01
5.961941e+01	-1.405897e+01
5.996377e+01	-1.410731e+01
6.031012e+01	-1.415548e+01
6.065847e+01	-1.420411e+01
6.100883e+01	-1.425148e+01
6.136121e+01	-1.429998e+01
6.171563e+01	-1.434693e+01
6.207210e+01	-1.439641e+01
6.243063e+01	-1.444478e+01
6.279122e+01	-1.449201e+01
6.315390e+01	-1.454162e+01
6.351868e+01	-1.458871e+01
6.388556e+01	-1.463718e+01
6.425456e+01	-1.468532e+01
6.462569e+01	-1.473401e+01
6.499897e+01	-1.478240e+01
6.537440e+01	-1.483036e+01
6.575200e+01	-1.488007e+01
6.613178e+01	-1.492831e+01
6.651375e+01	-1.497563e+01
6.689793e+01	-1.502480e+01
6.728433e+01	-1.507300e+01
6.767297e+01	-1.512115e+01
6.806384e+01	-1.516889e+01
6.845698e+01	-1.521830e+01
6.885238e+01	-1.526668e+01
6.925007e+01	-1.531636e+01
6.965005e+01	-1.536341e+01
7.005235e+01	-1.541249e+01
7.045697e+01	-1.546137e+01
7.086393e+01	-1.550967e+01
7.127323e+01	-1.555763e+01
7.168490e+01	-1.560754e+01
7.209895e+01	-1.565590e+01
7.251539e+01	-1.570472e+01
7.293424e+01	-1.575360e+01
7.335551e+01	-1.580225e+01
7.377920e+01	-1.585065e+01
7.420535e+01	-1.590004e+01
7.463396e+01	-1.594761e+01
7.506504e+01	-1.599764e+01
7.549861e+01	-1.604546e+01
7.593469e+01	-1.609473e+01
7.637328e+01	-1.614357e+01
7.681441e+01	-1.619261e+01
7.725809e+01	-1.624118e+01
7.770433e+01	-1.628996e+01
7.815315e+01	-1.633862e+01
7.860456e+01	-1.638776e+01
7.905857e+01	-1.643554e+01
7.951521e+01	-1.648498e+01
7.997449e+01	-1.653491e+01
8.043642e+01	-1.658368e+01
8.090102e+01	-1.663258e+01
8.136830e+01	-1.668054e+01
8.183828e+01	-1.673085e+01
8.231097e+01	-1.677961e+01
8.278640e+01	-1.682870e+01
8.326457e+01	-1.687612e+01
8.374550e+01	-1.692672e+01
8.422921e+01	-1.697550e+01
8.471572e+01	-1.702272e+01
8.520503e+01	-1.707239e+01
8.569717e+01	-1.712178e+01
8.619215e+01	-1.717121e+01
8.669000e+01	-1.721992e+01
8.719071e+01	-1.726941e+01
8.769432e+01	-1.731881e+01
8.820084e+01	-1.736775e+01
8.871029e+01	-1.741567e+01
8.922267e+01	-1.746584e+01
8.973802e+01	-1.751568e+01
9.025634e+01	-1.756283e+01
9.077766e+01	-1.761187e+01
9.130199e+01	-1.766207e+01
9.182935e+01	-1.771235e+01
9.235975e+01	-1.776083e+01
9.289321e+01	-1.781033e+01
9.342976e+01	-1.785952e+01
9.396941e+01	-1.790828e+01
9.451217e+01	-1.795814e+01
9.505807e+01	-1.800582e+01
9.560712e+01	-1.805652e+01
9.615934e+01	-1.810602e+01
9.671476e+01	-1.815426e+01
9.727338e+01	-1.820428e+01
9.783522e+01	-1.825314e+01
9.840032e+01	-1.830136e+01
9.896867e+01	-1.835329e+01
9.954031e+01	-1.840102e+01
1.001153e+02	-1.845015e+01
1.006935e+02	-1.849942e+01
1.012751e+02	-1.854869e+01
1.018601e+02	-1.859725e+01
1.024484e+02	-1.864765e+01
1.030402e+02	-1.869782e+01
1.036353e+02	-1.874567e+01
1.042339e+02	-1.879637e+01
1.048360e+02	-1.884656e+01
1.054415e+02	-1.889384e+01
1.060505e+02	-1.894497e+01
1.066631e+02	-1.899255e+01
1.072791e+02	-1.904182e+01
1.078988e+02	-1.909197e+01
1.085220e+02	-1.914124e+01
1.091488e+02	-1.919071e+01
1.097793e+02	-1.924065e+01
1.104133e+02	-1.929136e+01
1.110511e+02	-1.933840e+01
1.116925e+02	-1.938877e+01
1.123376e+02	-1.943950e+01
1.129865e+02	-1.948924e+01
1.136391e+02	-1.953650e+01
1.142955e+02	-1.958642e+01
1.149556e+02	-1.963726e+01
1.156196e+02	-1.968655e+01
1.162874e+02	-1.973580e+01
1.169591e+02	-1.978351e+01
1.176347e+02	-1.983511e+01
1.183141e+02	-1.988437e+01
1.189975e+02	-1.993335e+01
1.196848e+02	-1.998352e+01
1.203761e+02	-2.003166e+01
1.210714e+02	-2.008231e+01
1.217707e+02	-2.013189e+01
1.224740e+02	-2.018087e+01
1.231814e+02	-2.023048e+01
1.238929e+02	-2.027963e+01
1.246085e+02	-2.032943e+01
1.253283e+02	-2.037797e+01
1.260522e+02	-2.042895e+01
1.267802e+02	-2.047807e+01
1.275125e+02	-2.052923e+01
1.282490e+02	-2.057693e+01
1.289898e+02	-2.062708e+01
1.297348e+02	-2.067836e+01
1.304842e+02	-2.072649e+01
1.312378e+02	-2.077501e+01
1.319959e+02	-2.082607e+01
1.327583e+02	-2.087476e+01
1.335251e+02	-2.092353e+01
1.342963e+02	-2.097453e+01
1.350720e+02	-2.102393e+01
1.358522e+02	-2.107326e+01
1.366368e+02	-2.112314e+01
1.374260e+02	-2.117367e+01
1.382198e+02	-2.122157e+01
1.390182e+02	-2.127177e+01
1.398211e+02	-2.132264e+01
1.406287e+02	-2.137065e+01
1.414410e+02	-2.142368e+01
1.422579e+02	-2.147205e+01
1.430796e+02	-2.152287e+01
1.439060e+02	-2.157063e+01
1.447372e+02	-2.162120e+01
1.455732e+02	-2.167023e+01
1.464141e+02	-2.171919e+01
1.472597e+02	-2.176915e+01
1.481103e+02	-2.181945e+01
1.489658e+02	-2.186942e+01
1.498262e+02	-2.191771e+01
1.506916e+02	-2.196750e+01
1.515620e+02	-2.201826e+01
1.524374e+02	-2.206770e+01
1.533179e+02	-2.211796e+01
1.542034e+02	-2.216584e+01
1.550941e+02	-2.221746e+01
1.559899e+02	-2.226582e+01
1.568909e+02	-2.231704e+01
1.577971e+02	-2.236477e+01
1.587085e+02	-2.241678e+01
1.596252e+02	-2.246459e+01
1.605472e+02	-2.251653e+01
1.614745e+02	-2.256356e+01
1.624072e+02	-2.261572e+01
1.633453e+02	-2.266402e+01
1.642887e+02	-2.271651e+01
1.652377e+02	-2.276445e+01
1.661921e+02	-2.281621e+01
1.671520e+02	-2.286298e+01
1.681175e+02	-2.291111e+01
1.690885e+02	-2.296222e+01
1.700651e+02	-2.301444e+01
1.710474e+02	-2.306282e+01
1.720354e+02	-2.311600e+01
1.730291e+02	-2.316342e+01
1.740285e+02	-2.321231e+01
1.750337e+02	-2.326246e+01
1.760446e+02	-2.331234e+01
1.770615e+02	-2.336100e+01
1.780842e+02	-2.341231e+01
1.791128e+02	-2.345942e+01
1.801473e+02	-2.351235e+01
1.811878e+02	-2.356044e+01
1.822344e+02	-2.361112e+01
1.832870e+02	-2.366263e+01
1.843456e+02	-2.371274e+01
1.854104e+02	-2.375955e+01
1.864813e+02	-2.381120e+01
1.875584e+02	-2.386199e+01
1.886418e+02	-2.390773e+01
1.897313e+02	-2.396174e+01
1.908272e+02	-2.400813e+01
1.919294e+02	-2.406006e+01
1.930380e+02	-2.410978e+01
1.941530e+02	-2.415614e+01
1.952744e+02	-2.421041e+01
1.964023e+02	-2.425881e+01
1.975367e+02	-2.430746e+01
1.986777e+02	-2.435795e+01
1.998252e+02	-2.441060e+01
2.009794e+02	-2.445867e+01
2.021403e+02	-2.450890e+01
2.033078e+02	-2.455896e+01
2.044821e+02	-2.460863e+01
2.056632e+02	-2.465952e+01
2.068511e+02	-2.470896e+01
2.080459e+02	-2.475770e+01
2.092475e+02	-2.480843e+01
2.104561e+02	-2.485877e+01
2.116717e+02	-2.490946e+01
2.128943e+02	-2.495696e+01
2.141240e+02	-2.500848e+01
2.153608e+02	-2.505884e+01
2.166047e+02	-2.510623e+01
2.178558e+02	-2.515793e+01
2.191141e+02	-2.520929e+01
2.203797e+02	-2.525881e+01
2.216526e+02	-2.530642e+01
2.229329e+02	-2.535591e+01
2.242205e+02	-2.540571e+01
2.255156e+02	-2.545527e+01
2.268182e+02	-2.550494e+01
2.281283e+02	-2.555412e+01
2.294459e+02	-2.560690e+01
2.307712e+02	-2.565676e+01
2.321041e+02	-2.570574e+01
2.334447e+02	-2.575589e+01
2.347931e+02	-2.580737e+01
2.361493e+02	-2.585854e+01
2.375133e+02	-2.590552e+01
2.388851e+02	-2.595702e+01
2.402649e+02	-2.600561e+01
2.416527e+02	-2.605644e+01
2.430484e+02	-2.610640e+01
2.444523e+02	-2.615390e+01
2.458642e+02	-2.620878e+01
2.472843e+02	-2.625817e+01
2.487126e+02	-2.630451e+01
2.501492e+02	-2.635455e+01
2.515940e+02	-2.640847e+01
2.530472e+02	-2.645512e+01
2.545088e+02	-2.650792e+01
2.559789e+02	-2.655828e+01
2.574574e+02	-2.660341e+01
2.589444e+02	-2.665343e+01
2.604401e+02	-2.670429e+01
2.619444e+02	-2.675692e+01
2.634574e+02	-2.680541e+01
2.649791e+02	-2.685426e+01
2.665096e+02	-2.690567e+01
2.680489e+02	-2.695767e+01
2.695972e+02	-2.700497e+01
2.711544e+02	-2.705869e+01
2.727205e+02	-2.710489e+01
2.742958e+02	-2.715479e+01
2.758801e+02	-2.720246e+01
2.774736e+02	-2.725527e+01
2.790762e+02	-2.730948e+01
2.806882e+02	-2.735785e+01
2.823094e+02	-2.740309e+01
2.839400e+02	-2.745677e+01
2.855800e+02	-2.750448e+01
2.872295e+02	-2.755440e+01
2.888886e+02	-2.760663e+01
2.905572e+02	-2.765351e+01
2.922354e+02	-2.770432e+01
2.939234e+02	-2.775396e+01
2.956211e+02	-2.780083e+01
2.973286e+02	-2.785095e+01
2.990459e+02	-2.790919e+01
3.007732e+02	-2.795517e+01
3.025104e+02	-2.800687e+01
3.042577e+02	-2.805619e+01
3.060151e+02	-2.810421e+01
3.077826e+02	-2.815420e+01
3.095604e+02	-2.820578e+01
3.113484e+02	-2.825647e+01
3.131467e+02	-2.830722e+01
3.149554e+02	-2.835747e+01
3.167746e+02	-2.840641e+01
3.186043e+02	-2.845770e+01
3.204445e+02	-2.850326e+01
3.222954e+02	-2.855187e+01
3.241570e+02	-2.860965e+01
3.260293e+02	-2.865892e+01
3.279124e+02	-2.871047e+01
3.298064e+02	-2.875669e+01
3.317114e+02	-2.879963e+01
3.336273e+02	-2.885617e+01
3.355544e+02	-2.890679e+01
3.374925e+02	-2.895937e+01
3.394418e+02	-2.900481e+01
3.414024e+02	-2.905778e+01
3.433744e+02	-2.910626e+01
3.453577e+02	-2.915878e+01
3.473525e+02	-2.920596e+01
3.493588e+02	-2.925931e+01
3.513766e+02	-2.930778e+01
3.534062e+02	-2.935625e+01
3.554474e+02	-2.940944e+01
3.575005e+02	-2.945464e+01
3.595654e+02	-2.950891e+01
3.616422e+02	-2.955701e+01
3.637311e+02	-2.960873e+01
3.658320e+02	-2.965129e+01
3.679450e+02	-2.970706e+01
3.700702e+02	-2.975677e+01
3.722077e+02	-2.980966e+01
3.743576e+02	-2.985936e+01
3.765199e+02	-2.990886e+01
3.786946e+02	-2.996327e+01
3.808820e+02	-3.001057e+01
3.830819e+02	-3.005775e+01
3.852946e+02	-3.011158e+01
3.875200e+02	-3.015356e+01
3.897583e+02	-3.020989e+01
3.920096e+02	-3.025792e+01
3.942738e+02	-3.031308e+01
3.965511e+02	-3.035823e+01
3.988416e+02	-3.040568e+01
4.011452e+02	-3.046175e+01
4.034622e+02	-3.050669e+01
4.057926e+02	-3.056214e+01
4.081365e+02	-3.060936e+01
4.104938e+02	-3.065296e+01
4.128648e+02	-3.071022e+01
4.152495e+02	-3.076309e+01
4.176480e+02	-3.080848e+01
4.200603e+02	-3.086176e+01
4.224866e+02	-3.091506e+01
4.249268e+02	-3.095507e+01
4.273812e+02	-3.100838e+01
4.298497e+02	-3.105786e+01
4.323325e+02	-3.111232e+01
4.348297e+02	-3.116355e+01
4.373412e+02	-3.121369e+01
4.398673e+02	-3.126138e+01
4.424079e+02	-3.130987e+01
4.449633e+02	-3.136397e+01
4.475334e+02	-3.140966e+01
4.501183e+02	-3.145712e+01
4.527182e+02	-3.150727e+01
4.553330e+02	-3.155481e+01
4.579630e+02	-3.161087e+01
4.606082e+02	-3.165499e+01
4.632687e+02	-3.171532e+01
4.659445e+02	-3.176295e+01
4.686358e+02	-3.181771e+01
4.713426e+02	-3.186123e+01
4.740650e+02	-3.191519e+01
4.768032e+02	-3.196000e+01
4.795572e+02	-3.200884e+01
4.823271e+02	-3.206035e+01
4.851130e+02	-3.211142e+01
4.879150e+02	-3.217177e+01
4.907332e+02	-3.221346e+01
4.935676e+02	-3.225948e+01
4.964185e+02	-3.231722e+01
4.992858e+02	-3.236770e+01
5.021696e+02	-3.241050e+01
5.050701e+02	-3.246382e+01
5.079874e+02	-3.251613e+01
5.109215e+02	-3.257070e+01
5.138726e+02	-3.261592e+01
5.168407e+02	-3.266996e+01
5.198259e+02	-3.271906e+01
5.228284e+02	-3.276228e+01
5.258482e+02	-3.281651e+01
5.288855e+02	-3.287247e+01
5.319403e+02	-3.291655e+01
5.350128e+02	-3.296391e+01
5.381030e+02	-3.301782e+01
5.412111e+02	-3.306897e+01
5.443371e+02	-3.312823e+01
5.474812e+02	-3.317712e+01
5.506434e+02	-3.322169e+01
5.538239e+02	-3.326824e+01
5.570228e+02	-3.332217e+01
5.602401e+02	-3.336857e+01
5.634760e+02	-3.342286e+01
5.667306e+02	-3.347808e+01
5.700040e+02	-3.351785e+01
5.732964e+02	-3.356466e+01
5.766077e+02	-3.362391e+01
5.799382e+02	-3.367418e+01
5.832879e+02	-3.372456e+01
5.866569e+02	-3.376947e+01
5.900454e+02	-3.382271e+01
5.934535e+02	-3.387827e+01
5.968813e+02	-3.392215e+01
6.003288e+02	-3.398015e+01
6.037963e+02	-3.402280e+01
6.072838e+02	-3.408160e+01
6.107914e+02	-3.412625e+01
6.143194e+02	-3.418232e+01
6.178676e+02	-3.422272e+01
6.214364e+02	-3.427849e+01
6.250258e+02	-3.432533e+01
6.286359e+02	-3.437351e+01
6.322669e+02	-3.442238e+01
6.359189e+02	-3.448236e+01
6.395919e+02	-3.452334e+01
6.432862e+02	-3.457605e+01
6.470017e+02	-3.463396e+01
6.507388e+02	-3.467443e+01
6.544974e+02	-3.473124e+01
6.582778e+02	-3.477566e+01
6.620800e+02	-3.482979e+01
6.659041e+02	-3.487342e+01
6.697504e+02	-3.492658e+01
6.736188e+02	-3.497981e+01
6.775096e+02	-3.503344e+01
6.814229e+02	-3.508096e+01
6.853587e+02	-3.513358e+01
6.893173e+02	-3.517911e+01
6.932988e+02	-3.523489e+01
6.973033e+02	-3.528011e+01
7.013309e+02	-3.532286e+01
