Frequency(Hz)	Magnitude(dB)
1.000000e+01	-2.108065e+00
1.005776e+01	-2.127370e+00
1.011585e+01	-2.146946e+00
1.017428e+01	-2.166458e+00
1.023305e+01	-2.186032e+00
1.029215e+01	-2.206182e+00
1.035160e+01	-2.226108e+00
1.041139e+01	-2.245963e+00
1.047153e+01	-2.266315e+00
1.053201e+01	-2.286727e+00
1.059284e+01	-2.307172e+00
1.065403e+01	-2.328010e+00
1.071556e+01	-2.348866e+00
1.077746e+01	-2.369584e+00
1.083971e+01	-2.390877e+00
1.090232e+01	-2.412199e+00
1.096529e+01	-2.433429e+00
1.102862e+01	-2.455047e+00
1.109232e+01	-2.476692e+00
1.115639e+01	-2.498693e+00
1.122083e+01	-2.520744e+00
1.128564e+01	-2.542631e+00
1.135083e+01	-2.564905e+00
1.141639e+01	-2.587282e+00
1.148233e+01	-2.609643e+00
1.154865e+01	-2.632412e+00
1.161536e+01	-2.655331e+00
1.168245e+01	-2.677998e+00
1.174992e+01	-2.701258e+00
1.181779e+01	-2.724501e+00
1.188605e+01	-2.747890e+00
1.195470e+01	-2.771384e+00
1.202375e+01	-2.795202e+00
1.209320e+01	-2.818765e+00
1.216305e+01	-2.842935e+00
1.223330e+01	-2.867176e+00
1.230396e+01	-2.891353e+00
1.237503e+01	-2.915602e+00
1.244651e+01	-2.940037e+00
1.251840e+01	-2.965053e+00
1.259070e+01	-2.989469e+00
1.266343e+01	-3.014474e+00
1.273657e+01	-3.039735e+00
1.281014e+01	-3.065218e+00
1.288413e+01	-3.090379e+00
1.295855e+01	-3.115784e+00
1.303339e+01	-3.141583e+00
1.310867e+01	-3.167351e+00
1.318439e+01	-3.193676e+00
1.326054e+01	-3.219449e+00
1.333713e+01	-3.245664e+00
1.341417e+01	-3.272223e+00
1.349165e+01	-3.298676e+00
1.356958e+01	-3.325410e+00
1.364795e+01	-3.352082e+00
1.372678e+01	-3.379252e+00
1.380607e+01	-3.406231e+00
1.388581e+01	-3.433453e+00
1.396602e+01	-3.461228e+00
1.404668e+01	-3.488529e+00
1.412782e+01	-3.516004e+00
1.420942e+01	-3.544027e+00
1.429149e+01	-3.572061e+00
1.437404e+01	-3.600288e+00
1.445706e+01	-3.628527e+00
1.454057e+01	-3.656998e+00
1.462455e+01	-3.685526e+00
1.470902e+01	-3.714143e+00
1.479398e+01	-3.743080e+00
1.487943e+01	-3.772036e+00
1.496537e+01	-3.800822e+00
1.505181e+01	-3.830563e+00
1.513875e+01	-3.859759e+00
1.522619e+01	-3.889198e+00
1.531414e+01	-3.918741e+00
1.540259e+01	-3.948823e+00
1.549156e+01	-3.978646e+00
1.558103e+01	-4.008652e+00
1.567103e+01	-4.038706e+00
1.576155e+01	-4.069405e+00
1.585258e+01	-4.099701e+00
1.594415e+01	-4.130411e+00
1.603624e+01	-4.161065e+00
1.612886e+01	-4.192156e+00
1.622202e+01	-4.223271e+00
1.631572e+01	-4.254229e+00
1.640996e+01	-4.285490e+00
1.650474e+01	-4.317076e+00
1.660008e+01	-4.348748e+00
1.669596e+01	-4.380070e+00
1.679239e+01	-4.412144e+00
1.688938e+01	-4.444223e+00
1.698694e+01	-4.476233e+00
1.708505e+01	-4.508596e+00
1.718373e+01	-4.540777e+00
1.728299e+01	-4.573261e+00
1.738281e+01	-4.606115e+00
1.748322e+01	-4.638593e+00
1.758420e+01	-4.671667e+00
1.768576e+01	-4.704782e+00
1.778792e+01	-4.737758e+00
1.789066e+01	-4.770999e+00
1.799399e+01	-4.804289e+00
1.809793e+01	-4.838106e+00
1.820246e+01	-4.871458e+00
1.830760e+01	-4.905469e+00
1.841334e+01	-4.939541e+00
1.851969e+01	-4.973374e+00
1.862666e+01	-5.007532e+00
1.873425e+01	-5.041821e+00
1.884246e+01	-5.076331e+00
1.895129e+01	-5.110703e+00
1.906075e+01	-5.145702e+00
1.917085e+01	-5.180463e+00
1.928158e+01	-5.215270e+00
1.939295e+01	-5.250436e+00
1.950496e+01	-5.285491e+00
1.961762e+01	-5.321069e+00
1.973093e+01	-5.356025e+00
1.984490e+01	-5.391732e+00
1.995952e+01	-5.427244e+00
2.007480e+01	-5.463123e+00
2.019076e+01	-5.499194e+00
2.030738e+01	-5.534723e+00
2.042467e+01	-5.571000e+00
2.054264e+01	-5.607276e+00
2.066130e+01	-5.643788e+00
2.078064e+01	-5.679805e+00
2.090066e+01	-5.716613e+00
2.102139e+01	-5.753144e+00
2.114280e+01	-5.789710e+00
2.126492e+01	-5.826882e+00
2.138775e+01	-5.863683e+00
2.151128e+01	-5.901050e+00
2.163553e+01	-5.938292e+00
2.176050e+01	-5.975419e+00
2.188619e+01	-6.012732e+00
2.201260e+01	-6.050564e+00
2.213974e+01	-6.088017e+00
2.226762e+01	-6.125629e+00
2.239624e+01	-6.164109e+00
2.252560e+01	-6.202059e+00
2.265571e+01	-6.239769e+00
2.278656e+01	-6.278116e+00
2.291818e+01	-6.316417e+00
2.305055e+01	-6.354719e+00
2.318369e+01	-6.393547e+00
2.331760e+01	-6.431728e+00
2.345228e+01	-6.470333e+00
2.358774e+01	-6.509655e+00
2.372398e+01	-6.547929e+00
2.386101e+01	-6.587366e+00
2.399883e+01	-6.626759e+00
2.413745e+01	-6.665830e+00
2.427686e+01	-6.705082e+00
2.441709e+01	-6.744348e+00
2.455812e+01	-6.783786e+00
2.469997e+01	-6.823094e+00
2.484263e+01	-6.863365e+00
2.498612e+01	-6.903166e+00
2.513044e+01	-6.942594e+00
2.527559e+01	-6.982698e+00
2.542158e+01	-7.022363e+00
2.556842e+01	-7.063323e+00
2.571610e+01	-7.103180e+00
2.586463e+01	-7.143537e+00
2.601403e+01	-7.183479e+00
2.616428e+01	-7.224421e+00
2.631541e+01	-7.264907e+00
2.646740e+01	-7.305671e+00
2.662028e+01	-7.346130e+00
2.677404e+01	-7.387243e+00
2.692868e+01	-7.427896e+00
2.708422e+01	-7.469118e+00
2.724066e+01	-7.510095e+00
2.739800e+01	-7.551654e+00
2.755625e+01	-7.592842e+00
2.771541e+01	-7.634520e+00
2.787550e+01	-7.675198e+00
2.803650e+01	-7.717100e+00
2.819844e+01	-7.758237e+00
2.836131e+01	-7.800562e+00
2.852513e+01	-7.842340e+00
2.868989e+01	-7.883681e+00
2.885560e+01	-7.925462e+00
2.902227e+01	-7.968079e+00
2.918990e+01	-8.010096e+00
2.935850e+01	-8.051467e+00
2.952807e+01	-8.094247e+00
2.969863e+01	-8.136425e+00
2.987016e+01	-8.179170e+00
3.004269e+01	-8.221185e+00
3.021622e+01	-8.264164e+00
3.039075e+01	-8.306404e+00
3.056628e+01	-8.349502e+00
3.074283e+01	-8.392226e+00
3.092040e+01	-8.434830e+00
3.109900e+01	-8.477887e+00
3.127862e+01	-8.520344e+00
3.145929e+01	-8.563416e+00
3.164099e+01	-8.606773e+00
3.182375e+01	-8.650014e+00
3.200756e+01	-8.693328e+00
3.219244e+01	-8.736498e+00
3.237838e+01	-8.780077e+00
3.256540e+01	-8.823716e+00
3.275349e+01	-8.867027e+00
3.294268e+01	-8.910439e+00
3.313295e+01	-8.953626e+00
3.332433e+01	-8.998006e+00
3.351681e+01	-9.041636e+00
3.371040e+01	-9.085390e+00
3.390511e+01	-9.129207e+00
3.410094e+01	-9.172258e+00
3.429791e+01	-9.217020e+00
3.449601e+01	-9.260923e+00
3.469526e+01	-9.304903e+00
3.489566e+01	-9.349361e+00
3.509721e+01	-9.393467e+00
3.529993e+01	-9.437793e+00
3.550382e+01	-9.482732e+00
3.570889e+01	-9.526639e+00
3.591515e+01	-9.571423e+00
3.612259e+01	-9.615647e+00
3.633123e+01	-9.660136e+00
3.654108e+01	-9.704843e+00
3.675214e+01	-9.749688e+00
3.696442e+01	-9.794775e+00
3.717792e+01	-9.839172e+00
3.739266e+01	-9.884437e+00
3.760864e+01	-9.928729e+00
3.782587e+01	-9.973878e+00
3.804435e+01	-1.001946e+01
3.826409e+01	-1.006386e+01
3.848510e+01	-1.010891e+01
3.870739e+01	-1.015460e+01
3.893096e+01	-1.019984e+01
3.915583e+01	-1.024479e+01
3.938199e+01	-1.029001e+01
3.960946e+01	-1.033574e+01
3.983824e+01	-1.038099e+01
4.006834e+01	-1.042651e+01
4.029978e+01	-1.047208e+01
4.053255e+01	-1.051763e+01
4.076666e+01	-1.056326e+01
4.100213e+01	-1.060852e+01
4.123896e+01	-1.065468e+01
4.147715e+01	-1.070079e+01
4.171672e+01	-1.074603e+01
4.195767e+01	-1.079191e+01
4.220002e+01	-1.083737e+01
4.244377e+01	-1.088367e+01
4.268892e+01	-1.092941e+01
4.293549e+01	-1.097585e+01
4.318348e+01	-1.102211e+01
4.343291e+01	-1.106758e+01
4.368377e+01	-1.111400e+01
4.393609e+01	-1.116018e+01
4.418986e+01	-1.120647e+01
4.444510e+01	-1.125259e+01
4.470182e+01	-1.129858e+01
4.496001e+01	-1.134476e+01
4.521970e+01	-1.139198e+01
4.548089e+01	-1.143815e+01
4.574358e+01	-1.148421e+01
4.600779e+01	-1.153140e+01
4.627353e+01	-1.157781e+01
4.654081e+01	-1.162396e+01
4.680963e+01	-1.166994e+01
4.708000e+01	-1.171668e+01
4.735193e+01	-1.176387e+01
4.762543e+01	-1.181076e+01
4.790051e+01	-1.185795e+01
4.817719e+01	-1.190453e+01
4.845545e+01	-1.195101e+01
4.873533e+01	-1.199802e+01
4.901682e+01	-1.204493e+01
4.929994e+01	-1.209190e+01
4.958470e+01	-1.213853e+01
4.987110e+01	-1.218539e+01
5.015915e+01	-1.223293e+01
5.044887e+01	-1.228001e+01
5.074026e+01	-1.232645e+01
5.103333e+01	-1.237392e+01
5.132810e+01	-1.242035e+01
5.162457e+01	-1.246873e+01
5.192275e+01	-1.251558e+01
5.222265e+01	-1.256217e+01
5.252429e+01	-1.260997e+01
5.282767e+01	-1.265704e+01
5.313280e+01	-1.270471e+01
5.343969e+01	-1.275218e+01
5.374836e+01	-1.279922e+01
5.405880e+01	-1.284681e+01
5.437105e+01	-1.289428e+01
5.468509e+01	-1.294125e+01
5.500095e+01	-1.298883e+01
5.531863e+01	-1.303713e+01
5.563815e+01	-1.308404e+01
5.595951e+01	-1.313215e+01
5.628273e+01	-1.317940e+01
5.660782e+01	-1.322702e+01
5.693479e+01	-1.327483e+01
5.726364e+01	-1.332219e+01
5.759439e+01	-1.337034e+01
5.792705e+01	-1.341832e+01
5.826164e+01	-1.346486e+01
5.859815e+01	-1.351312e+01
5.893662e+01	-1.356070e+01
5.927703e+01	-1.360855e+01
5.961941e+01	-1.365707e+01
5.996377e+01	-1.370470e+01
6.031012e+01	-1.375294e+01
6.065847e+01	-1.380067e+01
6.100883e+01	-1.384925e+01
6.136121e+01	-1.389634e+01
6.171563e+01	-1.394459e+01
6.207210e+01	-1.399243e+01
6.243063e+01	-1.404109e+01
6.279122e+01	-1.408895e+01
6.315390e+01	-1.413631e+01
6.351868e+01	-1.418486e+01
6.388556e+01	-1.423275e+01
6.425456e+01	-1.428108e+01
6.462569e+01	-1.432952e+01
6.499897e+01	-1.437767e+01
6.537440e+01	-1.442550e+01
6.575200e+01	-1.447285e+01
6.613178e+01	-1.452198e+01
6.651375e+01	-1.457011e+01
6.689793e+01	-1.461859e+01
6.728433e+01	-1.466692e+01
6.767297e+01	-1.471548e+01
6.806384e+01	-1.476313e+01
6.845698e+01	-1.481146e+01
6.885238e+01	-1.486116e+01
6.925007e+01	-1.490953e+01
6.965005e+01	-1.495773e+01
7.005235e+01	-1.500545e+01
7.045697e+01	-1.505439e+01
7.086393e+01	-1.510308e+01
7.127323e+01	-1.515103e+01
7.168490e+01	-1.519999e+01
7.209895e+01	-1.524826e+01
7.251539e+01	-1.529724e+01
7.293424e+01	-1.534526e+01
7.335551e+01	-1.539369e+01
7.377920e+01	-1.544322e+01
7.420535e+01	-1.549063e+01
7.463396e+01	-1.553925e+01
7.506504e+01	-1.558849e+01
7.549861e+01	-1.563772e+01
7.593469e+01	-1.568583e+01
7.637328e+01	-1.573476e+01
7.681441e+01	-1.578380e+01
7.725809e+01	-1.583169e+01
7.770433e+01	-1.588040e+01
7.815315e+01	-1.592942e+01
7.860456e+01	-1.597807e+01
7.905857e+01	-1.602646e+01
7.951521e+01	-1.607584e+01
7.997449e+01	-1.612486e+01
8.043642e+01	-1.617267e+01
8.090102e+01	-1.622228e+01
8.136830e+01	-1.627093e+01
8.183828e+01	-1.632004e+01
8.231097e+01	-1.636869e+01
8.278640e+01	-1.641664e+01
8.326457e+01	-1.646699e+01
8.374550e+01	-1.651542e+01
8.422921e+01	-1.656553e+01
8.471572e+01	-1.661323e+01
8.520503e+01	-1.666258e+01
8.569717e+01	-1.671292e+01
8.619215e+01	-1.676034e+01
8.669000e+01	-1.680860e+01
8.719071e+01	-1.685680e+01
8.769432e+01	-1.690657e+01
8.820084e+01	-1.695605e+01
8.871029e+01	-1.700478e+01
8.922267e+01	-1.705381e+01
8.973802e+01	-1.710309e+01
9.025634e+01	-1.715241e+01
9.077766e+01	-1.720052e+01
9.130199e+01	-1.725018e+01
9.182935e+01	-1.729999e+01
9.235975e+01	-1.734881e+01
9.289321e+01	-1.739745e+01
9.342976e+01	-1.744716e+01
9.396941e+01	-1.749586e+01
9.451217e+01	-1.754437e+01
9.505807e+01	-1.759420e+01
9.560712e+01	-1.764401e+01
9.615934e+01	-1.769184e+01
9.671476e+01	-1.774196e+01
9.727338e+01	-1.779074e+01
9.783522e+01	-1.784092e+01
9.840032e+01	-1.788927e+01
9.896867e+01	-1.793861e+01
9.954031e+01	-1.798677e+01
1.001153e+02	-1.803650e+01
1.006935e+02	-1.808522e+01
1.012751e+02	-1.813487e+01
1.018601e+02	-1.818408e+01
1.024484e+02	-1.823500e+01
1.030402e+02	-1.828401e+01
1.036353e+02	-1.833235e+01
1.042339e+02	-1.838210e+01
1.048360e+02	-1.843114e+01
1.054415e+02	-1.848105e+01
1.060505e+02	-1.853059e+01
1.066631e+02	-1.857989e+01
1.072791e+02	-1.862964e+01
1.078988e+02	-1.867893e+01
1.085220e+02	-1.872769e+01
1.091488e+02	-1.877728e+01
1.097793e+02	-1.882749e+01
1.104133e+02	-1.887410e+01
1.110511e+02	-1.892444e+01
1.116925e+02	-1.897389e+01
1.123376e+02	-1.902433e+01
1.129865e+02	-1.907365e+01
1.136391e+02	-1.912256e+01
1.142955e+02	-1.917124e+01
1.149556e+02	-1.922068e+01
1.156196e+02	-1.927047e+01
1.162874e+02	-1.932033e+01
1.169591e+02	-1.936914e+01
1.176347e+02	-1.942097e+01
1.183141e+02	-1.947073e+01
1.189975e+02	-1.952037e+01
1.196848e+02	-1.956867e+01
1.203761e+02	-1.961718e+01
1.210714e+02	-1.966631e+01
1.217707e+02	-1.971572e+01
1.224740e+02	-1.976548e+01
1.231814e+02	-1.981668e+01
1.238929e+02	-1.986356e+01
1.246085e+02	-1.991480e+01
1.253283e+02	-1.996419e+01
1.260522e+02	-2.001400e+01
1.267802e+02	-2.006365e+01
1.275125e+02	-2.011213e+01
1.282490e+02	-2.016108e+01
1.289898e+02	-2.020981e+01
1.297348e+02	-2.026302e+01
1.304842e+02	-2.031232e+01
1.312378e+02	-2.036156e+01
1.319959e+02	-2.041094e+01
1.327583e+02	-2.045932e+01
1.335251e+02	-2.050903e+01
1.342963e+02	-2.055744e+01
1.350720e+02	-2.060760e+01
1.358522e+02	-2.065759e+01
1.366368e+02	-2.070819e+01
1.374260e+02	-2.075764e+01
1.382198e+02	-2.080586e+01
1.390182e+02	-2.085649e+01
1.398211e+02	-2.090512e+01
1.406287e+02	-2.095655e+01
1.414410e+02	-2.100369e+01
1.422579e+02	-2.105571e+01
1.430796e+02	-2.110408e+01
1.439060e+02	-2.115253e+01
1.447372e+02	-2.120228e+01
1.455732e+02	-2.125385e+01
1.464141e+02	-2.130174e+01
1.472597e+02	-2.135212e+01
1.481103e+02	-2.140118e+01
1.489658e+02	-2.145150e+01
1.498262e+02	-2.150269e+01
1.506916e+02	-2.155035e+01
1.515620e+02	-2.160273e+01
1.524374e+02	-2.165024e+01
1.533179e+02	-2.170114e+01
1.542034e+02	-2.175005e+01
1.550941e+02	-2.179905e+01
1.559899e+02	-2.184956e+01
1.568909e+02	-2.189985e+01
1.577971e+02	-2.194993e+01
1.587085e+02	-2.199928e+01
1.596252e+02	-2.204788e+01
1.605472e+02	-2.209886e+01
1.614745e+02	-2.214805e+01
1.624072e+02	-2.219810e+01
1.633453e+02	-2.224675e+01
1.642887e+02	-2.229600e+01
1.652377e+02	-2.234640e+01
1.661921e+02	-2.239459e+01
1.671520e+02	-2.244485e+01
1.681175e+02	-2.249835e+01
1.690885e+02	-2.254687e+01
1.700651e+02	-2.259656e+01
1.710474e+02	-2.264711e+01
1.720354e+02	-2.269466e+01
1.730291e+02	-2.274331e+01
1.740285e+02	-2.279570e+01
1.750337e+02	-2.284345e+01
1.760446e+02	-2.289585e+01
1.770615e+02	-2.294434e+01
1.780842e+02	-2.299358e+01
1.791128e+02	-2.304270e+01
1.801473e+02	-2.309475e+01
1.811878e+02	-2.314343e+01
1.822344e+02	-2.319340e+01
1.832870e+02	-2.324374e+01
1.843456e+02	-2.329486e+01
1.854104e+02	-2.334362e+01
1.864813e+02	-2.339112e+01
1.875584e+02	-2.344178e+01
1.886418e+02	-2.349291e+01
1.897313e+02	-2.354261e+01
1.908272e+02	-2.358836e+01
1.919294e+02	-2.364036e+01
1.930380e+02	-2.368938e+01
1.941530e+02	-2.374116e+01
1.952744e+02	-2.379257e+01
1.964023e+02	-2.383849e+01
1.975367e+02	-2.389017e+01
1.986777e+02	-2.394012e+01
1.998252e+02	-2.399184e+01
2.009794e+02	-2.404057e+01
2.021403e+02	-2.409109e+01
2.033078e+02	-2.414081e+01
2.044821e+02	-2.419049e+01
2.056632e+02	-2.423896e+01
2.068511e+02	-2.429033e+01
2.080459e+02	-2.433955e+01
2.092475e+02	-2.439004e+01
2.104561e+02	-2.443919e+01
2.116717e+02	-2.449137e+01
2.128943e+02	-2.453906e+01
2.141240e+02	-2.458828e+01
2.153608e+02	-2.463939e+01
2.166047e+02	-2.468992e+01
2.178558e+02	-2.474072e+01
2.191141e+02	-2.478830e+01
2.203797e+02	-2.483755e+01
2.216526e+02	-2.488689e+01
2.229329e+02	-2.493895e+01
2.242205e+02	-2.498850e+01
2.255156e+02	-2.503830e+01
2.268182e+02	-2.508848e+01
2.281283e+02	-2.513628e+01
2.294459e+02	-2.518886e+01
2.307712e+02	-2.523438e+01
2.321041e+02	-2.528663e+01
2.334447e+02	-2.533787e+01
2.347931e+02	-2.538751e+01
2.361493e+02	-2.543565e+01
2.375133e+02	-2.548843e+01
2.388851e+02	-2.553721e+01
2.402649e+02	-2.558856e+01
2.416527e+02	-2.563729e+01
2.430484e+02	-2.568755e+01
2.444523e+02	-2.573754e+01
2.458642e+02	-2.578867e+01
2.472843e+02	-2.584019e+01
2.487126e+02	-2.588772e+01
2.501492e+02	-2.593847e+01
2.515940e+02	-2.598982e+01
2.530472e+02	-2.603504e+01
2.545088e+02	-2.608775e+01
2.559789e+02	-2.613575e+01
2.574574e+02	-2.618525e+01
2.589444e+02	-2.623554e+01
2.604401e+02	-2.628568e+01
2.619444e+02	-2.633570e+01
2.634574e+02	-2.638787e+01
2.649791e+02	-2.643717e+01
2.665096e+02	-2.648714e+01
2.680489e+02	-2.653895e+01
2.695972e+02	-2.658875e+01
2.711544e+02	-2.663644e+01
2.727205e+02	-2.668682e+01
2.742958e+02	-2.673724e+01
2.758801e+02	-2.678676e+01
2.774736e+02	-2.683530e+01
2.790762e+02	-2.688516e+01
2.806882e+02	-2.693553e+01
2.823094e+02	-2.698536e+01
2.839400e+02	-2.703475e+01
2.855800e+02	-2.708800e+01
2.872295e+02	-2.713402e+01
2.888886e+02	-2.718590e+01
2.905572e+02	-2.723601e+01
2.922354e+02	-2.728502e+01
2.939234e+02	-2.734015e+01
2.956211e+02	-2.738706e+01
2.973286e+02	-2.743618e+01
2.990459e+02	-2.748285e+01
3.007732e+02	-2.753750e+01
3.025104e+02	-2.758481e+01
3.042577e+02	-2.763169e+01
3.060151e+02	-2.768579e+01
3.077826e+02	-2.773556e+01
3.095604e+02	-2.778654e+01
3.113484e+02	-2.783536e+01
3.131467e+02	-2.788502e+01
3.149554e+02	-2.793668e+01
3.167746e+02	-2.798528e+01
3.186043e+02	-2.803385e+01
3.204445e+02	-2.808691e+01
3.222954e+02	-2.813382e+01
3.241570e+02	-2.818209e+01
3.260293e+02	-2.823150e+01
3.279124e+02	-2.828374e+01
3.298064e+02	-2.833503e+01
3.317114e+02	-2.838445e+01
3.336273e+02	-2.843578e+01
3.355544e+02	-2.848934e+01
3.374925e+02	-2.853474e+01
3.394418e+02	-2.858220e+01
3.414024e+02	-2.863382e+01
3.433744e+02	-2.868862e+01
3.453577e+02	-2.873344e+01
3.473525e+02	-2.878489e+01
3.493588e+02	-2.883460e+01
3.513766e+02	-2.888467e+01
3.534062e+02	-2.893472e+01
3.554474e+02	-2.898723e+01
3.575005e+02	-2.903528e+01
3.595654e+02	-2.908999e+01
3.616422e+02	-2.914216e+01
3.637311e+02	-2.918445e+01
3.658320e+02	-2.923210e+01
3.679450e+02	-2.928357e+01
3.700702e+02	-2.933778e+01
3.722077e+02	-2.939176e+01
3.743576e+02	-2.943493e+01
3.765199e+02	-2.948922e+01
3.786946e+02	-2.954468e+01
3.808820e+02	-2.958401e+01
3.830819e+02	-2.963638e+01
3.852946e+02	-2.968762e+01
3.875200e+02	-2.973700e+01
3.897583e+02	-2.979143e+01
3.920096e+02	-2.983887e+01
3.942738e+02	-2.988631e+01
3.965511e+02	-2.993967e+01
3.988416e+02	-2.998842e+01
4.011452e+02	-3.003863e+01
4.034622e+02	-3.009270e+01
4.057926e+02	-3.013874e+01
4.081365e+02	-3.018833e+01
4.104938e+02	-3.023915e+01
4.128648e+02	-3.029042e+01
4.152495e+02	-3.033804e+01
4.176480e+02	-3.038810e+01
4.200603e+02	-3.043760e+01
4.224866e+02	-3.049223e+01
4.249268e+02	-3.053886e+01
4.273812e+02	-3.058290e+01
4.298497e+02	-3.064087e+01
4.323325e+02	-3.069074e+01
4.348297e+02	-3.074090e+01
4.373412e+02	-3.079166e+01
4.398673e+02	-3.083725e+01
4.424079e+02	-3.089117e+01
4.449633e+02	-3.094497e+01
4.475334e+02	-3.098862e+01
4.501183e+02	-3.103663e+01
4.527182e+02	-3.109580e+01
4.553330e+02	-3.114365e+01
4.579630e+02	-3.118908e+01
4.606082e+02	-3.123864e+01
4.632687e+02	-3.129138e+01
4.659445e+02	-3.133710e+01
4.686358e+02	-3.139315e+01
4.713426e+02	-3.144780e+01
4.740650e+02	-3.148686e+01
4.768032e+02	-3.153958e+01
4.795572e+02	-3.158977e+01
4.823271e+02	-3.164233e+01
4.851130e+02	-3.169507e+01
4.879150e+02	-3.174097e+01
4.907332e+02	-3.179410e+01
4.935676e+02	-3.184414e+01
4.964185e+02	-3.188978e+01
4.992858e+02	-3.194858e+01
5.021696e+02	-3.199214e+01
5.050701e+02	-3.204601e+01
5.079874e+02	-3.209692e+01
5.109215e+02	-3.214361e+01
5.138726e+02	-3.219101e+01
5.168407e+02	-3.224992e+01
5.198259e+02	-3.229646e+01
5.228284e+02	-3.234496e+01
5.258482e+02	-3.239962e+01
5.288855e+02	-3.244446e+01
5.319403e+02	-3.248664e+01
5.350128e+02	-3.254486e+01
5.381030e+02	-3.260216e+01
5.412111e+02	-3.264333e+01
5.443371e+02	-3.269705e+01
5.474812e+02	-3.275041e+01
5.506434e+02	-3.279577e+01
5.538239e+02	-3.284694e+01
5.570228e+02	-3.290090e+01
5.602401e+02	-3.294614e+01
5.634760e+02	-3.299340e+01
5.667306e+02	-3.304977e+01
5.700040e+02	-3.310027e+01
5.732964e+02	-3.314953e+01
5.766077e+02	-3.320287e+01
5.799382e+02	-3.325635e+01
5.832879e+02	-3.330355e+01
5.866569e+02	-3.335498e+01
5.900454e+02	-3.340451e+01
5.934535e+02	-3.345364e+01
5.968813e+02	-3.349821e+01
6.003288e+02	-3.355663e+01
6.037963e+02	-3.359572e+01
6.072838e+02	-3.365894e+01
6.107914e+02	-3.369874e+01
6.143194e+02	-3.375260e+01
6.178676e+02	-3.379879e+01
6.214364e+02	-3.386048e+01
6.250258e+02	-3.390569e+01
6.286359e+02	-3.395487e+01
6.322669e+02	-3.400458e+01
6.359189e+02	-3.405706e+01
6.395919e+02	-3.410169e+01
6.432862e+02	-3.415523e+01
6.470017e+02	-3.420316e+01
6.507388e+02	-3.425650e+01
6.544974e+02	-3.430001e+01
6.582778e+02	-3.434928e+01
6.620800e+02	-3.440725e+01
6.659041e+02	-3.445888e+01
6.697504e+02	-3.450292e+01
6.736188e+02	-3.455499e+01
6.775096e+02	-3.460688e+01
6.814229e+02	-3.465639e+01
6.853587e+02	-3.470256e+01
6.893173e+02	-3.476594e+01
6.932988e+02	-3.480530e+01
6.973033e+02	-3.485918e+01
7.013309e+02	-3.491591e+01
