Frequency(Hz)	Magnitude(dB)
1.000000e+01	-2.113505e+00
1.005776e+01	-2.132878e+00
1.011585e+01	-2.152497e+00
1.017428e+01	-2.171951e+00
1.023305e+01	-2.191843e+00
1.029215e+01	-2.211697e+00
1.035160e+01	-2.231507e+00
1.041139e+01	-2.251695e+00
1.047153e+01	-2.272049e+00
1.053201e+01	-2.292566e+00
1.059284e+01	-2.313135e+00
1.065403e+01	-2.333962e+00
1.071556e+01	-2.354866e+00
1.077746e+01	-2.375771e+00
1.083971e+01	-2.397039e+00
1.090232e+01	-2.418086e+00
1.096529e+01	-2.439754e+00
1.102862e+01	-2.461011e+00
1.109232e+01	-2.483012e+00
1.115639e+01	-2.504971e+00
1.122083e+01	-2.526904e+00
1.128564e+01	-2.548918e+00
1.135083e+01	-2.571317e+00
1.141639e+01	-2.593651e+00
1.148233e+01	-2.616152e+00
1.154865e+01	-2.638742e+00
1.161536e+01	-2.661713e+00
1.168245e+01	-2.684788e+00
1.174992e+01	-2.707987e+00
1.181779e+01	-2.731207e+00
1.188605e+01	-2.754377e+00
1.195470e+01	-2.778143e+00
1.202375e+01	-2.801880e+00
1.209320e+01	-2.825696e+00
1.216305e+01	-2.849643e+00
1.223330e+01	-2.873838e+00
1.230396e+01	-2.898262e+00
1.237503e+01	-2.922374e+00
1.244651e+01	-2.947091e+00
1.251840e+01	-2.971747e+00
1.259070e+01	-2.996762e+00
1.266343e+01	-3.021583e+00
1.273657e+01	-3.046943e+00
1.281014e+01	-3.072178e+00
1.288413e+01	-3.097556e+00
1.295855e+01	-3.123120e+00
1.303339e+01	-3.149020e+00
1.310867e+01	-3.174587e+00
1.318439e+01	-3.200708e+00
1.326054e+01	-3.227022e+00
1.333713e+01	-3.253038e+00
1.341417e+01	-3.279761e+00
1.349165e+01	-3.306334e+00
1.356958e+01	-3.333073e+00
1.364795e+01	-3.359678e+00
1.372678e+01	-3.387165e+00
1.380607e+01	-3.414091e+00
1.388581e+01	-3.441023e+00
1.396602e+01	-3.468880e+00
1.404668e+01	-3.496224e+00
1.412782e+01	-3.524225e+00
1.420942e+01	-3.552026e+00
1.429149e+01	-3.580117e+00
1.437404e+01	-3.608200e+00
1.445706e+01	-3.636313e+00
1.454057e+01	-3.665250e+00
1.462455e+01	-3.693403e+00
1.470902e+01	-3.722478e+00
1.479398e+01	-3.751184e+00
1.487943e+01	-3.779999e+00
1.496537e+01	-3.809201e+00
1.505181e+01	-3.838621e+00
1.513875e+01	-3.868075e+00
1.522619e+01	-3.897539e+00
1.531414e+01	-3.927143e+00
1.540259e+01	-3.957105e+00
1.549156e+01	-3.986963e+00
1.558103e+01	-4.016906e+00
1.567103e+01	-4.047326e+00
1.576155e+01	-4.078044e+00
1.585258e+01	-4.108346e+00
1.594415e+01	-4.139222e+00
1.603624e+01	-4.169686e+00
1.612886e+01	-4.200781e+00
1.622202e+01	-4.231842e+00
1.631572e+01	-4.263002e+00
1.640996e+01	-4.294704e+00
1.650474e+01	-4.325671e+00
1.660008e+01	-4.357659e+00
1.669596e+01	-4.389522e+00
1.679239e+01	-4.421129e+00
1.688938e+01	-4.453152e+00
1.698694e+01	-4.485386e+00
1.708505e+01	-4.517461e+00
1.718373e+01	-4.550104e+00
1.728299e+01	-4.582428e+00
1.738281e+01	-4.615496e+00
1.748322e+01	-4.648007e+00
1.758420e+01	-4.680978e+00
1.768576e+01	-4.713887e+00
1.778792e+01	-4.747281e+00
1.789066e+01	-4.780728e+00
1.799399e+01	-4.814116e+00
1.809793e+01	-4.847536e+00
1.820246e+01	-4.881272e+00
1.830760e+01	-4.915028e+00
1.841334e+01	-4.949036e+00
1.851969e+01	-4.983456e+00
1.862666e+01	-5.017485e+00
1.873425e+01	-5.051846e+00
1.884246e+01	-5.085853e+00
1.895129e+01	-5.120982e+00
1.906075e+01	-5.155425e+00
1.917085e+01	-5.190327e+00
1.928158e+01	-5.225233e+00
1.939295e+01	-5.259954e+00
1.950496e+01	-5.295013e+00
1.961762e+01	-5.331072e+00
1.973093e+01	-5.365912e+00
1.984490e+01	-5.401728e+00
1.995952e+01	-5.437689e+00
2.007480e+01	-5.473263e+00
2.019076e+01	-5.508985e+00
2.030738e+01	-5.544976e+00
2.042467e+01	-5.581378e+00
2.054264e+01	-5.617299e+00
2.066130e+01	-5.654210e+00
2.078064e+01	-5.690217e+00
2.090066e+01	-5.726918e+00
2.102139e+01	-5.763363e+00
2.114280e+01	-5.800308e+00
2.126492e+01	-5.837310e+00
2.138775e+01	-5.874445e+00
2.151128e+01	-5.911687e+00
2.163553e+01	-5.948544e+00
2.176050e+01	-5.986238e+00
2.188619e+01	-6.023726e+00
2.201260e+01	-6.061265e+00
2.213974e+01	-6.098903e+00
2.226762e+01	-6.136569e+00
2.239624e+01	-6.174449e+00
2.252560e+01	-6.212444e+00
2.265571e+01	-6.250538e+00
2.278656e+01	-6.289105e+00
2.291818e+01	-6.327210e+00
2.305055e+01	-6.365817e+00
2.318369e+01	-6.403780e+00
2.331760e+01	-6.442878e+00
2.345228e+01	-6.481655e+00
2.358774e+01	-6.520543e+00
2.372398e+01	-6.559079e+00
2.386101e+01	-6.598288e+00
2.399883e+01	-6.637332e+00
2.413745e+01	-6.676701e+00
2.427686e+01	-6.715926e+00
2.441709e+01	-6.755160e+00
2.455812e+01	-6.795217e+00
2.469997e+01	-6.834409e+00
2.484263e+01	-6.874177e+00
2.498612e+01	-6.914020e+00
2.513044e+01	-6.954034e+00
2.527559e+01	-6.993661e+00
2.542158e+01	-7.033884e+00
2.556842e+01	-7.074032e+00
2.571610e+01	-7.114185e+00
2.586463e+01	-7.154713e+00
2.601403e+01	-7.195021e+00
2.616428e+01	-7.235805e+00
2.631541e+01	-7.276362e+00
2.646740e+01	-7.317246e+00
2.662028e+01	-7.358005e+00
2.677404e+01	-7.398844e+00
2.692868e+01	-7.439643e+00
2.708422e+01	-7.480623e+00
2.724066e+01	-7.521993e+00
2.739800e+01	-7.563350e+00
2.755625e+01	-7.604772e+00
2.771541e+01	-7.646015e+00
2.787550e+01	-7.686991e+00
2.803650e+01	-7.728740e+00
2.819844e+01	-7.770393e+00
2.836131e+01	-7.812114e+00
2.852513e+01	-7.853989e+00
2.868989e+01	-7.895919e+00
2.885560e+01	-7.937562e+00
2.902227e+01	-7.979913e+00
2.918990e+01	-8.021992e+00
2.935850e+01	-8.064342e+00
2.952807e+01	-8.106285e+00
2.969863e+01	-8.148751e+00
2.987016e+01	-8.191159e+00
3.004269e+01	-8.233294e+00
3.021622e+01	-8.275890e+00
3.039075e+01	-8.318774e+00
3.056628e+01	-8.361374e+00
3.074283e+01	-8.404181e+00
3.092040e+01	-8.446698e+00
3.109900e+01	-8.490198e+00
3.127862e+01	-8.532641e+00
3.145929e+01	-8.575536e+00
3.164099e+01	-8.619231e+00
3.182375e+01	-8.662155e+00
3.200756e+01	-8.705593e+00
3.219244e+01	-8.748447e+00
3.237838e+01	-8.792554e+00
3.256540e+01	-8.835628e+00
3.275349e+01	-8.878843e+00
3.294268e+01	-8.921962e+00
3.313295e+01	-8.966134e+00
3.332433e+01	-9.009769e+00
3.351681e+01	-9.053760e+00
3.371040e+01	-9.097404e+00
3.390511e+01	-9.141055e+00
3.410094e+01	-9.185042e+00
3.429791e+01	-9.229480e+00
3.449601e+01	-9.273706e+00
3.469526e+01	-9.318086e+00
3.489566e+01	-9.361638e+00
3.509721e+01	-9.406173e+00
3.529993e+01	-9.450557e+00
3.550382e+01	-9.494545e+00
3.570889e+01	-9.538756e+00
3.591515e+01	-9.583482e+00
3.612259e+01	-9.628312e+00
3.633123e+01	-9.673194e+00
3.654108e+01	-9.718048e+00
3.675214e+01	-9.762119e+00
3.696442e+01	-9.806326e+00
3.717792e+01	-9.851775e+00
3.739266e+01	-9.896637e+00
3.760864e+01	-9.941535e+00
3.782587e+01	-9.986186e+00
3.804435e+01	-1.003201e+01
3.826409e+01	-1.007704e+01
3.848510e+01	-1.012195e+01
3.870739e+01	-1.016720e+01
3.893096e+01	-1.021270e+01
3.915583e+01	-1.025733e+01
3.938199e+01	-1.030269e+01
3.960946e+01	-1.034856e+01
3.983824e+01	-1.039364e+01
4.006834e+01	-1.043926e+01
4.029978e+01	-1.048475e+01
4.053255e+01	-1.053042e+01
4.076666e+01	-1.057607e+01
4.100213e+01	-1.062169e+01
4.123896e+01	-1.066706e+01
4.147715e+01	-1.071320e+01
4.171672e+01	-1.075890e+01
4.195767e+01	-1.080512e+01
4.220002e+01	-1.085063e+01
4.244377e+01	-1.089655e+01
4.268892e+01	-1.094245e+01
4.293549e+01	-1.098864e+01
4.318348e+01	-1.103474e+01
4.343291e+01	-1.108008e+01
4.368377e+01	-1.112705e+01
4.393609e+01	-1.117304e+01
4.418986e+01	-1.121864e+01
4.444510e+01	-1.126536e+01
4.470182e+01	-1.131233e+01
4.496001e+01	-1.135806e+01
4.521970e+01	-1.140479e+01
4.548089e+01	-1.145122e+01
4.574358e+01	-1.149746e+01
4.600779e+01	-1.154400e+01
4.627353e+01	-1.159035e+01
4.654081e+01	-1.163695e+01
4.680963e+01	-1.168313e+01
4.708000e+01	-1.173061e+01
4.735193e+01	-1.177656e+01
4.762543e+01	-1.182404e+01
4.790051e+01	-1.187108e+01
4.817719e+01	-1.191757e+01
4.845545e+01	-1.196397e+01
4.873533e+01	-1.201097e+01
4.901682e+01	-1.205863e+01
4.929994e+01	-1.210471e+01
4.958470e+01	-1.215164e+01
4.987110e+01	-1.219889e+01
5.015915e+01	-1.224596e+01
5.044887e+01	-1.229257e+01
5.074026e+01	-1.233967e+01
5.103333e+01	-1.238660e+01
5.132810e+01	-1.243463e+01
5.162457e+01	-1.248157e+01
5.192275e+01	-1.252909e+01
5.222265e+01	-1.257543e+01
5.252429e+01	-1.262364e+01
5.282767e+01	-1.267040e+01
5.313280e+01	-1.271792e+01
5.343969e+01	-1.276533e+01
5.374836e+01	-1.281236e+01
5.405880e+01	-1.285996e+01
5.437105e+01	-1.290701e+01
5.468509e+01	-1.295579e+01
5.500095e+01	-1.300271e+01
5.531863e+01	-1.304976e+01
5.563815e+01	-1.309806e+01
5.595951e+01	-1.314627e+01
5.628273e+01	-1.319266e+01
5.660782e+01	-1.324090e+01
5.693479e+01	-1.328808e+01
5.726364e+01	-1.333556e+01
5.759439e+01	-1.338390e+01
5.792705e+01	-1.343230e+01
5.826164e+01	-1.347911e+01
5.859815e+01	-1.352689e+01
5.893662e+01	-1.357504e+01
5.927703e+01	-1.362216e+01
5.961941e+01	-1.367022e+01
5.996377e+01	-1.371885e+01
6.031012e+01	-1.376650e+01
6.065847e+01	-1.381341e+01
6.100883e+01	-1.386125e+01
6.136121e+01	-1.391020e+01
6.171563e+01	-1.395715e+01
6.207210e+01	-1.400583e+01
6.243063e+01	-1.405384e+01
6.279122e+01	-1.410235e+01
6.315390e+01	-1.415090e+01
6.351868e+01	-1.419832e+01
6.388556e+01	-1.424633e+01
6.425456e+01	-1.429525e+01
6.462569e+01	-1.434343e+01
6.499897e+01	-1.439095e+01
6.537440e+01	-1.443952e+01
6.575200e+01	-1.448810e+01
6.613178e+01	-1.453589e+01
6.651375e+01	-1.458416e+01
6.689793e+01	-1.463197e+01
6.728433e+01	-1.468099e+01
6.767297e+01	-1.472842e+01
6.806384e+01	-1.477757e+01
6.845698e+01	-1.482552e+01
6.885238e+01	-1.487386e+01
6.925007e+01	-1.492262e+01
6.965005e+01	-1.497098e+01
7.005235e+01	-1.502003e+01
7.045697e+01	-1.506778e+01
7.086393e+01	-1.511564e+01
7.127323e+01	-1.516482e+01
7.168490e+01	-1.521310e+01
7.209895e+01	-1.526137e+01
7.251539e+01	-1.531104e+01
7.293424e+01	-1.535994e+01
7.335551e+01	-1.540857e+01
7.377920e+01	-1.545652e+01
7.420535e+01	-1.550520e+01
7.463396e+01	-1.555377e+01
7.506504e+01	-1.560288e+01
7.549861e+01	-1.565087e+01
7.593469e+01	-1.569899e+01
7.637328e+01	-1.574842e+01
7.681441e+01	-1.579780e+01
7.725809e+01	-1.584530e+01
7.770433e+01	-1.589447e+01
7.815315e+01	-1.594245e+01
7.860456e+01	-1.599165e+01
7.905857e+01	-1.603994e+01
7.951521e+01	-1.608910e+01
7.997449e+01	-1.613765e+01
8.043642e+01	-1.618667e+01
8.090102e+01	-1.623521e+01
8.136830e+01	-1.628449e+01
8.183828e+01	-1.633374e+01
8.231097e+01	-1.638215e+01
8.278640e+01	-1.643190e+01
8.326457e+01	-1.647971e+01
8.374550e+01	-1.652823e+01
8.422921e+01	-1.657849e+01
8.471572e+01	-1.662659e+01
8.520503e+01	-1.667585e+01
8.569717e+01	-1.672471e+01
8.619215e+01	-1.677488e+01
8.669000e+01	-1.682240e+01
8.719071e+01	-1.687238e+01
8.769432e+01	-1.692257e+01
8.820084e+01	-1.696951e+01
8.871029e+01	-1.701967e+01
8.922267e+01	-1.706780e+01
8.973802e+01	-1.711638e+01
9.025634e+01	-1.716602e+01
9.077766e+01	-1.721531e+01
9.130199e+01	-1.726441e+01
9.182935e+01	-1.731430e+01
9.235975e+01	-1.736219e+01
9.289321e+01	-1.741130e+01
9.342976e+01	-1.746075e+01
9.396941e+01	-1.750961e+01
9.451217e+01	-1.755828e+01
9.505807e+01	-1.760852e+01
9.560712e+01	-1.765697e+01
9.615934e+01	-1.770720e+01
9.671476e+01	-1.775529e+01
9.727338e+01	-1.780528e+01
9.783522e+01	-1.785441e+01
9.840032e+01	-1.790359e+01
9.896867e+01	-1.795232e+01
9.954031e+01	-1.800245e+01
1.001153e+02	-1.804971e+01
1.006935e+02	-1.810081e+01
1.012751e+02	-1.815004e+01
1.018601e+02	-1.819829e+01
1.024484e+02	-1.824987e+01
1.030402e+02	-1.829707e+01
1.036353e+02	-1.834621e+01
1.042339e+02	-1.839609e+01
1.048360e+02	-1.844499e+01
1.054415e+02	-1.849395e+01
1.060505e+02	-1.854321e+01
1.066631e+02	-1.859230e+01
1.072791e+02	-1.864317e+01
1.078988e+02	-1.869174e+01
1.085220e+02	-1.874172e+01
1.091488e+02	-1.878978e+01
1.097793e+02	-1.883947e+01
1.104133e+02	-1.888938e+01
1.110511e+02	-1.893979e+01
1.116925e+02	-1.898839e+01
1.123376e+02	-1.903841e+01
1.129865e+02	-1.908754e+01
1.136391e+02	-1.913794e+01
1.142955e+02	-1.918615e+01
1.149556e+02	-1.923494e+01
1.156196e+02	-1.928514e+01
1.162874e+02	-1.933422e+01
1.169591e+02	-1.938250e+01
1.176347e+02	-1.943354e+01
1.183141e+02	-1.948169e+01
1.189975e+02	-1.953292e+01
1.196848e+02	-1.958152e+01
1.203761e+02	-1.963305e+01
1.210714e+02	-1.968021e+01
1.217707e+02	-1.973013e+01
1.224740e+02	-1.978091e+01
1.231814e+02	-1.982970e+01
1.238929e+02	-1.987665e+01
1.246085e+02	-1.992828e+01
1.253283e+02	-1.997726e+01
1.260522e+02	-2.002749e+01
1.267802e+02	-2.007748e+01
1.275125e+02	-2.012511e+01
1.282490e+02	-2.017588e+01
1.289898e+02	-2.022567e+01
1.297348e+02	-2.027583e+01
1.304842e+02	-2.032408e+01
1.312378e+02	-2.037512e+01
1.319959e+02	-2.042281e+01
1.327583e+02	-2.047352e+01
1.335251e+02	-2.052300e+01
1.342963e+02	-2.057409e+01
1.350720e+02	-2.062252e+01
1.358522e+02	-2.067107e+01
1.366368e+02	-2.072086e+01
1.374260e+02	-2.077149e+01
1.382198e+02	-2.082067e+01
1.390182e+02	-2.086951e+01
1.398211e+02	-2.092041e+01
1.406287e+02	-2.096859e+01
1.414410e+02	-2.101746e+01
1.422579e+02	-2.106862e+01
1.430796e+02	-2.111762e+01
1.439060e+02	-2.116766e+01
1.447372e+02	-2.121780e+01
1.455732e+02	-2.126754e+01
1.464141e+02	-2.131635e+01
1.472597e+02	-2.136786e+01
1.481103e+02	-2.141556e+01
1.489658e+02	-2.146751e+01
1.498262e+02	-2.151564e+01
1.506916e+02	-2.156623e+01
1.515620e+02	-2.161533e+01
1.524374e+02	-2.166403e+01
1.533179e+02	-2.171606e+01
1.542034e+02	-2.176599e+01
1.550941e+02	-2.181377e+01
1.559899e+02	-2.186446e+01
1.568909e+02	-2.191314e+01
1.577971e+02	-2.196363e+01
1.587085e+02	-2.201321e+01
1.596252e+02	-2.206253e+01
1.605472e+02	-2.211272e+01
1.614745e+02	-2.216335e+01
1.624072e+02	-2.220947e+01
1.633453e+02	-2.226181e+01
1.642887e+02	-2.231062e+01
1.652377e+02	-2.235859e+01
1.661921e+02	-2.241046e+01
1.671520e+02	-2.246115e+01
1.681175e+02	-2.251066e+01
1.690885e+02	-2.256015e+01
1.700651e+02	-2.261035e+01
1.710474e+02	-2.266021e+01
1.720354e+02	-2.270935e+01
1.730291e+02	-2.275960e+01
1.740285e+02	-2.281025e+01
1.750337e+02	-2.285584e+01
1.760446e+02	-2.290917e+01
1.770615e+02	-2.295923e+01
1.780842e+02	-2.300651e+01
1.791128e+02	-2.305806e+01
1.801473e+02	-2.310632e+01
1.811878e+02	-2.315813e+01
1.822344e+02	-2.320710e+01
1.832870e+02	-2.325784e+01
1.843456e+02	-2.330556e+01
1.854104e+02	-2.335538e+01
1.864813e+02	-2.340563e+01
1.875584e+02	-2.345818e+01
1.886418e+02	-2.350544e+01
1.897313e+02	-2.355705e+01
1.908272e+02	-2.360832e+01
1.919294e+02	-2.365351e+01
1.930380e+02	-2.370644e+01
1.941530e+02	-2.375741e+01
1.952744e+02	-2.380553e+01
1.964023e+02	-2.385572e+01
1.975367e+02	-2.390758e+01
1.986777e+02	-2.395635e+01
1.998252e+02	-2.400290e+01
2.009794e+02	-2.405472e+01
2.021403e+02	-2.410254e+01
2.033078e+02	-2.415480e+01
2.044821e+02	-2.420549e+01
2.056632e+02	-2.425287e+01
2.068511e+02	-2.430393e+01
2.080459e+02	-2.435143e+01
2.092475e+02	-2.440348e+01
2.104561e+02	-2.445353e+01
2.116717e+02	-2.450364e+01
2.128943e+02	-2.455462e+01
2.141240e+02	-2.460478e+01
2.153608e+02	-2.465435e+01
2.166047e+02	-2.470396e+01
2.178558e+02	-2.475220e+01
2.191141e+02	-2.480261e+01
2.203797e+02	-2.485048e+01
2.216526e+02	-2.490331e+01
2.229329e+02	-2.495327e+01
2.242205e+02	-2.500151e+01
2.255156e+02	-2.505230e+01
2.268182e+02	-2.510464e+01
2.281283e+02	-2.515316e+01
2.294459e+02	-2.520032e+01
2.307712e+02	-2.525154e+01
2.321041e+02	-2.530066e+01
2.334447e+02	-2.535311e+01
2.347931e+02	-2.539970e+01
2.361493e+02	-2.545296e+01
2.375133e+02	-2.550370e+01
2.388851e+02	-2.555375e+01
2.402649e+02	-2.560062e+01
2.416527e+02	-2.565199e+01
2.430484e+02	-2.569972e+01
2.444523e+02	-2.575037e+01
2.458642e+02	-2.580139e+01
2.472843e+02	-2.585217e+01
2.487126e+02	-2.589998e+01
2.501492e+02	-2.595058e+01
2.515940e+02	-2.600336e+01
2.530472e+02	-2.605215e+01
2.545088e+02	-2.609966e+01
2.559789e+02	-2.615192e+01
2.574574e+02	-2.620229e+01
2.589444e+02	-2.624978e+01
2.604401e+02	-2.630359e+01
2.619444e+02	-2.634833e+01
2.634574e+02	-2.640179e+01
2.649791e+02	-2.645210e+01
2.665096e+02	-2.649916e+01
2.680489e+02	-2.655109e+01
2.695972e+02	-2.659993e+01
2.711544e+02	-2.665332e+01
2.727205e+02	-2.669855e+01
2.742958e+02	-2.675135e+01
2.758801e+02	-2.680179e+01
2.774736e+02	-2.684870e+01
2.790762e+02	-2.690048e+01
2.806882e+02	-2.695301e+01
2.823094e+02	-2.700105e+01
2.839400e+02	-2.704948e+01
2.855800e+02	-2.710248e+01
2.872295e+02	-2.715167e+01
2.888886e+02	-2.719762e+01
2.905572e+02	-2.724657e+01
2.922354e+02	-2.730055e+01
2.939234e+02	-2.734870e+01
2.956211e+02	-2.739955e+01
2.973286e+02	-2.745022e+01
2.990459e+02	-2.750247e+01
3.007732e+02	-2.755330e+01
3.025104e+02	-2.760070e+01
3.042577e+02	-2.765068e+01
3.060151e+02	-2.770069e+01
3.077826e+02	-2.774995e+01
3.095604e+02	-2.779300e+01
3.113484e+02	-2.785038e+01
3.131467e+02	-2.790214e+01
3.149554e+02	-2.794833e+01
3.167746e+02	-2.799734e+01
3.186043e+02	-2.805055e+01
3.204445e+02	-2.810296e+01
3.222954e+02	-2.815163e+01
3.241570e+02	-2.820032e+01
3.260293e+02	-2.825379e+01
3.279124e+02	-2.829789e+01
3.298064e+02	-2.834746e+01
3.317114e+02	-2.839741e+01
3.336273e+02	-2.844996e+01
3.355544e+02	-2.849727e+01
3.374925e+02	-2.855083e+01
3.394418e+02	-2.860186e+01
3.414024e+02	-2.865407e+01
3.433744e+02	-2.869871e+01
3.453577e+02	-2.875596e+01
3.473525e+02	-2.879998e+01
3.493588e+02	-2.885160e+01
3.513766e+02	-2.890278e+01
3.534062e+02	-2.895232e+01
3.554474e+02	-2.900483e+01
3.575005e+02	-2.904967e+01
3.595654e+02	-2.910325e+01
3.616422e+02	-2.915230e+01
3.637311e+02	-2.920072e+01
3.658320e+02	-2.925207e+01
3.679450e+02	-2.930387e+01
3.700702e+02	-2.935720e+01
3.722077e+02	-2.939870e+01
3.743576e+02	-2.944821e+01
3.765199e+02	-2.950278e+01
3.786946e+02	-2.955464e+01
3.808820e+02	-2.959919e+01
3.830819e+02	-2.965125e+01
3.852946e+02	-2.970034e+01
3.875200e+02	-2.974902e+01
3.897583e+02	-2.980339e+01
3.920096e+02	-2.985060e+01
3.942738e+02	-2.990601e+01
3.965511e+02	-2.995635e+01
3.988416e+02	-3.000549e+01
4.011452e+02	-3.005423e+01
4.034622e+02	-3.010450e+01
4.057926e+02	-3.015283e+01
4.081365e+02	-3.019716e+01
4.104938e+02	-3.025664e+01
4.128648e+02	-3.030416e+01
4.152495e+02	-3.035367e+01
4.176480e+02	-3.040646e+01
4.200603e+02	-3.044868e+01
4.224866e+02	-3.050533e+01
4.249268e+02	-3.055672e+01
4.273812e+02	-3.060668e+01
4.298497e+02	-3.065904e+01
4.323325e+02	-3.070552e+01
4.348297e+02	-3.075337e+01
4.373412e+02	-3.080529e+01
4.398673e+02	-3.085829e+01
4.424079e+02	-3.090384e+01
4.449633e+02	-3.095010e+01
4.475334e+02	-3.100929e+01
4.501183e+02	-3.105393e+01
4.527182e+02	-3.110953e+01
4.553330e+02	-3.115695e+01
4.579630e+02	-3.120679e+01
4.606082e+02	-3.125836e+01
4.632687e+02	-3.130500e+01
4.659445e+02	-3.135567e+01
4.686358e+02	-3.140621e+01
4.713426e+02	-3.145181e+01
4.740650e+02	-3.150580e+01
4.768032e+02	-3.155688e+01
4.795572e+02	-3.161094e+01
4.823271e+02	-3.166424e+01
4.851130e+02	-3.170482e+01
4.879150e+02	-3.176339e+01
4.907332e+02	-3.181043e+01
4.935676e+02	-3.185619e+01
4.964185e+02	-3.190562e+01
4.992858e+02	-3.196076e+01
5.021696e+02	-3.200704e+01
5.050701e+02	-3.205967e+01
5.079874e+02	-3.211936e+01
5.109215e+02	-3.215516e+01
5.138726e+02	-3.220833e+01
5.168407e+02	-3.225821e+01
5.198259e+02	-3.230994e+01
5.228284e+02	-3.235902e+01
5.258482e+02	-3.241024e+01
5.288855e+02	-3.246031e+01
5.319403e+02	-3.250427e+01
5.350128e+02	-3.255948e+01
5.381030e+02	-3.260944e+01
5.412111e+02	-3.266473e+01
5.443371e+02	-3.271420e+01
5.474812e+02	-3.276223e+01
5.506434e+02	-3.281041e+01
5.538239e+02	-3.286319e+01
5.570228e+02	-3.291438e+01
5.602401e+02	-3.296270e+01
5.634760e+02	-3.300898e+01
5.667306e+02	-3.306868e+01
5.700040e+02	-3.311500e+01
5.732964e+02	-3.316278e+01
5.766077e+02	-3.321510e+01
5.799382e+02	-3.326185e+01
5.832879e+02	-3.331267e+01
5.866569e+02	-3.335800e+01
5.900454e+02	-3.341419e+01
5.934535e+02	-3.346737e+01
5.968813e+02	-3.352039e+01
6.003288e+02	-3.356729e+01
6.037963e+02	-3.362025e+01
6.072838e+02	-3.367262e+01
6.107914e+02	-3.371858e+01
6.143194e+02	-3.376237e+01
6.178676e+02	-3.382059e+01
6.214364e+02	-3.387144e+01
6.250258e+02	-3.391648e+01
6.286359e+02	-3.397344e+01
6.322669e+02	-3.401689e+01
6.359189e+02	-3.406783e+01
6.395919e+02	-3.412621e+01
6.432862e+02	-3.416983e+01
6.470017e+02	-3.422310e+01
6.507388e+02	-3.427843e+01
6.544974e+02	-3.432612e+01
6.582778e+02	-3.437470e+01
6.620800e+02	-3.442722e+01
6.659041e+02	-3.447512e+01
6.697504e+02	-3.452192e+01
6.736188e+02	-3.456995e+01
6.775096e+02	-3.461884e+01
6.814229e+02	-3.466001e+01
6.853587e+02	-3.473231e+01
6.893173e+02	-3.476585e+01
6.932988e+02	-3.482418e+01
6.973033e+02	-3.486997e+01
7.013309e+02	-3.492049e+01
