Frequency(Hz)	Magnitude(dB)
1.000000e+01	-2.304732e+00
1.005776e+01	-2.325447e+00
1.011585e+01	-2.346260e+00
1.017428e+01	-2.367121e+00
1.023305e+01	-2.388197e+00
1.029215e+01	-2.409597e+00
1.035160e+01	-2.430900e+00
1.041139e+01	-2.452590e+00
1.047153e+01	-2.473831e+00
1.053201e+01	-2.495715e+00
1.059284e+01	-2.517824e+00
1.065403e+01	-2.539896e+00
1.071556e+01	-2.562231e+00
1.077746e+01	-2.584384e+00
1.083971e+01	-2.607169e+00
1.090232e+01	-2.629440e+00
1.096529e+01	-2.652624e+00
1.102862e+01	-2.675255e+00
1.109232e+01	-2.698479e+00
1.115639e+01	-2.721672e+00
1.122083e+01	-2.744927e+00
1.128564e+01	-2.768903e+00
1.135083e+01	-2.791953e+00
1.141639e+01	-2.815840e+00
1.148233e+01	-2.839917e+00
1.154865e+01	-2.864077e+00
1.161536e+01	-2.888200e+00
1.168245e+01	-2.912569e+00
1.174992e+01	-2.937028e+00
1.181779e+01	-2.961922e+00
1.188605e+01	-2.986724e+00
1.195470e+01	-3.011667e+00
1.202375e+01	-3.036427e+00
1.209320e+01	-3.061777e+00
1.216305e+01	-3.087234e+00
1.223330e+01	-3.112640e+00
1.230396e+01	-3.138407e+00
1.237503e+01	-3.164052e+00
1.244651e+01	-3.190169e+00
1.251840e+01	-3.216138e+00
1.259070e+01	-3.242582e+00
1.266343e+01	-3.268987e+00
1.273657e+01	-3.295322e+00
1.281014e+01	-3.322093e+00
1.288413e+01	-3.349009e+00
1.295855e+01	-3.375836e+00
1.303339e+01	-3.402876e+00
1.310867e+01	-3.430500e+00
1.318439e+01	-3.457682e+00
1.326054e+01	-3.485236e+00
1.333713e+01	-3.512934e+00
1.341417e+01	-3.540788e+00
1.349165e+01	-3.568662e+00
1.356958e+01	-3.596721e+00
1.364795e+01	-3.624978e+00
1.372678e+01	-3.653348e+00
1.380607e+01	-3.682094e+00
1.388581e+01	-3.710729e+00
1.396602e+01	-3.739191e+00
1.404668e+01	-3.768250e+00
1.412782e+01	-3.797228e+00
1.420942e+01	-3.826860e+00
1.429149e+01	-3.856053e+00
1.437404e+01	-3.885273e+00
1.445706e+01	-3.915198e+00
1.454057e+01	-3.944914e+00
1.462455e+01	-3.974859e+00
1.470902e+01	-4.004754e+00
1.479398e+01	-4.034965e+00
1.487943e+01	-4.065410e+00
1.496537e+01	-4.095832e+00
1.505181e+01	-4.126773e+00
1.513875e+01	-4.157465e+00
1.522619e+01	-4.188494e+00
1.531414e+01	-4.219312e+00
1.540259e+01	-4.250060e+00
1.549156e+01	-4.281704e+00
1.558103e+01	-4.312939e+00
1.567103e+01	-4.344424e+00
1.576155e+01	-4.376519e+00
1.585258e+01	-4.408345e+00
1.594415e+01	-4.440008e+00
1.603624e+01	-4.472454e+00
1.612886e+01	-4.504410e+00
1.622202e+01	-4.537064e+00
1.631572e+01	-4.569343e+00
1.640996e+01	-4.602010e+00
1.650474e+01	-4.634662e+00
1.660008e+01	-4.667526e+00
1.669596e+01	-4.700463e+00
1.679239e+01	-4.733697e+00
1.688938e+01	-4.767009e+00
1.698694e+01	-4.800572e+00
1.708505e+01	-4.834127e+00
1.718373e+01	-4.867504e+00
1.728299e+01	-4.901427e+00
1.738281e+01	-4.935097e+00
1.748322e+01	-4.969314e+00
1.758420e+01	-5.003338e+00
1.768576e+01	-5.037664e+00
1.778792e+01	-5.072208e+00
1.789066e+01	-5.106416e+00
1.799399e+01	-5.141178e+00
1.809793e+01	-5.175996e+00
1.820246e+01	-5.211190e+00
1.830760e+01	-5.246136e+00
1.841334e+01	-5.281338e+00
1.851969e+01	-5.316098e+00
1.862666e+01	-5.351799e+00
1.873425e+01	-5.387248e+00
1.884246e+01	-5.422982e+00
1.895129e+01	-5.458709e+00
1.906075e+01	-5.494367e+00
1.917085e+01	-5.530430e+00
1.928158e+01	-5.566366e+00
1.939295e+01	-5.602854e+00
1.950496e+01	-5.638992e+00
1.961762e+01	-5.675422e+00
1.973093e+01	-5.712083e+00
1.984490e+01	-5.748531e+00
1.995952e+01	-5.785280e+00
2.007480e+01	-5.822204e+00
2.019076e+01	-5.859404e+00
2.030738e+01	-5.896766e+00
2.042467e+01	-5.933822e+00
2.054264e+01	-5.971096e+00
2.066130e+01	-6.008230e+00
2.078064e+01	-6.046046e+00
2.090066e+01	-6.083240e+00
2.102139e+01	-6.121228e+00
2.114280e+01	-6.159132e+00
2.126492e+01	-6.197577e+00
2.138775e+01	-6.235239e+00
2.151128e+01	-6.273345e+00
2.163553e+01	-6.311717e+00
2.176050e+01	-6.349970e+00
2.188619e+01	-6.388454e+00
2.201260e+01	-6.426591e+00
2.213974e+01	-6.465912e+00
2.226762e+01	-6.504376e+00
2.239624e+01	-6.543580e+00
2.252560e+01	-6.582530e+00
2.265571e+01	-6.621734e+00
2.278656e+01	-6.660871e+00
2.291818e+01	-6.699913e+00
2.305055e+01	-6.739426e+00
2.318369e+01	-6.778790e+00
2.331760e+01	-6.818196e+00
2.345228e+01	-6.857961e+00
2.358774e+01	-6.897346e+00
2.372398e+01	-6.938063e+00
2.386101e+01	-6.977508e+00
2.399883e+01	-7.017880e+00
2.413745e+01	-7.057641e+00
2.427686e+01	-7.097667e+00
2.441709e+01	-7.138185e+00
2.455812e+01	-7.178139e+00
2.469997e+01	-7.219330e+00
2.484263e+01	-7.259761e+00
2.498612e+01	-7.300086e+00
2.513044e+01	-7.341292e+00
2.527559e+01	-7.382314e+00
2.542158e+01	-7.422765e+00
2.556842e+01	-7.463923e+00
2.571610e+01	-7.505412e+00
2.586463e+01	-7.546661e+00
2.601403e+01	-7.587650e+00
2.616428e+01	-7.628814e+00
2.631541e+01	-7.670824e+00
2.646740e+01	-7.711981e+00
2.662028e+01	-7.753566e+00
2.677404e+01	-7.795062e+00
2.692868e+01	-7.836588e+00
2.708422e+01	-7.878990e+00
2.724066e+01	-7.920663e+00
2.739800e+01	-7.962632e+00
2.755625e+01	-8.004500e+00
2.771541e+01	-8.047078e+00
2.787550e+01	-8.088923e+00
2.803650e+01	-8.131369e+00
2.819844e+01	-8.173700e+00
2.836131e+01	-8.216207e+00
2.852513e+01	-8.258432e+00
2.868989e+01	-8.301385e+00
2.885560e+01	-8.343880e+00
2.902227e+01	-8.386926e+00
2.918990e+01	-8.429628e+00
2.935850e+01	-8.472182e+00
2.952807e+01	-8.515318e+00
2.969863e+01	-8.558212e+00
2.987016e+01	-8.601486e+00
3.004269e+01	-8.644526e+00
3.021622e+01	-8.687855e+00
3.039075e+01	-8.730997e+00
3.056628e+01	-8.774395e+00
3.074283e+01	-8.818418e+00
3.092040e+01	-8.861203e+00
3.109900e+01	-8.904366e+00
3.127862e+01	-8.948463e+00
3.145929e+01	-8.992419e+00
3.164099e+01	-9.035706e+00
3.182375e+01	-9.079098e+00
3.200756e+01	-9.123646e+00
3.219244e+01	-9.167374e+00
3.237838e+01	-9.211600e+00
3.256540e+01	-9.255071e+00
3.275349e+01	-9.299828e+00
3.294268e+01	-9.343814e+00
3.313295e+01	-9.388181e+00
3.332433e+01	-9.432379e+00
3.351681e+01	-9.476874e+00
3.371040e+01	-9.521549e+00
3.390511e+01	-9.565378e+00
3.410094e+01	-9.610440e+00
3.429791e+01	-9.655440e+00
3.449601e+01	-9.699042e+00
3.469526e+01	-9.743924e+00
3.489566e+01	-9.788929e+00
3.509721e+01	-9.833866e+00
3.529993e+01	-9.878705e+00
3.550382e+01	-9.923587e+00
3.570889e+01	-9.968541e+00
3.591515e+01	-1.001332e+01
3.612259e+01	-1.005818e+01
3.633123e+01	-1.010390e+01
3.654108e+01	-1.014883e+01
3.675214e+01	-1.019427e+01
3.696442e+01	-1.023892e+01
3.717792e+01	-1.028463e+01
3.739266e+01	-1.033022e+01
3.760864e+01	-1.037431e+01
3.782587e+01	-1.042015e+01
3.804435e+01	-1.046665e+01
3.826409e+01	-1.051179e+01
3.848510e+01	-1.055718e+01
3.870739e+01	-1.060297e+01
3.893096e+01	-1.064884e+01
3.915583e+01	-1.069389e+01
3.938199e+01	-1.074067e+01
3.960946e+01	-1.078629e+01
3.983824e+01	-1.083193e+01
4.006834e+01	-1.087816e+01
4.029978e+01	-1.092365e+01
4.053255e+01	-1.096957e+01
4.076666e+01	-1.101603e+01
4.100213e+01	-1.106144e+01
4.123896e+01	-1.110814e+01
4.147715e+01	-1.115457e+01
4.171672e+01	-1.120029e+01
4.195767e+01	-1.124597e+01
4.220002e+01	-1.129316e+01
4.244377e+01	-1.133942e+01
4.268892e+01	-1.138588e+01
4.293549e+01	-1.143226e+01
4.318348e+01	-1.147864e+01
4.343291e+01	-1.152489e+01
4.368377e+01	-1.157165e+01
4.393609e+01	-1.161821e+01
4.418986e+01	-1.166534e+01
4.444510e+01	-1.171197e+01
4.470182e+01	-1.175813e+01
4.496001e+01	-1.180482e+01
4.521970e+01	-1.185193e+01
4.548089e+01	-1.189826e+01
4.574358e+01	-1.194459e+01
4.600779e+01	-1.199173e+01
4.627353e+01	-1.203930e+01
4.654081e+01	-1.208601e+01
4.680963e+01	-1.213234e+01
4.708000e+01	-1.218018e+01
4.735193e+01	-1.222693e+01
4.762543e+01	-1.227359e+01
4.790051e+01	-1.232088e+01
4.817719e+01	-1.236783e+01
4.845545e+01	-1.241538e+01
4.873533e+01	-1.246206e+01
4.901682e+01	-1.250915e+01
4.929994e+01	-1.255683e+01
4.958470e+01	-1.260448e+01
4.987110e+01	-1.265105e+01
5.015915e+01	-1.269902e+01
5.044887e+01	-1.274631e+01
5.074026e+01	-1.279345e+01
5.103333e+01	-1.284029e+01
5.132810e+01	-1.288825e+01
5.162457e+01	-1.293520e+01
5.192275e+01	-1.298292e+01
5.222265e+01	-1.303030e+01
5.252429e+01	-1.307797e+01
5.282767e+01	-1.312603e+01
5.313280e+01	-1.317349e+01
5.343969e+01	-1.322149e+01
5.374836e+01	-1.326905e+01
5.405880e+01	-1.331672e+01
5.437105e+01	-1.336432e+01
5.468509e+01	-1.341193e+01
5.500095e+01	-1.345995e+01
5.531863e+01	-1.350858e+01
5.563815e+01	-1.355594e+01
5.595951e+01	-1.360251e+01
5.628273e+01	-1.365026e+01
5.660782e+01	-1.369867e+01
5.693479e+01	-1.374715e+01
5.726364e+01	-1.379438e+01
5.759439e+01	-1.384292e+01
5.792705e+01	-1.389100e+01
5.826164e+01	-1.393849e+01
5.859815e+01	-1.398667e+01
5.893662e+01	-1.403434e+01
5.927703e+01	-1.408161e+01
5.961941e+01	-1.413125e+01
5.996377e+01	-1.417945e+01
6.031012e+01	-1.422733e+01
6.065847e+01	-1.427531e+01
6.100883e+01	-1.432368e+01
6.136121e+01	-1.437159e+01
6.171563e+01	-1.441919e+01
6.207210e+01	-1.446695e+01
6.243063e+01	-1.451672e+01
6.279122e+01	-1.456502e+01
6.315390e+01	-1.461312e+01
6.351868e+01	-1.466079e+01
6.388556e+01	-1.470924e+01
6.425456e+01	-1.475732e+01
6.462569e+01	-1.480550e+01
6.499897e+01	-1.485515e+01
6.537440e+01	-1.490314e+01
6.575200e+01	-1.495135e+01
6.613178e+01	-1.500041e+01
6.651375e+01	-1.504761e+01
6.689793e+01	-1.509754e+01
6.728433e+01	-1.514534e+01
6.767297e+01	-1.519364e+01
6.806384e+01	-1.524341e+01
6.845698e+01	-1.529087e+01
6.885238e+01	-1.533978e+01
6.925007e+01	-1.538841e+01
6.965005e+01	-1.543607e+01
7.005235e+01	-1.548508e+01
7.045697e+01	-1.553329e+01
7.086393e+01	-1.558230e+01
7.127323e+01	-1.563107e+01
7.168490e+01	-1.567954e+01
7.209895e+01	-1.572842e+01
7.251539e+01	-1.577788e+01
7.293424e+01	-1.582578e+01
7.335551e+01	-1.587441e+01
7.377920e+01	-1.592280e+01
7.420535e+01	-1.597177e+01
7.463396e+01	-1.602141e+01
7.506504e+01	-1.606868e+01
7.549861e+01	-1.611795e+01
7.593469e+01	-1.616753e+01
7.637328e+01	-1.621624e+01
7.681441e+01	-1.626515e+01
7.725809e+01	-1.631323e+01
7.770433e+01	-1.636440e+01
7.815315e+01	-1.641051e+01
7.860456e+01	-1.646056e+01
7.905857e+01	-1.650869e+01
7.951521e+01	-1.655791e+01
7.997449e+01	-1.660735e+01
8.043642e+01	-1.665603e+01
8.090102e+01	-1.670503e+01
8.136830e+01	-1.675328e+01
8.183828e+01	-1.680252e+01
8.231097e+01	-1.685154e+01
8.278640e+01	-1.690156e+01
8.326457e+01	-1.695037e+01
8.374550e+01	-1.699847e+01
8.422921e+01	-1.704797e+01
8.471572e+01	-1.709669e+01
8.520503e+01	-1.714667e+01
8.569717e+01	-1.719478e+01
8.619215e+01	-1.724417e+01
8.669000e+01	-1.729309e+01
8.719071e+01	-1.734182e+01
8.769432e+01	-1.739029e+01
8.820084e+01	-1.744012e+01
8.871029e+01	-1.748908e+01
8.922267e+01	-1.753863e+01
8.973802e+01	-1.758822e+01
9.025634e+01	-1.763672e+01
9.077766e+01	-1.768639e+01
9.130199e+01	-1.773543e+01
9.182935e+01	-1.778462e+01
9.235975e+01	-1.783430e+01
9.289321e+01	-1.788346e+01
9.342976e+01	-1.793239e+01
9.396941e+01	-1.798220e+01
9.451217e+01	-1.803096e+01
9.505807e+01	-1.807976e+01
9.560712e+01	-1.813138e+01
9.615934e+01	-1.817854e+01
9.671476e+01	-1.822737e+01
9.727338e+01	-1.827606e+01
9.783522e+01	-1.832656e+01
9.840032e+01	-1.837559e+01
9.896867e+01	-1.842455e+01
9.954031e+01	-1.847319e+01
1.001153e+02	-1.852477e+01
1.006935e+02	-1.857173e+01
1.012751e+02	-1.862434e+01
1.018601e+02	-1.867267e+01
1.024484e+02	-1.872084e+01
1.030402e+02	-1.877034e+01
1.036353e+02	-1.882151e+01
1.042339e+02	-1.886798e+01
1.048360e+02	-1.891942e+01
1.054415e+02	-1.896840e+01
1.060505e+02	-1.901640e+01
1.066631e+02	-1.906621e+01
1.072791e+02	-1.911590e+01
1.078988e+02	-1.916653e+01
1.085220e+02	-1.921482e+01
1.091488e+02	-1.926493e+01
1.097793e+02	-1.931497e+01
1.104133e+02	-1.936371e+01
1.110511e+02	-1.941354e+01
1.116925e+02	-1.946081e+01
1.123376e+02	-1.951256e+01
1.129865e+02	-1.956150e+01
1.136391e+02	-1.961109e+01
1.142955e+02	-1.966095e+01
1.149556e+02	-1.971093e+01
1.156196e+02	-1.976106e+01
1.162874e+02	-1.981139e+01
1.169591e+02	-1.985660e+01
1.176347e+02	-1.990743e+01
1.183141e+02	-1.995707e+01
1.189975e+02	-2.000642e+01
1.196848e+02	-2.005558e+01
1.203761e+02	-2.010636e+01
1.210714e+02	-2.015437e+01
1.217707e+02	-2.020476e+01
1.224740e+02	-2.025388e+01
1.231814e+02	-2.030308e+01
1.238929e+02	-2.035352e+01
1.246085e+02	-2.040308e+01
1.253283e+02	-2.045208e+01
1.260522e+02	-2.050343e+01
1.267802e+02	-2.055269e+01
1.275125e+02	-2.060029e+01
1.282490e+02	-2.065145e+01
1.289898e+02	-2.069962e+01
1.297348e+02	-2.075108e+01
1.304842e+02	-2.080031e+01
1.312378e+02	-2.085093e+01
1.319959e+02	-2.089772e+01
1.327583e+02	-2.094867e+01
1.335251e+02	-2.099875e+01
1.342963e+02	-2.104866e+01
1.350720e+02	-2.109884e+01
1.358522e+02	-2.114780e+01
1.366368e+02	-2.119740e+01
1.374260e+02	-2.124729e+01
1.382198e+02	-2.129703e+01
1.390182e+02	-2.134554e+01
1.398211e+02	-2.139550e+01
1.406287e+02	-2.144559e+01
1.414410e+02	-2.149572e+01
1.422579e+02	-2.154608e+01
1.430796e+02	-2.159462e+01
1.439060e+02	-2.164368e+01
1.447372e+02	-2.169185e+01
1.455732e+02	-2.174183e+01
1.464141e+02	-2.179246e+01
1.472597e+02	-2.184364e+01
1.481103e+02	-2.189093e+01
1.489658e+02	-2.194299e+01
1.498262e+02	-2.199196e+01
1.506916e+02	-2.204349e+01
1.515620e+02	-2.209257e+01
1.524374e+02	-2.214164e+01
1.533179e+02	-2.219087e+01
1.542034e+02	-2.224196e+01
1.550941e+02	-2.229033e+01
1.559899e+02	-2.234081e+01
1.568909e+02	-2.239088e+01
1.577971e+02	-2.243934e+01
1.587085e+02	-2.249192e+01
1.596252e+02	-2.254012e+01
1.605472e+02	-2.258893e+01
1.614745e+02	-2.264137e+01
1.624072e+02	-2.268900e+01
1.633453e+02	-2.274073e+01
1.642887e+02	-2.278849e+01
1.652377e+02	-2.283865e+01
1.661921e+02	-2.288735e+01
1.671520e+02	-2.293745e+01
1.681175e+02	-2.298843e+01
1.690885e+02	-2.303742e+01
1.700651e+02	-2.308540e+01
1.710474e+02	-2.313680e+01
1.720354e+02	-2.318604e+01
1.730291e+02	-2.323823e+01
1.740285e+02	-2.328868e+01
1.750337e+02	-2.333626e+01
1.760446e+02	-2.338638e+01
1.770615e+02	-2.343566e+01
1.780842e+02	-2.348686e+01
1.791128e+02	-2.353520e+01
1.801473e+02	-2.358621e+01
1.811878e+02	-2.363640e+01
1.822344e+02	-2.368676e+01
1.832870e+02	-2.373837e+01
1.843456e+02	-2.378493e+01
1.854104e+02	-2.383575e+01
1.864813e+02	-2.388519e+01
1.875584e+02	-2.393482e+01
1.886418e+02	-2.398194e+01
1.897313e+02	-2.403320e+01
1.908272e+02	-2.408403e+01
1.919294e+02	-2.413364e+01
1.930380e+02	-2.418455e+01
1.941530e+02	-2.423137e+01
1.952744e+02	-2.428421e+01
1.964023e+02	-2.433411e+01
1.975367e+02	-2.438300e+01
1.986777e+02	-2.443248e+01
1.998252e+02	-2.448221e+01
2.009794e+02	-2.453313e+01
2.021403e+02	-2.458152e+01
2.033078e+02	-2.463438e+01
2.044821e+02	-2.468504e+01
2.056632e+02	-2.473180e+01
2.068511e+02	-2.478349e+01
2.080459e+02	-2.483132e+01
2.092475e+02	-2.488539e+01
2.104561e+02	-2.493341e+01
2.116717e+02	-2.498171e+01
2.128943e+02	-2.503309e+01
2.141240e+02	-2.508282e+01
2.153608e+02	-2.513327e+01
2.166047e+02	-2.518306e+01
2.178558e+02	-2.523018e+01
2.191141e+02	-2.527891e+01
2.203797e+02	-2.533163e+01
2.216526e+02	-2.538023e+01
2.229329e+02	-2.542967e+01
2.242205e+02	-2.548215e+01
2.255156e+02	-2.553096e+01
2.268182e+02	-2.558200e+01
2.281283e+02	-2.562911e+01
2.294459e+02	-2.568029e+01
2.307712e+02	-2.572954e+01
2.321041e+02	-2.578259e+01
2.334447e+02	-2.583068e+01
2.347931e+02	-2.588302e+01
2.361493e+02	-2.592935e+01
2.375133e+02	-2.598019e+01
2.388851e+02	-2.602928e+01
2.402649e+02	-2.608082e+01
2.416527e+02	-2.613036e+01
2.430484e+02	-2.618134e+01
2.444523e+02	-2.623261e+01
2.458642e+02	-2.627732e+01
2.472843e+02	-2.632766e+01
2.487126e+02	-2.638222e+01
2.501492e+02	-2.642894e+01
2.515940e+02	-2.647946e+01
2.530472e+02	-2.652900e+01
2.545088e+02	-2.658188e+01
2.559789e+02	-2.663120e+01
2.574574e+02	-2.668343e+01
2.589444e+02	-2.673003e+01
2.604401e+02	-2.677982e+01
2.619444e+02	-2.682917e+01
2.634574e+02	-2.688104e+01
2.649791e+02	-2.693047e+01
2.665096e+02	-2.697771e+01
2.680489e+02	-2.703096e+01
2.695972e+02	-2.708029e+01
2.711544e+02	-2.712803e+01
2.727205e+02	-2.717939e+01
2.742958e+02	-2.723331e+01
2.758801e+02	-2.728071e+01
2.774736e+02	-2.732943e+01
2.790762e+02	-2.738017e+01
2.806882e+02	-2.743200e+01
2.823094e+02	-2.748346e+01
2.839400e+02	-2.752990e+01
2.855800e+02	-2.758025e+01
2.872295e+02	-2.762821e+01
2.888886e+02	-2.768009e+01
2.905572e+02	-2.772974e+01
2.922354e+02	-2.778689e+01
2.939234e+02	-2.782725e+01
2.956211e+02	-2.787966e+01
2.973286e+02	-2.793456e+01
2.990459e+02	-2.798156e+01
3.007732e+02	-2.803199e+01
3.025104e+02	-2.807882e+01
3.042577e+02	-2.812913e+01
3.060151e+02	-2.818173e+01
3.077826e+02	-2.823004e+01
3.095604e+02	-2.828112e+01
3.113484e+02	-2.833226e+01
3.131467e+02	-2.838039e+01
3.149554e+02	-2.842722e+01
3.167746e+02	-2.847867e+01
3.186043e+02	-2.853075e+01
3.204445e+02	-2.858225e+01
3.222954e+02	-2.862992e+01
3.241570e+02	-2.868079e+01
3.260293e+02	-2.873207e+01
3.279124e+02	-2.878181e+01
3.298064e+02	-2.882906e+01
3.317114e+02	-2.888071e+01
3.336273e+02	-2.893106e+01
3.355544e+02	-2.898131e+01
3.374925e+02	-2.903103e+01
3.394418e+02	-2.908197e+01
3.414024e+02	-2.912975e+01
3.433744e+02	-2.917799e+01
3.453577e+02	-2.923078e+01
3.473525e+02	-2.928028e+01
3.493588e+02	-2.933144e+01
3.513766e+02	-2.937768e+01
3.534062e+02	-2.942884e+01
3.554474e+02	-2.948021e+01
3.575005e+02	-2.953109e+01
3.595654e+02	-2.958451e+01
3.616422e+02	-2.963247e+01
3.637311e+02	-2.968630e+01
3.658320e+02	-2.973212e+01
3.679450e+02	-2.978304e+01
3.700702e+02	-2.983123e+01
3.722077e+02	-2.987925e+01
3.743576e+02	-2.993062e+01
3.765199e+02	-2.998462e+01
3.786946e+02	-3.003707e+01
3.808820e+02	-3.008458e+01
3.830819e+02	-3.013334e+01
3.852946e+02	-3.018281e+01
3.875200e+02	-3.023304e+01
3.897583e+02	-3.028649e+01
3.920096e+02	-3.033232e+01
3.942738e+02	-3.038142e+01
3.965511e+02	-3.043187e+01
3.988416e+02	-3.048501e+01
4.011452e+02	-3.053658e+01
4.034622e+02	-3.058664e+01
4.057926e+02	-3.063124e+01
4.081365e+02	-3.067653e+01
4.104938e+02	-3.073794e+01
4.128648e+02	-3.078232e+01
4.152495e+02	-3.082986e+01
4.176480e+02	-3.088919e+01
4.200603e+02	-3.093522e+01
4.224866e+02	-3.098357e+01
4.249268e+02	-3.103663e+01
4.273812e+02	-3.108409e+01
4.298497e+02	-3.113736e+01
4.323325e+02	-3.118503e+01
4.348297e+02	-3.123549e+01
4.373412e+02	-3.128662e+01
4.398673e+02	-3.134165e+01
4.424079e+02	-3.138686e+01
4.449633e+02	-3.143531e+01
4.475334e+02	-3.148792e+01
4.501183e+02	-3.154251e+01
4.527182e+02	-3.158712e+01
4.553330e+02	-3.163388e+01
4.579630e+02	-3.168723e+01
4.606082e+02	-3.173978e+01
4.632687e+02	-3.179017e+01
4.659445e+02	-3.183619e+01
4.686358e+02	-3.188704e+01
4.713426e+02	-3.194102e+01
4.740650e+02	-3.198502e+01
4.768032e+02	-3.204109e+01
4.795572e+02	-3.209196e+01
4.823271e+02	-3.213523e+01
4.851130e+02	-3.219105e+01
4.879150e+02	-3.224165e+01
4.907332e+02	-3.229356e+01
4.935676e+02	-3.234347e+01
4.964185e+02	-3.239068e+01
4.992858e+02	-3.243962e+01
5.021696e+02	-3.248408e+01
5.050701e+02	-3.254033e+01
5.079874e+02	-3.259244e+01
5.109215e+02	-3.264292e+01
5.138726e+02	-3.268700e+01
5.168407e+02	-3.273486e+01
5.198259e+02	-3.279007e+01
5.228284e+02	-3.283989e+01
5.258482e+02	-3.289736e+01
5.288855e+02	-3.293891e+01
5.319403e+02	-3.299985e+01
5.350128e+02	-3.303765e+01
5.381030e+02	-3.309255e+01
5.412111e+02	-3.313751e+01
5.443371e+02	-3.319004e+01
5.474812e+02	-3.323425e+01
5.506434e+02	-3.328960e+01
5.538239e+02	-3.334121e+01
5.570228e+02	-3.340189e+01
5.602401e+02	-3.344464e+01
5.634760e+02	-3.349821e+01
5.667306e+02	-3.354389e+01
5.700040e+02	-3.360127e+01
5.732964e+02	-3.364376e+01
5.766077e+02	-3.370247e+01
5.799382e+02	-3.374252e+01
5.832879e+02	-3.379735e+01
5.866569e+02	-3.384717e+01
5.900454e+02	-3.389850e+01
5.934535e+02	-3.394988e+01
5.968813e+02	-3.399358e+01
6.003288e+02	-3.405159e+01
6.037963e+02	-3.408850e+01
6.072838e+02	-3.415416e+01
6.107914e+02	-3.419756e+01
6.143194e+02	-3.425337e+01
6.178676e+02	-3.430590e+01
6.214364e+02	-3.434564e+01
6.250258e+02	-3.440078e+01
6.286359e+02	-3.445719e+01
6.322669e+02	-3.450412e+01
6.359189e+02	-3.455753e+01
6.395919e+02	-3.459478e+01
6.432862e+02	-3.464590e+01
6.470017e+02	-3.470603e+01
6.507388e+02	-3.475165e+01
6.544974e+02	-3.480219e+01
6.582778e+02	-3.485545e+01
6.620800e+02	-3.491490e+01
6.659041e+02	-3.495334e+01
6.697504e+02	-3.500120e+01
6.736188e+02	-3.505120e+01
6.775096e+02	-3.510373e+01
6.814229e+02	-3.515651e+01
6.853587e+02	-3.521093e+01
6.893173e+02	-3.526094e+01
6.932988e+02	-3.530626e+01
6.973033e+02	-3.535117e+01
7.013309e+02	-3.540483e+01
