Frequency(Hz)	Magnitude(dB)
1.000000e+01	-2.041842e+00
1.005776e+01	-2.060584e+00
1.011585e+01	-2.079698e+00
1.017428e+01	-2.098606e+00
1.023305e+01	-2.118071e+00
1.029215e+01	-2.137125e+00
1.035160e+01	-2.156887e+00
1.041139e+01	-2.176640e+00
1.047153e+01	-2.196216e+00
1.053201e+01	-2.216220e+00
1.059284e+01	-2.236303e+00
1.065403e+01	-2.256677e+00
1.071556e+01	-2.277026e+00
1.077746e+01	-2.297385e+00
1.083971e+01	-2.318004e+00
1.090232e+01	-2.338624e+00
1.096529e+01	-2.359262e+00
1.102862e+01	-2.380550e+00
1.109232e+01	-2.401682e+00
1.115639e+01	-2.423064e+00
1.122083e+01	-2.444590e+00
1.128564e+01	-2.466225e+00
1.135083e+01	-2.487948e+00
1.141639e+01	-2.509860e+00
1.148233e+01	-2.531947e+00
1.154865e+01	-2.554093e+00
1.161536e+01	-2.576399e+00
1.168245e+01	-2.599163e+00
1.174992e+01	-2.621484e+00
1.181779e+01	-2.644163e+00
1.188605e+01	-2.667031e+00
1.195470e+01	-2.690134e+00
1.202375e+01	-2.713248e+00
1.209320e+01	-2.736715e+00
1.216305e+01	-2.759932e+00
1.223330e+01	-2.783347e+00
1.230396e+01	-2.807220e+00
1.237503e+01	-2.831186e+00
1.244651e+01	-2.855117e+00
1.251840e+01	-2.879573e+00
1.259070e+01	-2.903805e+00
1.266343e+01	-2.927999e+00
1.273657e+01	-2.952840e+00
1.281014e+01	-2.977799e+00
1.288413e+01	-3.002476e+00
1.295855e+01	-3.027834e+00
1.303339e+01	-3.052752e+00
1.310867e+01	-3.078046e+00
1.318439e+01	-3.103473e+00
1.326054e+01	-3.128976e+00
1.333713e+01	-3.154840e+00
1.341417e+01	-3.180602e+00
1.349165e+01	-3.206999e+00
1.356958e+01	-3.233167e+00
1.364795e+01	-3.259446e+00
1.372678e+01	-3.285948e+00
1.380607e+01	-3.312542e+00
1.388581e+01	-3.339143e+00
1.396602e+01	-3.366231e+00
1.404668e+01	-3.393376e+00
1.412782e+01	-3.420274e+00
1.420942e+01	-3.447948e+00
1.429149e+01	-3.475052e+00
1.437404e+01	-3.502722e+00
1.445706e+01	-3.530727e+00
1.454057e+01	-3.558763e+00
1.462455e+01	-3.586486e+00
1.470902e+01	-3.614777e+00
1.479398e+01	-3.643372e+00
1.487943e+01	-3.671553e+00
1.496537e+01	-3.700166e+00
1.505181e+01	-3.728965e+00
1.513875e+01	-3.757892e+00
1.522619e+01	-3.786856e+00
1.531414e+01	-3.816061e+00
1.540259e+01	-3.845557e+00
1.549156e+01	-3.874982e+00
1.558103e+01	-3.904573e+00
1.567103e+01	-3.934274e+00
1.576155e+01	-3.963857e+00
1.585258e+01	-3.994000e+00
1.594415e+01	-4.024195e+00
1.603624e+01	-4.054762e+00
1.612886e+01	-4.084931e+00
1.622202e+01	-4.115129e+00
1.631572e+01	-4.146525e+00
1.640996e+01	-4.177085e+00
1.650474e+01	-4.207894e+00
1.660008e+01	-4.239123e+00
1.669596e+01	-4.270460e+00
1.679239e+01	-4.301828e+00
1.688938e+01	-4.332884e+00
1.698694e+01	-4.364593e+00
1.708505e+01	-4.396630e+00
1.718373e+01	-4.428674e+00
1.728299e+01	-4.460693e+00
1.738281e+01	-4.492992e+00
1.748322e+01	-4.525214e+00
1.758420e+01	-4.557432e+00
1.768576e+01	-4.590008e+00
1.778792e+01	-4.623009e+00
1.789066e+01	-4.655682e+00
1.799399e+01	-4.688954e+00
1.809793e+01	-4.721680e+00
1.820246e+01	-4.755067e+00
1.830760e+01	-4.788222e+00
1.841334e+01	-4.821632e+00
1.851969e+01	-4.855310e+00
1.862666e+01	-4.889232e+00
1.873425e+01	-4.923069e+00
1.884246e+01	-4.956963e+00
1.895129e+01	-4.990932e+00
1.906075e+01	-5.025374e+00
1.917085e+01	-5.059577e+00
1.928158e+01	-5.094425e+00
1.939295e+01	-5.128668e+00
1.950496e+01	-5.163690e+00
1.961762e+01	-5.198240e+00
1.973093e+01	-5.233309e+00
1.984490e+01	-5.268352e+00
1.995952e+01	-5.303830e+00
2.007480e+01	-5.339260e+00
2.019076e+01	-5.374557e+00
2.030738e+01	-5.409955e+00
2.042467e+01	-5.445715e+00
2.054264e+01	-5.481391e+00
2.066130e+01	-5.517446e+00
2.078064e+01	-5.553560e+00
2.090066e+01	-5.589605e+00
2.102139e+01	-5.625753e+00
2.114280e+01	-5.662110e+00
2.126492e+01	-5.698686e+00
2.138775e+01	-5.735391e+00
2.151128e+01	-5.772041e+00
2.163553e+01	-5.808993e+00
2.176050e+01	-5.845995e+00
2.188619e+01	-5.883177e+00
2.201260e+01	-5.920083e+00
2.213974e+01	-5.957327e+00
2.226762e+01	-5.994757e+00
2.239624e+01	-6.032276e+00
2.252560e+01	-6.069864e+00
2.265571e+01	-6.107752e+00
2.278656e+01	-6.145529e+00
2.291818e+01	-6.183274e+00
2.305055e+01	-6.221480e+00
2.318369e+01	-6.259463e+00
2.331760e+01	-6.297706e+00
2.345228e+01	-6.335798e+00
2.358774e+01	-6.374601e+00
2.372398e+01	-6.413359e+00
2.386101e+01	-6.451619e+00
2.399883e+01	-6.490464e+00
2.413745e+01	-6.529265e+00
2.427686e+01	-6.568324e+00
2.441709e+01	-6.607271e+00
2.455812e+01	-6.646895e+00
2.469997e+01	-6.685767e+00
2.484263e+01	-6.725109e+00
2.498612e+01	-6.764476e+00
2.513044e+01	-6.804245e+00
2.527559e+01	-6.843904e+00
2.542158e+01	-6.883567e+00
2.556842e+01	-6.923239e+00
2.571610e+01	-6.963101e+00
2.586463e+01	-7.003112e+00
2.601403e+01	-7.043477e+00
2.616428e+01	-7.083236e+00
2.631541e+01	-7.123884e+00
2.646740e+01	-7.164364e+00
2.662028e+01	-7.204452e+00
2.677404e+01	-7.245132e+00
2.692868e+01	-7.285528e+00
2.708422e+01	-7.326507e+00
2.724066e+01	-7.367628e+00
2.739800e+01	-7.407804e+00
2.755625e+01	-7.449466e+00
2.771541e+01	-7.490160e+00
2.787550e+01	-7.531605e+00
2.803650e+01	-7.572882e+00
2.819844e+01	-7.614000e+00
2.836131e+01	-7.655488e+00
2.852513e+01	-7.696911e+00
2.868989e+01	-7.737903e+00
2.885560e+01	-7.779654e+00
2.902227e+01	-7.821701e+00
2.918990e+01	-7.863287e+00
2.935850e+01	-7.905246e+00
2.952807e+01	-7.947490e+00
2.969863e+01	-7.989487e+00
2.987016e+01	-8.031801e+00
3.004269e+01	-8.073750e+00
3.021622e+01	-8.115853e+00
3.039075e+01	-8.158579e+00
3.056628e+01	-8.201216e+00
3.074283e+01	-8.243438e+00
3.092040e+01	-8.285963e+00
3.109900e+01	-8.328571e+00
3.127862e+01	-8.370999e+00
3.145929e+01	-8.413711e+00
3.164099e+01	-8.456797e+00
3.182375e+01	-8.499967e+00
3.200756e+01	-8.543049e+00
3.219244e+01	-8.585944e+00
3.237838e+01	-8.628767e+00
3.256540e+01	-8.672351e+00
3.275349e+01	-8.715320e+00
3.294268e+01	-8.758335e+00
3.313295e+01	-8.802235e+00
3.332433e+01	-8.845244e+00
3.351681e+01	-8.889331e+00
3.371040e+01	-8.933025e+00
3.390511e+01	-8.976521e+00
3.410094e+01	-9.020261e+00
3.429791e+01	-9.063829e+00
3.449601e+01	-9.107901e+00
3.469526e+01	-9.151959e+00
3.489566e+01	-9.195747e+00
3.509721e+01	-9.239822e+00
3.529993e+01	-9.284422e+00
3.550382e+01	-9.327790e+00
3.570889e+01	-9.372223e+00
3.591515e+01	-9.416434e+00
3.612259e+01	-9.460863e+00
3.633123e+01	-9.505581e+00
3.654108e+01	-9.550022e+00
3.675214e+01	-9.593880e+00
3.696442e+01	-9.638721e+00
3.717792e+01	-9.683495e+00
3.739266e+01	-9.728154e+00
3.760864e+01	-9.772673e+00
3.782587e+01	-9.817360e+00
3.804435e+01	-9.862492e+00
3.826409e+01	-9.907500e+00
3.848510e+01	-9.952408e+00
3.870739e+01	-9.997194e+00
3.893096e+01	-1.004236e+01
3.915583e+01	-1.008709e+01
3.938199e+01	-1.013257e+01
3.960946e+01	-1.017779e+01
3.983824e+01	-1.022291e+01
4.006834e+01	-1.026838e+01
4.029978e+01	-1.031370e+01
4.053255e+01	-1.035897e+01
4.076666e+01	-1.040454e+01
4.100213e+01	-1.044954e+01
4.123896e+01	-1.049514e+01
4.147715e+01	-1.054106e+01
4.171672e+01	-1.058652e+01
4.195767e+01	-1.063256e+01
4.220002e+01	-1.067789e+01
4.244377e+01	-1.072395e+01
4.268892e+01	-1.076931e+01
4.293549e+01	-1.081541e+01
4.318348e+01	-1.086138e+01
4.343291e+01	-1.090708e+01
4.368377e+01	-1.095351e+01
4.393609e+01	-1.099945e+01
4.418986e+01	-1.104571e+01
4.444510e+01	-1.109154e+01
4.470182e+01	-1.113741e+01
4.496001e+01	-1.118347e+01
4.521970e+01	-1.123032e+01
4.548089e+01	-1.127677e+01
4.574358e+01	-1.132314e+01
4.600779e+01	-1.136939e+01
4.627353e+01	-1.141592e+01
4.654081e+01	-1.146191e+01
4.680963e+01	-1.150811e+01
4.708000e+01	-1.155479e+01
4.735193e+01	-1.160170e+01
4.762543e+01	-1.164849e+01
4.790051e+01	-1.169498e+01
4.817719e+01	-1.174154e+01
4.845545e+01	-1.178788e+01
4.873533e+01	-1.183517e+01
4.901682e+01	-1.188105e+01
4.929994e+01	-1.192884e+01
4.958470e+01	-1.197478e+01
4.987110e+01	-1.202218e+01
5.015915e+01	-1.206801e+01
5.044887e+01	-1.211546e+01
5.074026e+01	-1.216212e+01
5.103333e+01	-1.220997e+01
5.132810e+01	-1.225730e+01
5.162457e+01	-1.230400e+01
5.192275e+01	-1.235119e+01
5.222265e+01	-1.239859e+01
5.252429e+01	-1.244494e+01
5.282767e+01	-1.249231e+01
5.313280e+01	-1.253874e+01
5.343969e+01	-1.258740e+01
5.374836e+01	-1.263418e+01
5.405880e+01	-1.268161e+01
5.437105e+01	-1.272859e+01
5.468509e+01	-1.277623e+01
5.500095e+01	-1.282325e+01
5.531863e+01	-1.287075e+01
5.563815e+01	-1.291843e+01
5.595951e+01	-1.296711e+01
5.628273e+01	-1.301373e+01
5.660782e+01	-1.306157e+01
5.693479e+01	-1.310891e+01
5.726364e+01	-1.315653e+01
5.759439e+01	-1.320417e+01
5.792705e+01	-1.325168e+01
5.826164e+01	-1.329925e+01
5.859815e+01	-1.334661e+01
5.893662e+01	-1.339442e+01
5.927703e+01	-1.344247e+01
5.961941e+01	-1.349031e+01
5.996377e+01	-1.353799e+01
6.031012e+01	-1.358496e+01
6.065847e+01	-1.363328e+01
6.100883e+01	-1.368216e+01
6.136121e+01	-1.372887e+01
6.171563e+01	-1.377704e+01
6.207210e+01	-1.382453e+01
6.243063e+01	-1.387314e+01
6.279122e+01	-1.392108e+01
6.315390e+01	-1.396934e+01
6.351868e+01	-1.401728e+01
6.388556e+01	-1.406519e+01
6.425456e+01	-1.411349e+01
6.462569e+01	-1.416186e+01
6.499897e+01	-1.420975e+01
6.537440e+01	-1.425795e+01
6.575200e+01	-1.430587e+01
6.613178e+01	-1.435386e+01
6.651375e+01	-1.440202e+01
6.689793e+01	-1.445066e+01
6.728433e+01	-1.449897e+01
6.767297e+01	-1.454640e+01
6.806384e+01	-1.459596e+01
6.845698e+01	-1.464260e+01
6.885238e+01	-1.469163e+01
6.925007e+01	-1.474007e+01
6.965005e+01	-1.478829e+01
7.005235e+01	-1.483769e+01
7.045697e+01	-1.488549e+01
7.086393e+01	-1.493335e+01
7.127323e+01	-1.498216e+01
7.168490e+01	-1.503040e+01
7.209895e+01	-1.507942e+01
7.251539e+01	-1.512811e+01
7.293424e+01	-1.517569e+01
7.335551e+01	-1.522551e+01
7.377920e+01	-1.527311e+01
7.420535e+01	-1.532242e+01
7.463396e+01	-1.537021e+01
7.506504e+01	-1.541962e+01
7.549861e+01	-1.546739e+01
7.593469e+01	-1.551623e+01
7.637328e+01	-1.556503e+01
7.681441e+01	-1.561407e+01
7.725809e+01	-1.566227e+01
7.770433e+01	-1.571075e+01
7.815315e+01	-1.575901e+01
7.860456e+01	-1.580859e+01
7.905857e+01	-1.585676e+01
7.951521e+01	-1.590506e+01
7.997449e+01	-1.595469e+01
8.043642e+01	-1.600210e+01
8.090102e+01	-1.605209e+01
8.136830e+01	-1.610017e+01
8.183828e+01	-1.614856e+01
8.231097e+01	-1.619778e+01
8.278640e+01	-1.624609e+01
8.326457e+01	-1.629594e+01
8.374550e+01	-1.634534e+01
8.422921e+01	-1.639388e+01
8.471572e+01	-1.644260e+01
8.520503e+01	-1.649205e+01
8.569717e+01	-1.654049e+01
8.619215e+01	-1.658993e+01
8.669000e+01	-1.663809e+01
8.719071e+01	-1.668654e+01
8.769432e+01	-1.673587e+01
8.820084e+01	-1.678485e+01
8.871029e+01	-1.683512e+01
8.922267e+01	-1.688228e+01
8.973802e+01	-1.693274e+01
9.025634e+01	-1.698175e+01
9.077766e+01	-1.702908e+01
9.130199e+01	-1.708045e+01
9.182935e+01	-1.712970e+01
9.235975e+01	-1.717686e+01
9.289321e+01	-1.722683e+01
9.342976e+01	-1.727510e+01
9.396941e+01	-1.732679e+01
9.451217e+01	-1.737392e+01
9.505807e+01	-1.742328e+01
9.560712e+01	-1.747263e+01
9.615934e+01	-1.752161e+01
9.671476e+01	-1.757037e+01
9.727338e+01	-1.761978e+01
9.783522e+01	-1.766898e+01
9.840032e+01	-1.771715e+01
9.896867e+01	-1.776691e+01
9.954031e+01	-1.781629e+01
1.001153e+02	-1.786587e+01
1.006935e+02	-1.791468e+01
1.012751e+02	-1.796426e+01
1.018601e+02	-1.801273e+01
1.024484e+02	-1.806239e+01
1.030402e+02	-1.811150e+01
1.036353e+02	-1.816059e+01
1.042339e+02	-1.820816e+01
1.048360e+02	-1.826037e+01
1.054415e+02	-1.830870e+01
1.060505e+02	-1.835690e+01
1.066631e+02	-1.840787e+01
1.072791e+02	-1.845732e+01
1.078988e+02	-1.850477e+01
1.085220e+02	-1.855634e+01
1.091488e+02	-1.860399e+01
1.097793e+02	-1.865504e+01
1.104133e+02	-1.870396e+01
1.110511e+02	-1.875258e+01
1.116925e+02	-1.880312e+01
1.123376e+02	-1.885266e+01
1.129865e+02	-1.890090e+01
1.136391e+02	-1.895017e+01
1.142955e+02	-1.900081e+01
1.149556e+02	-1.905030e+01
1.156196e+02	-1.909730e+01
1.162874e+02	-1.914732e+01
1.169591e+02	-1.919723e+01
1.176347e+02	-1.924580e+01
1.183141e+02	-1.929628e+01
1.189975e+02	-1.934647e+01
1.196848e+02	-1.939547e+01
1.203761e+02	-1.944507e+01
1.210714e+02	-1.949351e+01
1.217707e+02	-1.954344e+01
1.224740e+02	-1.959304e+01
1.231814e+02	-1.964395e+01
1.238929e+02	-1.969141e+01
1.246085e+02	-1.974193e+01
1.253283e+02	-1.979197e+01
1.260522e+02	-1.984058e+01
1.267802e+02	-1.988991e+01
1.275125e+02	-1.993952e+01
1.282490e+02	-1.998892e+01
1.289898e+02	-2.003681e+01
1.297348e+02	-2.008911e+01
1.304842e+02	-2.013772e+01
1.312378e+02	-2.018780e+01
1.319959e+02	-2.023694e+01
1.327583e+02	-2.028651e+01
1.335251e+02	-2.033499e+01
1.342963e+02	-2.038561e+01
1.350720e+02	-2.043684e+01
1.358522e+02	-2.048605e+01
1.366368e+02	-2.053397e+01
1.374260e+02	-2.058433e+01
1.382198e+02	-2.063421e+01
1.390182e+02	-2.068289e+01
1.398211e+02	-2.073326e+01
1.406287e+02	-2.078302e+01
1.414410e+02	-2.083338e+01
1.422579e+02	-2.088260e+01
1.430796e+02	-2.093139e+01
1.439060e+02	-2.098026e+01
1.447372e+02	-2.102939e+01
1.455732e+02	-2.107779e+01
1.464141e+02	-2.113082e+01
1.472597e+02	-2.117960e+01
1.481103e+02	-2.122824e+01
1.489658e+02	-2.127975e+01
1.498262e+02	-2.132833e+01
1.506916e+02	-2.137864e+01
1.515620e+02	-2.142900e+01
1.524374e+02	-2.147978e+01
1.533179e+02	-2.152759e+01
1.542034e+02	-2.157815e+01
1.550941e+02	-2.162556e+01
1.559899e+02	-2.167658e+01
1.568909e+02	-2.172618e+01
1.577971e+02	-2.177578e+01
1.587085e+02	-2.182589e+01
1.596252e+02	-2.187550e+01
1.605472e+02	-2.192677e+01
1.614745e+02	-2.197541e+01
1.624072e+02	-2.202354e+01
1.633453e+02	-2.207589e+01
1.642887e+02	-2.212430e+01
1.652377e+02	-2.217381e+01
1.661921e+02	-2.222308e+01
1.671520e+02	-2.227388e+01
1.681175e+02	-2.232290e+01
1.690885e+02	-2.237095e+01
1.700651e+02	-2.242352e+01
1.710474e+02	-2.247272e+01
1.720354e+02	-2.252333e+01
1.730291e+02	-2.257144e+01
1.740285e+02	-2.262175e+01
1.750337e+02	-2.267145e+01
1.760446e+02	-2.272264e+01
1.770615e+02	-2.276881e+01
1.780842e+02	-2.282185e+01
1.791128e+02	-2.287156e+01
1.801473e+02	-2.291954e+01
1.811878e+02	-2.296986e+01
1.822344e+02	-2.302058e+01
1.832870e+02	-2.306967e+01
1.843456e+02	-2.312082e+01
1.854104e+02	-2.317177e+01
1.864813e+02	-2.322154e+01
1.875584e+02	-2.326881e+01
1.886418e+02	-2.331907e+01
1.897313e+02	-2.336757e+01
1.908272e+02	-2.342065e+01
1.919294e+02	-2.346909e+01
1.930380e+02	-2.351968e+01
1.941530e+02	-2.356591e+01
1.952744e+02	-2.361798e+01
1.964023e+02	-2.366716e+01
1.975367e+02	-2.371947e+01
1.986777e+02	-2.376629e+01
1.998252e+02	-2.381889e+01
2.009794e+02	-2.386733e+01
2.021403e+02	-2.391743e+01
2.033078e+02	-2.396517e+01
2.044821e+02	-2.401876e+01
2.056632e+02	-2.406882e+01
2.068511e+02	-2.411652e+01
2.080459e+02	-2.416381e+01
2.092475e+02	-2.421647e+01
2.104561e+02	-2.426447e+01
2.116717e+02	-2.431586e+01
2.128943e+02	-2.436624e+01
2.141240e+02	-2.441837e+01
2.153608e+02	-2.446510e+01
2.166047e+02	-2.451624e+01
2.178558e+02	-2.456946e+01
2.191141e+02	-2.461810e+01
2.203797e+02	-2.466511e+01
2.216526e+02	-2.471587e+01
2.229329e+02	-2.476667e+01
2.242205e+02	-2.481405e+01
2.255156e+02	-2.486892e+01
2.268182e+02	-2.491337e+01
2.281283e+02	-2.496293e+01
2.294459e+02	-2.501232e+01
2.307712e+02	-2.506524e+01
2.321041e+02	-2.511703e+01
2.334447e+02	-2.516409e+01
2.347931e+02	-2.521480e+01
2.361493e+02	-2.526452e+01
2.375133e+02	-2.531502e+01
2.388851e+02	-2.536560e+01
2.402649e+02	-2.541060e+01
2.416527e+02	-2.546492e+01
2.430484e+02	-2.551533e+01
2.444523e+02	-2.556408e+01
2.458642e+02	-2.561585e+01
2.472843e+02	-2.566239e+01
2.487126e+02	-2.571329e+01
2.501492e+02	-2.576124e+01
2.515940e+02	-2.581351e+01
2.530472e+02	-2.586336e+01
2.545088e+02	-2.591438e+01
2.559789e+02	-2.596372e+01
2.574574e+02	-2.601225e+01
2.589444e+02	-2.606317e+01
2.604401e+02	-2.611098e+01
2.619444e+02	-2.616279e+01
2.634574e+02	-2.621515e+01
2.649791e+02	-2.626345e+01
2.665096e+02	-2.631337e+01
2.680489e+02	-2.636177e+01
2.695972e+02	-2.641173e+01
2.711544e+02	-2.646335e+01
2.727205e+02	-2.651344e+01
2.742958e+02	-2.656484e+01
2.758801e+02	-2.661233e+01
2.774736e+02	-2.666442e+01
2.790762e+02	-2.671088e+01
2.806882e+02	-2.676356e+01
2.823094e+02	-2.681380e+01
2.839400e+02	-2.686620e+01
2.855800e+02	-2.691115e+01
2.872295e+02	-2.696406e+01
2.888886e+02	-2.701380e+01
2.905572e+02	-2.705921e+01
2.922354e+02	-2.710910e+01
2.939234e+02	-2.716247e+01
2.956211e+02	-2.721279e+01
2.973286e+02	-2.726314e+01
2.990459e+02	-2.731595e+01
3.007732e+02	-2.736098e+01
3.025104e+02	-2.741053e+01
3.042577e+02	-2.746260e+01
3.060151e+02	-2.751436e+01
3.077826e+02	-2.756067e+01
3.095604e+02	-2.761225e+01
3.113484e+02	-2.766247e+01
3.131467e+02	-2.771304e+01
3.149554e+02	-2.776541e+01
3.167746e+02	-2.781583e+01
3.186043e+02	-2.786217e+01
3.204445e+02	-2.790879e+01
3.222954e+02	-2.796487e+01
3.241570e+02	-2.801247e+01
3.260293e+02	-2.806353e+01
3.279124e+02	-2.811337e+01
3.298064e+02	-2.815983e+01
3.317114e+02	-2.821525e+01
3.336273e+02	-2.826544e+01
3.355544e+02	-2.831250e+01
3.374925e+02	-2.836133e+01
3.394418e+02	-2.841576e+01
3.414024e+02	-2.846549e+01
3.433744e+02	-2.851397e+01
3.453577e+02	-2.856165e+01
3.473525e+02	-2.861282e+01
3.493588e+02	-2.865821e+01
3.513766e+02	-2.871317e+01
3.534062e+02	-2.876362e+01
3.554474e+02	-2.881264e+01
3.575005e+02	-2.885991e+01
3.595654e+02	-2.892033e+01
3.616422e+02	-2.896066e+01
3.637311e+02	-2.901616e+01
3.658320e+02	-2.906774e+01
3.679450e+02	-2.911191e+01
3.700702e+02	-2.916462e+01
3.722077e+02	-2.921612e+01
3.743576e+02	-2.926653e+01
3.765199e+02	-2.931405e+01
3.786946e+02	-2.936701e+01
3.808820e+02	-2.941381e+01
3.830819e+02	-2.946795e+01
3.852946e+02	-2.951274e+01
3.875200e+02	-2.956877e+01
3.897583e+02	-2.961607e+01
3.920096e+02	-2.966547e+01
3.942738e+02	-2.971182e+01
3.965511e+02	-2.976293e+01
3.988416e+02	-2.981231e+01
4.011452e+02	-2.986910e+01
4.034622e+02	-2.990793e+01
4.057926e+02	-2.996358e+01
4.081365e+02	-3.001406e+01
4.104938e+02	-3.007065e+01
4.128648e+02	-3.011492e+01
4.152495e+02	-3.016907e+01
4.176480e+02	-3.021411e+01
4.200603e+02	-3.027076e+01
4.224866e+02	-3.031476e+01
4.249268e+02	-3.037385e+01
4.273812e+02	-3.041833e+01
4.298497e+02	-3.046790e+01
4.323325e+02	-3.051677e+01
4.348297e+02	-3.056422e+01
4.373412e+02	-3.062307e+01
4.398673e+02	-3.067049e+01
4.424079e+02	-3.071745e+01
4.449633e+02	-3.077043e+01
4.475334e+02	-3.081724e+01
4.501183e+02	-3.087292e+01
4.527182e+02	-3.092326e+01
4.553330e+02	-3.096515e+01
4.579630e+02	-3.101962e+01
4.606082e+02	-3.106813e+01
4.632687e+02	-3.112002e+01
4.659445e+02	-3.117166e+01
4.686358e+02	-3.121770e+01
4.713426e+02	-3.126957e+01
4.740650e+02	-3.131902e+01
4.768032e+02	-3.137453e+01
4.795572e+02	-3.141936e+01
4.823271e+02	-3.146846e+01
4.851130e+02	-3.151556e+01
4.879150e+02	-3.157228e+01
4.907332e+02	-3.162129e+01
4.935676e+02	-3.167061e+01
4.964185e+02	-3.171295e+01
4.992858e+02	-3.177640e+01
5.021696e+02	-3.182538e+01
5.050701e+02	-3.187328e+01
5.079874e+02	-3.192405e+01
5.109215e+02	-3.197638e+01
5.138726e+02	-3.202318e+01
5.168407e+02	-3.206897e+01
5.198259e+02	-3.212623e+01
5.228284e+02	-3.216986e+01
5.258482e+02	-3.222012e+01
5.288855e+02	-3.227878e+01
5.319403e+02	-3.232457e+01
5.350128e+02	-3.237165e+01
5.381030e+02	-3.242830e+01
5.412111e+02	-3.247260e+01
5.443371e+02	-3.252535e+01
5.474812e+02	-3.257392e+01
5.506434e+02	-3.262888e+01
5.538239e+02	-3.267100e+01
5.570228e+02	-3.272375e+01
5.602401e+02	-3.277891e+01
5.634760e+02	-3.282587e+01
5.667306e+02	-3.288262e+01
5.700040e+02	-3.292210e+01
5.732964e+02	-3.298410e+01
5.766077e+02	-3.302327e+01
5.799382e+02	-3.308010e+01
5.832879e+02	-3.312713e+01
5.866569e+02	-3.317711e+01
5.900454e+02	-3.323808e+01
5.934535e+02	-3.327317e+01
5.968813e+02	-3.333057e+01
6.003288e+02	-3.338082e+01
6.037963e+02	-3.343438e+01
6.072838e+02	-3.347878e+01
6.107914e+02	-3.353347e+01
6.143194e+02	-3.358175e+01
6.178676e+02	-3.362868e+01
6.214364e+02	-3.368512e+01
6.250258e+02	-3.373055e+01
6.286359e+02	-3.378010e+01
6.322669e+02	-3.383043e+01
6.359189e+02	-3.388079e+01
6.395919e+02	-3.392986e+01
6.432862e+02	-3.397765e+01
6.470017e+02	-3.403048e+01
6.507388e+02	-3.408308e+01
6.544974e+02	-3.413946e+01
6.582778e+02	-3.418843e+01
6.620800e+02	-3.422946e+01
6.659041e+02	-3.428440e+01
6.697504e+02	-3.433742e+01
6.736188e+02	-3.438943e+01
6.775096e+02	-3.444010e+01
6.814229e+02	-3.448784e+01
6.853587e+02	-3.454385e+01
6.893173e+02	-3.458430e+01
6.932988e+02	-3.464835e+01
6.973033e+02	-3.469252e+01
7.013309e+02	-3.473929e+01
