Frequency(Hz)	Magnitude(dB)
1.000000e+01	-2.046747e+00
1.005776e+01	-2.065352e+00
1.011585e+01	-2.084404e+00
1.017428e+01	-2.103527e+00
1.023305e+01	-2.123072e+00
1.029215e+01	-2.142164e+00
1.035160e+01	-2.161775e+00
1.041139e+01	-2.181536e+00
1.047153e+01	-2.201556e+00
1.053201e+01	-2.221152e+00
1.059284e+01	-2.241401e+00
1.065403e+01	-2.261705e+00
1.071556e+01	-2.282140e+00
1.077746e+01	-2.302489e+00
1.083971e+01	-2.323198e+00
1.090232e+01	-2.344004e+00
1.096529e+01	-2.364827e+00
1.102862e+01	-2.386052e+00
1.109232e+01	-2.407202e+00
1.115639e+01	-2.428491e+00
1.122083e+01	-2.450067e+00
1.128564e+01	-2.471698e+00
1.135083e+01	-2.493543e+00
1.141639e+01	-2.515220e+00
1.148233e+01	-2.537568e+00
1.154865e+01	-2.559504e+00
1.161536e+01	-2.581837e+00
1.168245e+01	-2.604546e+00
1.174992e+01	-2.627068e+00
1.181779e+01	-2.649925e+00
1.188605e+01	-2.672894e+00
1.195470e+01	-2.695936e+00
1.202375e+01	-2.719154e+00
1.209320e+01	-2.742466e+00
1.216305e+01	-2.765899e+00
1.223330e+01	-2.789490e+00
1.230396e+01	-2.813082e+00
1.237503e+01	-2.837171e+00
1.244651e+01	-2.861513e+00
1.251840e+01	-2.885590e+00
1.259070e+01	-2.910163e+00
1.266343e+01	-2.934425e+00
1.273657e+01	-2.958858e+00
1.281014e+01	-2.983857e+00
1.288413e+01	-3.008796e+00
1.295855e+01	-3.034034e+00
1.303339e+01	-3.059150e+00
1.310867e+01	-3.084369e+00
1.318439e+01	-3.110114e+00
1.326054e+01	-3.135699e+00
1.333713e+01	-3.161328e+00
1.341417e+01	-3.187445e+00
1.349165e+01	-3.213443e+00
1.356958e+01	-3.239415e+00
1.364795e+01	-3.266174e+00
1.372678e+01	-3.292564e+00
1.380607e+01	-3.318993e+00
1.388581e+01	-3.345932e+00
1.396602e+01	-3.373033e+00
1.404668e+01	-3.400048e+00
1.412782e+01	-3.427325e+00
1.420942e+01	-3.454646e+00
1.429149e+01	-3.482262e+00
1.437404e+01	-3.509725e+00
1.445706e+01	-3.537521e+00
1.454057e+01	-3.565372e+00
1.462455e+01	-3.593772e+00
1.470902e+01	-3.622020e+00
1.479398e+01	-3.650059e+00
1.487943e+01	-3.678569e+00
1.496537e+01	-3.707542e+00
1.505181e+01	-3.736576e+00
1.513875e+01	-3.765305e+00
1.522619e+01	-3.794399e+00
1.531414e+01	-3.823378e+00
1.540259e+01	-3.852633e+00
1.549156e+01	-3.882083e+00
1.558103e+01	-3.912068e+00
1.567103e+01	-3.941614e+00
1.576155e+01	-3.971688e+00
1.585258e+01	-4.001685e+00
1.594415e+01	-4.031782e+00
1.603624e+01	-4.062230e+00
1.612886e+01	-4.092563e+00
1.622202e+01	-4.123315e+00
1.631572e+01	-4.153796e+00
1.640996e+01	-4.184669e+00
1.650474e+01	-4.216138e+00
1.660008e+01	-4.246836e+00
1.669596e+01	-4.278056e+00
1.679239e+01	-4.309802e+00
1.688938e+01	-4.341090e+00
1.698694e+01	-4.372735e+00
1.708505e+01	-4.404811e+00
1.718373e+01	-4.436595e+00
1.728299e+01	-4.469029e+00
1.738281e+01	-4.501031e+00
1.748322e+01	-4.533339e+00
1.758420e+01	-4.565834e+00
1.768576e+01	-4.598042e+00
1.778792e+01	-4.631031e+00
1.789066e+01	-4.664074e+00
1.799399e+01	-4.697165e+00
1.809793e+01	-4.730349e+00
1.820246e+01	-4.763367e+00
1.830760e+01	-4.796636e+00
1.841334e+01	-4.830269e+00
1.851969e+01	-4.864002e+00
1.862666e+01	-4.897336e+00
1.873425e+01	-4.931576e+00
1.884246e+01	-4.965435e+00
1.895129e+01	-4.999749e+00
1.906075e+01	-5.033972e+00
1.917085e+01	-5.068318e+00
1.928158e+01	-5.102850e+00
1.939295e+01	-5.137605e+00
1.950496e+01	-5.172337e+00
1.961762e+01	-5.207258e+00
1.973093e+01	-5.242253e+00
1.984490e+01	-5.277538e+00
1.995952e+01	-5.312765e+00
2.007480e+01	-5.347924e+00
2.019076e+01	-5.383454e+00
2.030738e+01	-5.419198e+00
2.042467e+01	-5.454658e+00
2.054264e+01	-5.490403e+00
2.066130e+01	-5.526510e+00
2.078064e+01	-5.562625e+00
2.090066e+01	-5.598644e+00
2.102139e+01	-5.634864e+00
2.114280e+01	-5.671463e+00
2.126492e+01	-5.708077e+00
2.138775e+01	-5.744666e+00
2.151128e+01	-5.781607e+00
2.163553e+01	-5.818340e+00
2.176050e+01	-5.855228e+00
2.188619e+01	-5.892268e+00
2.201260e+01	-5.929448e+00
2.213974e+01	-5.966952e+00
2.226762e+01	-6.003952e+00
2.239624e+01	-6.042027e+00
2.252560e+01	-6.079606e+00
2.265571e+01	-6.117001e+00
2.278656e+01	-6.155027e+00
2.291818e+01	-6.192943e+00
2.305055e+01	-6.231138e+00
2.318369e+01	-6.269165e+00
2.331760e+01	-6.307478e+00
2.345228e+01	-6.345730e+00
2.358774e+01	-6.384475e+00
2.372398e+01	-6.422659e+00
2.386101e+01	-6.461767e+00
2.399883e+01	-6.500490e+00
2.413745e+01	-6.539270e+00
2.427686e+01	-6.578426e+00
2.441709e+01	-6.617290e+00
2.455812e+01	-6.656674e+00
2.469997e+01	-6.695772e+00
2.484263e+01	-6.735219e+00
2.498612e+01	-6.774714e+00
2.513044e+01	-6.814306e+00
2.527559e+01	-6.853773e+00
2.542158e+01	-6.893517e+00
2.556842e+01	-6.933103e+00
2.571610e+01	-6.973211e+00
2.586463e+01	-7.013504e+00
2.601403e+01	-7.053253e+00
2.616428e+01	-7.093842e+00
2.631541e+01	-7.133911e+00
2.646740e+01	-7.174309e+00
2.662028e+01	-7.214817e+00
2.677404e+01	-7.255256e+00
2.692868e+01	-7.296221e+00
2.708422e+01	-7.336604e+00
2.724066e+01	-7.377403e+00
2.739800e+01	-7.418377e+00
2.755625e+01	-7.459696e+00
2.771541e+01	-7.500379e+00
2.787550e+01	-7.541948e+00
2.803650e+01	-7.583169e+00
2.819844e+01	-7.624782e+00
2.836131e+01	-7.665447e+00
2.852513e+01	-7.707387e+00
2.868989e+01	-7.749004e+00
2.885560e+01	-7.790718e+00
2.902227e+01	-7.832185e+00
2.918990e+01	-7.874441e+00
2.935850e+01	-7.916244e+00
2.952807e+01	-7.958200e+00
2.969863e+01	-8.000216e+00
2.987016e+01	-8.042417e+00
3.004269e+01	-8.084315e+00
3.021622e+01	-8.126425e+00
3.039075e+01	-8.168840e+00
3.056628e+01	-8.211732e+00
3.074283e+01	-8.253811e+00
3.092040e+01	-8.295972e+00
3.109900e+01	-8.339219e+00
3.127862e+01	-8.381916e+00
3.145929e+01	-8.424814e+00
3.164099e+01	-8.467708e+00
3.182375e+01	-8.510843e+00
3.200756e+01	-8.553946e+00
3.219244e+01	-8.596594e+00
3.237838e+01	-8.639673e+00
3.256540e+01	-8.682945e+00
3.275349e+01	-8.726331e+00
3.294268e+01	-8.769634e+00
3.313295e+01	-8.813137e+00
3.332433e+01	-8.856347e+00
3.351681e+01	-8.900399e+00
3.371040e+01	-8.943703e+00
3.390511e+01	-8.987658e+00
3.410094e+01	-9.031170e+00
3.429791e+01	-9.075374e+00
3.449601e+01	-9.118716e+00
3.469526e+01	-9.163041e+00
3.489566e+01	-9.206721e+00
3.509721e+01	-9.251019e+00
3.529993e+01	-9.294791e+00
3.550382e+01	-9.339426e+00
3.570889e+01	-9.383274e+00
3.591515e+01	-9.427637e+00
3.612259e+01	-9.471818e+00
3.633123e+01	-9.516353e+00
3.654108e+01	-9.561118e+00
3.675214e+01	-9.605594e+00
3.696442e+01	-9.649500e+00
3.717792e+01	-9.694790e+00
3.739266e+01	-9.739119e+00
3.760864e+01	-9.784251e+00
3.782587e+01	-9.828835e+00
3.804435e+01	-9.873241e+00
3.826409e+01	-9.918474e+00
3.848510e+01	-9.963333e+00
3.870739e+01	-1.000827e+01
3.893096e+01	-1.005319e+01
3.915583e+01	-1.009898e+01
3.938199e+01	-1.014403e+01
3.960946e+01	-1.018910e+01
3.983824e+01	-1.023423e+01
4.006834e+01	-1.027936e+01
4.029978e+01	-1.032504e+01
4.053255e+01	-1.037040e+01
4.076666e+01	-1.041609e+01
4.100213e+01	-1.046111e+01
4.123896e+01	-1.050750e+01
4.147715e+01	-1.055269e+01
4.171672e+01	-1.059797e+01
4.195767e+01	-1.064403e+01
4.220002e+01	-1.068970e+01
4.244377e+01	-1.073531e+01
4.268892e+01	-1.078140e+01
4.293549e+01	-1.082694e+01
4.318348e+01	-1.087282e+01
4.343291e+01	-1.091879e+01
4.368377e+01	-1.096529e+01
4.393609e+01	-1.101074e+01
4.418986e+01	-1.105707e+01
4.444510e+01	-1.110332e+01
4.470182e+01	-1.114925e+01
4.496001e+01	-1.119556e+01
4.521970e+01	-1.124154e+01
4.548089e+01	-1.128818e+01
4.574358e+01	-1.133396e+01
4.600779e+01	-1.138063e+01
4.627353e+01	-1.142721e+01
4.654081e+01	-1.147370e+01
4.680963e+01	-1.152051e+01
4.708000e+01	-1.156643e+01
4.735193e+01	-1.161340e+01
4.762543e+01	-1.165969e+01
4.790051e+01	-1.170613e+01
4.817719e+01	-1.175319e+01
4.845545e+01	-1.179932e+01
4.873533e+01	-1.184632e+01
4.901682e+01	-1.189368e+01
4.929994e+01	-1.193991e+01
4.958470e+01	-1.198749e+01
4.987110e+01	-1.203399e+01
5.015915e+01	-1.208079e+01
5.044887e+01	-1.212762e+01
5.074026e+01	-1.217467e+01
5.103333e+01	-1.222166e+01
5.132810e+01	-1.226850e+01
5.162457e+01	-1.231539e+01
5.192275e+01	-1.236289e+01
5.222265e+01	-1.240984e+01
5.252429e+01	-1.245655e+01
5.282767e+01	-1.250499e+01
5.313280e+01	-1.255188e+01
5.343969e+01	-1.259884e+01
5.374836e+01	-1.264626e+01
5.405880e+01	-1.269325e+01
5.437105e+01	-1.274058e+01
5.468509e+01	-1.278885e+01
5.500095e+01	-1.283612e+01
5.531863e+01	-1.288332e+01
5.563815e+01	-1.293031e+01
5.595951e+01	-1.297862e+01
5.628273e+01	-1.302587e+01
5.660782e+01	-1.307303e+01
5.693479e+01	-1.312041e+01
5.726364e+01	-1.316780e+01
5.759439e+01	-1.321616e+01
5.792705e+01	-1.326391e+01
5.826164e+01	-1.331098e+01
5.859815e+01	-1.335835e+01
5.893662e+01	-1.340737e+01
5.927703e+01	-1.345417e+01
5.961941e+01	-1.350222e+01
5.996377e+01	-1.354994e+01
6.031012e+01	-1.359797e+01
6.065847e+01	-1.364592e+01
6.100883e+01	-1.369370e+01
6.136121e+01	-1.374178e+01
6.171563e+01	-1.378910e+01
6.207210e+01	-1.383746e+01
6.243063e+01	-1.388505e+01
6.279122e+01	-1.393377e+01
6.315390e+01	-1.398099e+01
6.351868e+01	-1.402909e+01
6.388556e+01	-1.407752e+01
6.425456e+01	-1.412534e+01
6.462569e+01	-1.417390e+01
6.499897e+01	-1.422142e+01
6.537440e+01	-1.426999e+01
6.575200e+01	-1.431788e+01
6.613178e+01	-1.436643e+01
6.651375e+01	-1.441428e+01
6.689793e+01	-1.446320e+01
6.728433e+01	-1.451075e+01
6.767297e+01	-1.455858e+01
6.806384e+01	-1.460644e+01
6.845698e+01	-1.465663e+01
6.885238e+01	-1.470309e+01
6.925007e+01	-1.475285e+01
6.965005e+01	-1.480168e+01
7.005235e+01	-1.484935e+01
7.045697e+01	-1.489753e+01
7.086393e+01	-1.494608e+01
7.127323e+01	-1.499502e+01
7.168490e+01	-1.504325e+01
7.209895e+01	-1.509129e+01
7.251539e+01	-1.513999e+01
7.293424e+01	-1.518851e+01
7.335551e+01	-1.523699e+01
7.377920e+01	-1.528561e+01
7.420535e+01	-1.533439e+01
7.463396e+01	-1.538309e+01
7.506504e+01	-1.543084e+01
7.549861e+01	-1.548036e+01
7.593469e+01	-1.552888e+01
7.637328e+01	-1.557678e+01
7.681441e+01	-1.562614e+01
7.725809e+01	-1.567531e+01
7.770433e+01	-1.572344e+01
7.815315e+01	-1.577197e+01
7.860456e+01	-1.582064e+01
7.905857e+01	-1.586934e+01
7.951521e+01	-1.591701e+01
7.997449e+01	-1.596685e+01
8.043642e+01	-1.601524e+01
8.090102e+01	-1.606467e+01
8.136830e+01	-1.611223e+01
8.183828e+01	-1.616242e+01
8.231097e+01	-1.621185e+01
8.278640e+01	-1.626014e+01
8.326457e+01	-1.630834e+01
8.374550e+01	-1.635704e+01
8.422921e+01	-1.640583e+01
8.471572e+01	-1.645541e+01
8.520503e+01	-1.650379e+01
8.569717e+01	-1.655380e+01
8.619215e+01	-1.660274e+01
8.669000e+01	-1.665090e+01
8.719071e+01	-1.670037e+01
8.769432e+01	-1.674809e+01
8.820084e+01	-1.679761e+01
8.871029e+01	-1.684679e+01
8.922267e+01	-1.689638e+01
8.973802e+01	-1.694438e+01
9.025634e+01	-1.699363e+01
9.077766e+01	-1.704256e+01
9.130199e+01	-1.709174e+01
9.182935e+01	-1.714121e+01
9.235975e+01	-1.718954e+01
9.289321e+01	-1.723937e+01
9.342976e+01	-1.728840e+01
9.396941e+01	-1.733664e+01
9.451217e+01	-1.738544e+01
9.505807e+01	-1.743539e+01
9.560712e+01	-1.748449e+01
9.615934e+01	-1.753371e+01
9.671476e+01	-1.758277e+01
9.727338e+01	-1.763078e+01
9.783522e+01	-1.768179e+01
9.840032e+01	-1.772987e+01
9.896867e+01	-1.777951e+01
9.954031e+01	-1.782951e+01
1.001153e+02	-1.787912e+01
1.006935e+02	-1.792693e+01
1.012751e+02	-1.797642e+01
1.018601e+02	-1.802516e+01
1.024484e+02	-1.807553e+01
1.030402e+02	-1.812419e+01
1.036353e+02	-1.817302e+01
1.042339e+02	-1.822241e+01
1.048360e+02	-1.827260e+01
1.054415e+02	-1.832019e+01
1.060505e+02	-1.837000e+01
1.066631e+02	-1.842041e+01
1.072791e+02	-1.847043e+01
1.078988e+02	-1.851851e+01
1.085220e+02	-1.856926e+01
1.091488e+02	-1.861759e+01
1.097793e+02	-1.866666e+01
1.104133e+02	-1.871628e+01
1.110511e+02	-1.876705e+01
1.116925e+02	-1.881368e+01
1.123376e+02	-1.886444e+01
1.129865e+02	-1.891466e+01
1.136391e+02	-1.896297e+01
1.142955e+02	-1.901219e+01
1.149556e+02	-1.906160e+01
1.156196e+02	-1.911074e+01
1.162874e+02	-1.916103e+01
1.169591e+02	-1.921060e+01
1.176347e+02	-1.925789e+01
1.183141e+02	-1.930936e+01
1.189975e+02	-1.936037e+01
1.196848e+02	-1.940862e+01
1.203761e+02	-1.945704e+01
1.210714e+02	-1.950633e+01
1.217707e+02	-1.955680e+01
1.224740e+02	-1.960589e+01
1.231814e+02	-1.965518e+01
1.238929e+02	-1.970499e+01
1.246085e+02	-1.975445e+01
1.253283e+02	-1.980282e+01
1.260522e+02	-1.985249e+01
1.267802e+02	-1.990255e+01
1.275125e+02	-1.995338e+01
1.282490e+02	-2.000042e+01
1.289898e+02	-2.005084e+01
1.297348e+02	-2.010048e+01
1.304842e+02	-2.015123e+01
1.312378e+02	-2.019937e+01
1.319959e+02	-2.024925e+01
1.327583e+02	-2.029758e+01
1.335251e+02	-2.035060e+01
1.342963e+02	-2.039880e+01
1.350720e+02	-2.044863e+01
1.358522e+02	-2.049769e+01
1.366368e+02	-2.054752e+01
1.374260e+02	-2.059628e+01
1.382198e+02	-2.064638e+01
1.390182e+02	-2.069601e+01
1.398211e+02	-2.074494e+01
1.406287e+02	-2.079637e+01
1.414410e+02	-2.084490e+01
1.422579e+02	-2.089358e+01
1.430796e+02	-2.094344e+01
1.439060e+02	-2.099376e+01
1.447372e+02	-2.104214e+01
1.455732e+02	-2.109228e+01
1.464141e+02	-2.114180e+01
1.472597e+02	-2.119331e+01
1.481103e+02	-2.124182e+01
1.489658e+02	-2.129132e+01
1.498262e+02	-2.134064e+01
1.506916e+02	-2.139117e+01
1.515620e+02	-2.143904e+01
1.524374e+02	-2.149054e+01
1.533179e+02	-2.154292e+01
1.542034e+02	-2.158824e+01
1.550941e+02	-2.163965e+01
1.559899e+02	-2.168866e+01
1.568909e+02	-2.173829e+01
1.577971e+02	-2.178848e+01
1.587085e+02	-2.183751e+01
1.596252e+02	-2.188735e+01
1.605472e+02	-2.193891e+01
1.614745e+02	-2.198770e+01
1.624072e+02	-2.203721e+01
1.633453e+02	-2.208682e+01
1.642887e+02	-2.213660e+01
1.652377e+02	-2.218579e+01
1.661921e+02	-2.223529e+01
1.671520e+02	-2.228438e+01
1.681175e+02	-2.233636e+01
1.690885e+02	-2.238658e+01
1.700651e+02	-2.243514e+01
1.710474e+02	-2.248573e+01
1.720354e+02	-2.253424e+01
1.730291e+02	-2.258510e+01
1.740285e+02	-2.263501e+01
1.750337e+02	-2.268316e+01
1.760446e+02	-2.273304e+01
1.770615e+02	-2.278218e+01
1.780842e+02	-2.283217e+01
1.791128e+02	-2.288536e+01
1.801473e+02	-2.293388e+01
1.811878e+02	-2.298254e+01
1.822344e+02	-2.303010e+01
1.832870e+02	-2.308310e+01
1.843456e+02	-2.313182e+01
1.854104e+02	-2.318181e+01
1.864813e+02	-2.323161e+01
1.875584e+02	-2.328068e+01
1.886418e+02	-2.332951e+01
1.897313e+02	-2.338057e+01
1.908272e+02	-2.343263e+01
1.919294e+02	-2.348066e+01
1.930380e+02	-2.352964e+01
1.941530e+02	-2.357997e+01
1.952744e+02	-2.363032e+01
1.964023e+02	-2.368111e+01
1.975367e+02	-2.372947e+01
1.986777e+02	-2.378050e+01
1.998252e+02	-2.382899e+01
2.009794e+02	-2.387998e+01
2.021403e+02	-2.392872e+01
2.033078e+02	-2.397934e+01
2.044821e+02	-2.403062e+01
2.056632e+02	-2.408024e+01
2.068511e+02	-2.412909e+01
2.080459e+02	-2.418215e+01
2.092475e+02	-2.423024e+01
2.104561e+02	-2.427877e+01
2.116717e+02	-2.432966e+01
2.128943e+02	-2.437643e+01
2.141240e+02	-2.443026e+01
2.153608e+02	-2.447616e+01
2.166047e+02	-2.452526e+01
2.178558e+02	-2.457753e+01
2.191141e+02	-2.462696e+01
2.203797e+02	-2.467749e+01
2.216526e+02	-2.472680e+01
2.229329e+02	-2.478009e+01
2.242205e+02	-2.482812e+01
2.255156e+02	-2.488014e+01
2.268182e+02	-2.492679e+01
2.281283e+02	-2.497653e+01
2.294459e+02	-2.502531e+01
2.307712e+02	-2.507670e+01
2.321041e+02	-2.512899e+01
2.334447e+02	-2.517497e+01
2.347931e+02	-2.522312e+01
2.361493e+02	-2.527666e+01
2.375133e+02	-2.532780e+01
2.388851e+02	-2.537664e+01
2.402649e+02	-2.542807e+01
2.416527e+02	-2.547720e+01
2.430484e+02	-2.552762e+01
2.444523e+02	-2.557908e+01
2.458642e+02	-2.562617e+01
2.472843e+02	-2.567445e+01
2.487126e+02	-2.572565e+01
2.501492e+02	-2.577701e+01
2.515940e+02	-2.582766e+01
2.530472e+02	-2.587577e+01
2.545088e+02	-2.592895e+01
2.559789e+02	-2.597723e+01
2.574574e+02	-2.602564e+01
2.589444e+02	-2.607355e+01
2.604401e+02	-2.612359e+01
2.619444e+02	-2.617684e+01
2.634574e+02	-2.622632e+01
2.649791e+02	-2.627608e+01
2.665096e+02	-2.632286e+01
2.680489e+02	-2.637239e+01
2.695972e+02	-2.642481e+01
2.711544e+02	-2.647534e+01
2.727205e+02	-2.652631e+01
2.742958e+02	-2.657344e+01
2.758801e+02	-2.662181e+01
2.774736e+02	-2.667528e+01
2.790762e+02	-2.672476e+01
2.806882e+02	-2.677192e+01
2.823094e+02	-2.682552e+01
2.839400e+02	-2.687341e+01
2.855800e+02	-2.692874e+01
2.872295e+02	-2.697498e+01
2.888886e+02	-2.702569e+01
2.905572e+02	-2.707637e+01
2.922354e+02	-2.712721e+01
2.939234e+02	-2.717363e+01
2.956211e+02	-2.722465e+01
2.973286e+02	-2.727601e+01
2.990459e+02	-2.732668e+01
3.007732e+02	-2.737795e+01
3.025104e+02	-2.743027e+01
3.042577e+02	-2.747460e+01
3.060151e+02	-2.752502e+01
3.077826e+02	-2.757948e+01
3.095604e+02	-2.762310e+01
3.113484e+02	-2.767195e+01
3.131467e+02	-2.772563e+01
3.149554e+02	-2.777610e+01
3.167746e+02	-2.782611e+01
3.186043e+02	-2.787471e+01
3.204445e+02	-2.792402e+01
3.222954e+02	-2.797813e+01
3.241570e+02	-2.802585e+01
3.260293e+02	-2.807500e+01
3.279124e+02	-2.812824e+01
3.298064e+02	-2.817542e+01
3.317114e+02	-2.822682e+01
3.336273e+02	-2.827368e+01
3.355544e+02	-2.832379e+01
3.374925e+02	-2.837627e+01
3.394418e+02	-2.842582e+01
3.414024e+02	-2.847899e+01
3.433744e+02	-2.852303e+01
3.453577e+02	-2.857503e+01
3.473525e+02	-2.862923e+01
3.493588e+02	-2.867835e+01
3.513766e+02	-2.872439e+01
3.534062e+02	-2.877378e+01
3.554474e+02	-2.882553e+01
3.575005e+02	-2.887085e+01
3.595654e+02	-2.892759e+01
3.616422e+02	-2.897781e+01
3.637311e+02	-2.902561e+01
3.658320e+02	-2.907426e+01
3.679450e+02	-2.912755e+01
3.700702e+02	-2.917775e+01
3.722077e+02	-2.922874e+01
3.743576e+02	-2.927386e+01
3.765199e+02	-2.932238e+01
3.786946e+02	-2.937754e+01
3.808820e+02	-2.942618e+01
3.830819e+02	-2.947814e+01
3.852946e+02	-2.952430e+01
3.875200e+02	-2.957632e+01
3.897583e+02	-2.962966e+01
3.920096e+02	-2.967981e+01
3.942738e+02	-2.972797e+01
3.965511e+02	-2.977179e+01
3.988416e+02	-2.982729e+01
4.011452e+02	-2.987747e+01
4.034622e+02	-2.992824e+01
4.057926e+02	-2.997694e+01
4.081365e+02	-3.002938e+01
4.104938e+02	-3.008081e+01
4.128648e+02	-3.012839e+01
4.152495e+02	-3.018228e+01
4.176480e+02	-3.023221e+01
4.200603e+02	-3.028524e+01
4.224866e+02	-3.033063e+01
4.249268e+02	-3.037787e+01
4.273812e+02	-3.042558e+01
4.298497e+02	-3.047657e+01
4.323325e+02	-3.052502e+01
4.348297e+02	-3.058244e+01
4.373412e+02	-3.062954e+01
4.398673e+02	-3.067840e+01
4.424079e+02	-3.073144e+01
4.449633e+02	-3.077928e+01
4.475334e+02	-3.082805e+01
4.501183e+02	-3.088185e+01
4.527182e+02	-3.093046e+01
4.553330e+02	-3.098368e+01
4.579630e+02	-3.103117e+01
4.606082e+02	-3.108653e+01
4.632687e+02	-3.113738e+01
4.659445e+02	-3.118003e+01
4.686358e+02	-3.123410e+01
4.713426e+02	-3.128764e+01
4.740650e+02	-3.133449e+01
4.768032e+02	-3.138581e+01
4.795572e+02	-3.143883e+01
4.823271e+02	-3.148153e+01
4.851130e+02	-3.153481e+01
4.879150e+02	-3.158713e+01
4.907332e+02	-3.163514e+01
4.935676e+02	-3.168280e+01
4.964185e+02	-3.173378e+01
4.992858e+02	-3.177531e+01
5.021696e+02	-3.183711e+01
5.050701e+02	-3.188204e+01
5.079874e+02	-3.193525e+01
5.109215e+02	-3.198567e+01
5.138726e+02	-3.203366e+01
5.168407e+02	-3.207715e+01
5.198259e+02	-3.213751e+01
5.228284e+02	-3.218219e+01
5.258482e+02	-3.223661e+01
5.288855e+02	-3.228925e+01
5.319403e+02	-3.234078e+01
5.350128e+02	-3.238838e+01
5.381030e+02	-3.243281e+01
5.412111e+02	-3.248601e+01
5.443371e+02	-3.253434e+01
5.474812e+02	-3.259220e+01
5.506434e+02	-3.263662e+01
5.538239e+02	-3.268282e+01
5.570228e+02	-3.273878e+01
5.602401e+02	-3.279006e+01
5.634760e+02	-3.283790e+01
5.667306e+02	-3.289309e+01
5.700040e+02	-3.293895e+01
5.732964e+02	-3.298652e+01
5.766077e+02	-3.304171e+01
5.799382e+02	-3.308998e+01
5.832879e+02	-3.313488e+01
5.866569e+02	-3.318161e+01
5.900454e+02	-3.324188e+01
5.934535e+02	-3.328935e+01
5.968813e+02	-3.334434e+01
6.003288e+02	-3.339602e+01
6.037963e+02	-3.343417e+01
6.072838e+02	-3.349524e+01
6.107914e+02	-3.354395e+01
6.143194e+02	-3.359126e+01
6.178676e+02	-3.364354e+01
6.214364e+02	-3.369438e+01
6.250258e+02	-3.373596e+01
6.286359e+02	-3.380004e+01
6.322669e+02	-3.384304e+01
6.359189e+02	-3.389167e+01
6.395919e+02	-3.394763e+01
6.432862e+02	-3.399607e+01
6.470017e+02	-3.404313e+01
6.507388e+02	-3.410130e+01
6.544974e+02	-3.414491e+01
6.582778e+02	-3.419101e+01
6.620800e+02	-3.424817e+01
6.659041e+02	-3.429878e+01
6.697504e+02	-3.434785e+01
6.736188e+02	-3.440376e+01
6.775096e+02	-3.444916e+01
6.814229e+02	-3.449798e+01
6.853587e+02	-3.455088e+01
6.893173e+02	-3.458980e+01
6.932988e+02	-3.464688e+01
6.973033e+02	-3.469583e+01
7.013309e+02	-3.475022e+01
