Frequency(Hz)	Magnitude(dB)
1.000000e+01	-2.268011e+00
1.005776e+01	-2.288089e+00
1.011585e+01	-2.308517e+00
1.017428e+01	-2.329410e+00
1.023305e+01	-2.350248e+00
1.029215e+01	-2.371380e+00
1.035160e+01	-2.392564e+00
1.041139e+01	-2.413581e+00
1.047153e+01	-2.435110e+00
1.053201e+01	-2.456770e+00
1.059284e+01	-2.478318e+00
1.065403e+01	-2.500122e+00
1.071556e+01	-2.522168e+00
1.077746e+01	-2.544220e+00
1.083971e+01	-2.566516e+00
1.090232e+01	-2.588782e+00
1.096529e+01	-2.611293e+00
1.102862e+01	-2.634011e+00
1.109232e+01	-2.656840e+00
1.115639e+01	-2.679722e+00
1.122083e+01	-2.703158e+00
1.128564e+01	-2.726372e+00
1.135083e+01	-2.749565e+00
1.141639e+01	-2.773148e+00
1.148233e+01	-2.796913e+00
1.154865e+01	-2.820948e+00
1.161536e+01	-2.844661e+00
1.168245e+01	-2.868599e+00
1.174992e+01	-2.892842e+00
1.181779e+01	-2.917308e+00
1.188605e+01	-2.941721e+00
1.195470e+01	-2.966506e+00
1.202375e+01	-2.991396e+00
1.209320e+01	-3.016497e+00
1.216305e+01	-3.041620e+00
1.223330e+01	-3.066704e+00
1.230396e+01	-3.092083e+00
1.237503e+01	-3.117694e+00
1.244651e+01	-3.143474e+00
1.251840e+01	-3.169384e+00
1.259070e+01	-3.195402e+00
1.266343e+01	-3.221426e+00
1.273657e+01	-3.247512e+00
1.281014e+01	-3.274112e+00
1.288413e+01	-3.300475e+00
1.295855e+01	-3.327526e+00
1.303339e+01	-3.354045e+00
1.310867e+01	-3.381103e+00
1.318439e+01	-3.408116e+00
1.326054e+01	-3.435423e+00
1.333713e+01	-3.462951e+00
1.341417e+01	-3.490816e+00
1.349165e+01	-3.518378e+00
1.356958e+01	-3.546041e+00
1.364795e+01	-3.574175e+00
1.372678e+01	-3.602352e+00
1.380607e+01	-3.630569e+00
1.388581e+01	-3.658677e+00
1.396602e+01	-3.687413e+00
1.404668e+01	-3.716322e+00
1.412782e+01	-3.745060e+00
1.420942e+01	-3.773964e+00
1.429149e+01	-3.803260e+00
1.437404e+01	-3.832178e+00
1.445706e+01	-3.861573e+00
1.454057e+01	-3.891209e+00
1.462455e+01	-3.920744e+00
1.470902e+01	-3.950550e+00
1.479398e+01	-3.980578e+00
1.487943e+01	-4.010950e+00
1.496537e+01	-4.041038e+00
1.505181e+01	-4.071174e+00
1.513875e+01	-4.101789e+00
1.522619e+01	-4.132527e+00
1.531414e+01	-4.163632e+00
1.540259e+01	-4.194121e+00
1.549156e+01	-4.225170e+00
1.558103e+01	-4.256497e+00
1.567103e+01	-4.287802e+00
1.576155e+01	-4.319634e+00
1.585258e+01	-4.350737e+00
1.594415e+01	-4.382610e+00
1.603624e+01	-4.414279e+00
1.612886e+01	-4.446533e+00
1.622202e+01	-4.478546e+00
1.631572e+01	-4.510590e+00
1.640996e+01	-4.543027e+00
1.650474e+01	-4.575708e+00
1.660008e+01	-4.608334e+00
1.669596e+01	-4.640904e+00
1.679239e+01	-4.674089e+00
1.688938e+01	-4.707001e+00
1.698694e+01	-4.740372e+00
1.708505e+01	-4.773637e+00
1.718373e+01	-4.806928e+00
1.728299e+01	-4.840552e+00
1.738281e+01	-4.874163e+00
1.748322e+01	-4.907902e+00
1.758420e+01	-4.941731e+00
1.768576e+01	-4.976225e+00
1.778792e+01	-5.010171e+00
1.789066e+01	-5.044347e+00
1.799399e+01	-5.078840e+00
1.809793e+01	-5.113567e+00
1.820246e+01	-5.147993e+00
1.830760e+01	-5.182815e+00
1.841334e+01	-5.217911e+00
1.851969e+01	-5.252879e+00
1.862666e+01	-5.288012e+00
1.873425e+01	-5.323189e+00
1.884246e+01	-5.358677e+00
1.895129e+01	-5.394196e+00
1.906075e+01	-5.429993e+00
1.917085e+01	-5.465608e+00
1.928158e+01	-5.501665e+00
1.939295e+01	-5.537229e+00
1.950496e+01	-5.573314e+00
1.961762e+01	-5.609691e+00
1.973093e+01	-5.646141e+00
1.984490e+01	-5.682528e+00
1.995952e+01	-5.719221e+00
2.007480e+01	-5.755642e+00
2.019076e+01	-5.792569e+00
2.030738e+01	-5.829641e+00
2.042467e+01	-5.866490e+00
2.054264e+01	-5.903743e+00
2.066130e+01	-5.940843e+00
2.078064e+01	-5.978252e+00
2.090066e+01	-6.015563e+00
2.102139e+01	-6.053130e+00
2.114280e+01	-6.090768e+00
2.126492e+01	-6.128728e+00
2.138775e+01	-6.166569e+00
2.151128e+01	-6.204271e+00
2.163553e+01	-6.242397e+00
2.176050e+01	-6.280794e+00
2.188619e+01	-6.318987e+00
2.201260e+01	-6.357655e+00
2.213974e+01	-6.396205e+00
2.226762e+01	-6.434717e+00
2.239624e+01	-6.473366e+00
2.252560e+01	-6.512258e+00
2.265571e+01	-6.550805e+00
2.278656e+01	-6.589964e+00
2.291818e+01	-6.629249e+00
2.305055e+01	-6.668217e+00
2.318369e+01	-6.707747e+00
2.331760e+01	-6.747008e+00
2.345228e+01	-6.786645e+00
2.358774e+01	-6.826177e+00
2.372398e+01	-6.865838e+00
2.386101e+01	-6.905325e+00
2.399883e+01	-6.945422e+00
2.413745e+01	-6.985403e+00
2.427686e+01	-7.025486e+00
2.441709e+01	-7.065373e+00
2.455812e+01	-7.106087e+00
2.469997e+01	-7.146614e+00
2.484263e+01	-7.186727e+00
2.498612e+01	-7.227028e+00
2.513044e+01	-7.267618e+00
2.527559e+01	-7.308580e+00
2.542158e+01	-7.349266e+00
2.556842e+01	-7.389996e+00
2.571610e+01	-7.430817e+00
2.586463e+01	-7.472062e+00
2.601403e+01	-7.513053e+00
2.616428e+01	-7.554115e+00
2.631541e+01	-7.595235e+00
2.646740e+01	-7.637017e+00
2.662028e+01	-7.678374e+00
2.677404e+01	-7.719962e+00
2.692868e+01	-7.761625e+00
2.708422e+01	-7.803559e+00
2.724066e+01	-7.845207e+00
2.739800e+01	-7.886684e+00
2.755625e+01	-7.928658e+00
2.771541e+01	-7.970632e+00
2.787550e+01	-8.013266e+00
2.803650e+01	-8.054948e+00
2.819844e+01	-8.097094e+00
2.836131e+01	-8.139613e+00
2.852513e+01	-8.182437e+00
2.868989e+01	-8.224500e+00
2.885560e+01	-8.267063e+00
2.902227e+01	-8.309752e+00
2.918990e+01	-8.352050e+00
2.935850e+01	-8.394639e+00
2.952807e+01	-8.437702e+00
2.969863e+01	-8.481139e+00
2.987016e+01	-8.523431e+00
3.004269e+01	-8.566970e+00
3.021622e+01	-8.609413e+00
3.039075e+01	-8.652868e+00
3.056628e+01	-8.696141e+00
3.074283e+01	-8.739493e+00
3.092040e+01	-8.782457e+00
3.109900e+01	-8.826244e+00
3.127862e+01	-8.870082e+00
3.145929e+01	-8.913044e+00
3.164099e+01	-8.957057e+00
3.182375e+01	-9.000955e+00
3.200756e+01	-9.044364e+00
3.219244e+01	-9.088391e+00
3.237838e+01	-9.132382e+00
3.256540e+01	-9.176309e+00
3.275349e+01	-9.219722e+00
3.294268e+01	-9.264274e+00
3.313295e+01	-9.307986e+00
3.332433e+01	-9.352456e+00
3.351681e+01	-9.396741e+00
3.371040e+01	-9.440855e+00
3.390511e+01	-9.485302e+00
3.410094e+01	-9.530063e+00
3.429791e+01	-9.574325e+00
3.449601e+01	-9.619029e+00
3.469526e+01	-9.664186e+00
3.489566e+01	-9.707757e+00
3.509721e+01	-9.752728e+00
3.529993e+01	-9.797215e+00
3.550382e+01	-9.842352e+00
3.570889e+01	-9.887011e+00
3.591515e+01	-9.931945e+00
3.612259e+01	-9.976780e+00
3.633123e+01	-1.002256e+01
3.654108e+01	-1.006759e+01
3.675214e+01	-1.011235e+01
3.696442e+01	-1.015785e+01
3.717792e+01	-1.020271e+01
3.739266e+01	-1.024828e+01
3.760864e+01	-1.029297e+01
3.782587e+01	-1.033877e+01
3.804435e+01	-1.038388e+01
3.826409e+01	-1.042985e+01
3.848510e+01	-1.047495e+01
3.870739e+01	-1.052069e+01
3.893096e+01	-1.056623e+01
3.915583e+01	-1.061216e+01
3.938199e+01	-1.065758e+01
3.960946e+01	-1.070319e+01
3.983824e+01	-1.074928e+01
4.006834e+01	-1.079477e+01
4.029978e+01	-1.084107e+01
4.053255e+01	-1.088631e+01
4.076666e+01	-1.093260e+01
4.100213e+01	-1.097890e+01
4.123896e+01	-1.102570e+01
4.147715e+01	-1.107045e+01
4.171672e+01	-1.111730e+01
4.195767e+01	-1.116313e+01
4.220002e+01	-1.120982e+01
4.244377e+01	-1.125617e+01
4.268892e+01	-1.130180e+01
4.293549e+01	-1.134840e+01
4.318348e+01	-1.139481e+01
4.343291e+01	-1.144138e+01
4.368377e+01	-1.148773e+01
4.393609e+01	-1.153478e+01
4.418986e+01	-1.157989e+01
4.444510e+01	-1.162720e+01
4.470182e+01	-1.167405e+01
4.496001e+01	-1.172119e+01
4.521970e+01	-1.176782e+01
4.548089e+01	-1.181368e+01
4.574358e+01	-1.186108e+01
4.600779e+01	-1.190761e+01
4.627353e+01	-1.195384e+01
4.654081e+01	-1.200224e+01
4.680963e+01	-1.204900e+01
4.708000e+01	-1.209492e+01
4.735193e+01	-1.214186e+01
4.762543e+01	-1.218941e+01
4.790051e+01	-1.223680e+01
4.817719e+01	-1.228282e+01
4.845545e+01	-1.233083e+01
4.873533e+01	-1.237698e+01
4.901682e+01	-1.242432e+01
4.929994e+01	-1.247228e+01
4.958470e+01	-1.251818e+01
4.987110e+01	-1.256621e+01
5.015915e+01	-1.261337e+01
5.044887e+01	-1.265979e+01
5.074026e+01	-1.270824e+01
5.103333e+01	-1.275533e+01
5.132810e+01	-1.280299e+01
5.162457e+01	-1.285022e+01
5.192275e+01	-1.289762e+01
5.222265e+01	-1.294578e+01
5.252429e+01	-1.299221e+01
5.282767e+01	-1.303987e+01
5.313280e+01	-1.308747e+01
5.343969e+01	-1.313557e+01
5.374836e+01	-1.318388e+01
5.405880e+01	-1.323006e+01
5.437105e+01	-1.327877e+01
5.468509e+01	-1.332631e+01
5.500095e+01	-1.337403e+01
5.531863e+01	-1.342115e+01
5.563815e+01	-1.346941e+01
5.595951e+01	-1.351705e+01
5.628273e+01	-1.356495e+01
5.660782e+01	-1.361284e+01
5.693479e+01	-1.366054e+01
5.726364e+01	-1.370765e+01
5.759439e+01	-1.375637e+01
5.792705e+01	-1.380398e+01
5.826164e+01	-1.385243e+01
5.859815e+01	-1.389986e+01
5.893662e+01	-1.394749e+01
5.927703e+01	-1.399615e+01
5.961941e+01	-1.404328e+01
5.996377e+01	-1.409233e+01
6.031012e+01	-1.414053e+01
6.065847e+01	-1.418860e+01
6.100883e+01	-1.423565e+01
6.136121e+01	-1.428509e+01
6.171563e+01	-1.433250e+01
6.207210e+01	-1.438041e+01
6.243063e+01	-1.442902e+01
6.279122e+01	-1.447712e+01
6.315390e+01	-1.452543e+01
6.351868e+01	-1.457385e+01
6.388556e+01	-1.462279e+01
6.425456e+01	-1.466996e+01
6.462569e+01	-1.471900e+01
6.499897e+01	-1.476773e+01
6.537440e+01	-1.481600e+01
6.575200e+01	-1.486403e+01
6.613178e+01	-1.491259e+01
6.651375e+01	-1.496083e+01
6.689793e+01	-1.500850e+01
6.728433e+01	-1.505778e+01
6.767297e+01	-1.510707e+01
6.806384e+01	-1.515436e+01
6.845698e+01	-1.520321e+01
6.885238e+01	-1.525152e+01
6.925007e+01	-1.530081e+01
6.965005e+01	-1.534865e+01
7.005235e+01	-1.539810e+01
7.045697e+01	-1.544599e+01
7.086393e+01	-1.549525e+01
7.127323e+01	-1.554436e+01
7.168490e+01	-1.559220e+01
7.209895e+01	-1.564068e+01
7.251539e+01	-1.568929e+01
7.293424e+01	-1.573702e+01
7.335551e+01	-1.578585e+01
7.377920e+01	-1.583543e+01
7.420535e+01	-1.588292e+01
7.463396e+01	-1.593263e+01
7.506504e+01	-1.598166e+01
7.549861e+01	-1.603061e+01
7.593469e+01	-1.607892e+01
7.637328e+01	-1.612783e+01
7.681441e+01	-1.617632e+01
7.725809e+01	-1.622587e+01
7.770433e+01	-1.627384e+01
7.815315e+01	-1.632299e+01
7.860456e+01	-1.637149e+01
7.905857e+01	-1.642130e+01
7.951521e+01	-1.646987e+01
7.997449e+01	-1.651798e+01
8.043642e+01	-1.656816e+01
8.090102e+01	-1.661665e+01
8.136830e+01	-1.666609e+01
8.183828e+01	-1.671426e+01
8.231097e+01	-1.676302e+01
8.278640e+01	-1.681229e+01
8.326457e+01	-1.686161e+01
8.374550e+01	-1.691028e+01
8.422921e+01	-1.695932e+01
8.471572e+01	-1.700725e+01
8.520503e+01	-1.705892e+01
8.569717e+01	-1.710721e+01
8.619215e+01	-1.715568e+01
8.669000e+01	-1.720508e+01
8.719071e+01	-1.725395e+01
8.769432e+01	-1.730294e+01
8.820084e+01	-1.735179e+01
8.871029e+01	-1.740285e+01
8.922267e+01	-1.745061e+01
8.973802e+01	-1.749840e+01
9.025634e+01	-1.754916e+01
9.077766e+01	-1.759736e+01
9.130199e+01	-1.764658e+01
9.182935e+01	-1.769723e+01
9.235975e+01	-1.774498e+01
9.289321e+01	-1.779444e+01
9.342976e+01	-1.784381e+01
9.396941e+01	-1.789248e+01
9.451217e+01	-1.794138e+01
9.505807e+01	-1.799110e+01
9.560712e+01	-1.804140e+01
9.615934e+01	-1.809094e+01
9.671476e+01	-1.813881e+01
9.727338e+01	-1.818948e+01
9.783522e+01	-1.823860e+01
9.840032e+01	-1.828708e+01
9.896867e+01	-1.833580e+01
9.954031e+01	-1.838505e+01
1.001153e+02	-1.843400e+01
1.006935e+02	-1.848363e+01
1.012751e+02	-1.853350e+01
1.018601e+02	-1.858251e+01
1.024484e+02	-1.863180e+01
1.030402e+02	-1.868108e+01
1.036353e+02	-1.873082e+01
1.042339e+02	-1.878007e+01
1.048360e+02	-1.883066e+01
1.054415e+02	-1.888000e+01
1.060505e+02	-1.892800e+01
1.066631e+02	-1.897785e+01
1.072791e+02	-1.902548e+01
1.078988e+02	-1.907631e+01
1.085220e+02	-1.912680e+01
1.091488e+02	-1.917529e+01
1.097793e+02	-1.922496e+01
1.104133e+02	-1.927496e+01
1.110511e+02	-1.932429e+01
1.116925e+02	-1.937215e+01
1.123376e+02	-1.942251e+01
1.129865e+02	-1.947228e+01
1.136391e+02	-1.952122e+01
1.142955e+02	-1.957164e+01
1.149556e+02	-1.962037e+01
1.156196e+02	-1.966969e+01
1.162874e+02	-1.971975e+01
1.169591e+02	-1.976966e+01
1.176347e+02	-1.981746e+01
1.183141e+02	-1.986792e+01
1.189975e+02	-1.991820e+01
1.196848e+02	-1.996713e+01
1.203761e+02	-2.001702e+01
1.210714e+02	-2.006680e+01
1.217707e+02	-2.011518e+01
1.224740e+02	-2.016499e+01
1.231814e+02	-2.021603e+01
1.238929e+02	-2.026441e+01
1.246085e+02	-2.031285e+01
1.253283e+02	-2.036421e+01
1.260522e+02	-2.041461e+01
1.267802e+02	-2.046281e+01
1.275125e+02	-2.051200e+01
1.282490e+02	-2.056198e+01
1.289898e+02	-2.061092e+01
1.297348e+02	-2.066067e+01
1.304842e+02	-2.071075e+01
1.312378e+02	-2.076096e+01
1.319959e+02	-2.081041e+01
1.327583e+02	-2.086042e+01
1.335251e+02	-2.090910e+01
1.342963e+02	-2.095928e+01
1.350720e+02	-2.100934e+01
1.358522e+02	-2.105858e+01
1.366368e+02	-2.110908e+01
1.374260e+02	-2.116025e+01
1.382198e+02	-2.120758e+01
1.390182e+02	-2.125612e+01
1.398211e+02	-2.130702e+01
1.406287e+02	-2.135761e+01
1.414410e+02	-2.140531e+01
1.422579e+02	-2.145562e+01
1.430796e+02	-2.150489e+01
1.439060e+02	-2.155441e+01
1.447372e+02	-2.160557e+01
1.455732e+02	-2.165481e+01
1.464141e+02	-2.170437e+01
1.472597e+02	-2.175330e+01
1.481103e+02	-2.180325e+01
1.489658e+02	-2.185344e+01
1.498262e+02	-2.190361e+01
1.506916e+02	-2.195170e+01
1.515620e+02	-2.200209e+01
1.524374e+02	-2.205344e+01
1.533179e+02	-2.210179e+01
1.542034e+02	-2.215145e+01
1.550941e+02	-2.220098e+01
1.559899e+02	-2.225226e+01
1.568909e+02	-2.229818e+01
1.577971e+02	-2.235034e+01
1.587085e+02	-2.240149e+01
1.596252e+02	-2.245111e+01
1.605472e+02	-2.249992e+01
1.614745e+02	-2.254830e+01
1.624072e+02	-2.259954e+01
1.633453e+02	-2.264701e+01
1.642887e+02	-2.269823e+01
1.652377e+02	-2.274930e+01
1.661921e+02	-2.279888e+01
1.671520e+02	-2.284841e+01
1.681175e+02	-2.289869e+01
1.690885e+02	-2.294888e+01
1.700651e+02	-2.299784e+01
1.710474e+02	-2.304624e+01
1.720354e+02	-2.309628e+01
1.730291e+02	-2.314625e+01
1.740285e+02	-2.319646e+01
1.750337e+02	-2.324668e+01
1.760446e+02	-2.329674e+01
1.770615e+02	-2.334563e+01
1.780842e+02	-2.339351e+01
1.791128e+02	-2.344619e+01
1.801473e+02	-2.349654e+01
1.811878e+02	-2.354563e+01
1.822344e+02	-2.359568e+01
1.832870e+02	-2.364596e+01
1.843456e+02	-2.369910e+01
1.854104e+02	-2.374373e+01
1.864813e+02	-2.379664e+01
1.875584e+02	-2.384488e+01
1.886418e+02	-2.389601e+01
1.897313e+02	-2.394449e+01
1.908272e+02	-2.399407e+01
1.919294e+02	-2.404278e+01
1.930380e+02	-2.409307e+01
1.941530e+02	-2.414308e+01
1.952744e+02	-2.419476e+01
1.964023e+02	-2.424336e+01
1.975367e+02	-2.429433e+01
1.986777e+02	-2.434383e+01
1.998252e+02	-2.439556e+01
2.009794e+02	-2.444064e+01
2.021403e+02	-2.449329e+01
2.033078e+02	-2.454462e+01
2.044821e+02	-2.459289e+01
2.056632e+02	-2.464276e+01
2.068511e+02	-2.469280e+01
2.080459e+02	-2.474222e+01
2.092475e+02	-2.479158e+01
2.104561e+02	-2.484090e+01
2.116717e+02	-2.489117e+01
2.128943e+02	-2.494211e+01
2.141240e+02	-2.499005e+01
2.153608e+02	-2.503935e+01
2.166047e+02	-2.509265e+01
2.178558e+02	-2.514095e+01
2.191141e+02	-2.519069e+01
2.203797e+02	-2.524152e+01
2.216526e+02	-2.529102e+01
2.229329e+02	-2.534242e+01
2.242205e+02	-2.539078e+01
2.255156e+02	-2.544290e+01
2.268182e+02	-2.549215e+01
2.281283e+02	-2.553978e+01
2.294459e+02	-2.559046e+01
2.307712e+02	-2.563979e+01
2.321041e+02	-2.569187e+01
2.334447e+02	-2.574058e+01
2.347931e+02	-2.578963e+01
2.361493e+02	-2.584122e+01
2.375133e+02	-2.589192e+01
2.388851e+02	-2.593745e+01
2.402649e+02	-2.599320e+01
2.416527e+02	-2.603804e+01
2.430484e+02	-2.608943e+01
2.444523e+02	-2.613999e+01
2.458642e+02	-2.619001e+01
2.472843e+02	-2.624036e+01
2.487126e+02	-2.628749e+01
2.501492e+02	-2.634160e+01
2.515940e+02	-2.638802e+01
2.530472e+02	-2.644276e+01
2.545088e+02	-2.648955e+01
2.559789e+02	-2.654057e+01
2.574574e+02	-2.658999e+01
2.589444e+02	-2.664060e+01
2.604401e+02	-2.668906e+01
2.619444e+02	-2.674274e+01
2.634574e+02	-2.678716e+01
2.649791e+02	-2.683838e+01
2.665096e+02	-2.689005e+01
2.680489e+02	-2.694191e+01
2.695972e+02	-2.698882e+01
2.711544e+02	-2.704176e+01
2.727205e+02	-2.708709e+01
2.742958e+02	-2.713668e+01
2.758801e+02	-2.718794e+01
2.774736e+02	-2.724107e+01
2.790762e+02	-2.729346e+01
2.806882e+02	-2.733871e+01
2.823094e+02	-2.739137e+01
2.839400e+02	-2.743772e+01
2.855800e+02	-2.749023e+01
2.872295e+02	-2.754195e+01
2.888886e+02	-2.759170e+01
2.905572e+02	-2.763973e+01
2.922354e+02	-2.769029e+01
2.939234e+02	-2.773876e+01
2.956211e+02	-2.779240e+01
2.973286e+02	-2.783688e+01
2.990459e+02	-2.789288e+01
3.007732e+02	-2.793741e+01
3.025104e+02	-2.798951e+01
3.042577e+02	-2.803974e+01
3.060151e+02	-2.809088e+01
3.077826e+02	-2.813711e+01
3.095604e+02	-2.819151e+01
3.113484e+02	-2.824139e+01
3.131467e+02	-2.828865e+01
3.149554e+02	-2.834254e+01
3.167746e+02	-2.839175e+01
3.186043e+02	-2.843864e+01
3.204445e+02	-2.849324e+01
3.222954e+02	-2.853506e+01
3.241570e+02	-2.859451e+01
3.260293e+02	-2.864300e+01
3.279124e+02	-2.868986e+01
3.298064e+02	-2.874274e+01
3.317114e+02	-2.879021e+01
3.336273e+02	-2.884173e+01
3.355544e+02	-2.889427e+01
3.374925e+02	-2.893962e+01
3.394418e+02	-2.898805e+01
3.414024e+02	-2.904261e+01
3.433744e+02	-2.908909e+01
3.453577e+02	-2.914595e+01
3.473525e+02	-2.919328e+01
3.493588e+02	-2.924170e+01
3.513766e+02	-2.929210e+01
3.534062e+02	-2.934085e+01
3.554474e+02	-2.938907e+01
3.575005e+02	-2.944415e+01
3.595654e+02	-2.948936e+01
3.616422e+02	-2.953994e+01
3.637311e+02	-2.959165e+01
3.658320e+02	-2.964334e+01
3.679450e+02	-2.969079e+01
3.700702e+02	-2.974386e+01
3.722077e+02	-2.979327e+01
3.743576e+02	-2.984073e+01
3.765199e+02	-2.989304e+01
3.786946e+02	-2.994370e+01
3.808820e+02	-2.999331e+01
3.830819e+02	-3.004218e+01
3.852946e+02	-3.009497e+01
3.875200e+02	-3.014223e+01
3.897583e+02	-3.019402e+01
3.920096e+02	-3.024371e+01
3.942738e+02	-3.029425e+01
3.965511e+02	-3.033947e+01
3.988416e+02	-3.039193e+01
4.011452e+02	-3.044212e+01
4.034622e+02	-3.049618e+01
4.057926e+02	-3.054034e+01
4.081365e+02	-3.059192e+01
4.104938e+02	-3.064177e+01
4.128648e+02	-3.069524e+01
4.152495e+02	-3.073615e+01
4.176480e+02	-3.079325e+01
4.200603e+02	-3.084398e+01
4.224866e+02	-3.089599e+01
4.249268e+02	-3.094496e+01
4.273812e+02	-3.099196e+01
4.298497e+02	-3.104748e+01
4.323325e+02	-3.109574e+01
4.348297e+02	-3.114627e+01
4.373412e+02	-3.119123e+01
4.398673e+02	-3.124076e+01
4.424079e+02	-3.129454e+01
4.449633e+02	-3.135026e+01
4.475334e+02	-3.139203e+01
4.501183e+02	-3.144641e+01
4.527182e+02	-3.149791e+01
4.553330e+02	-3.154972e+01
4.579630e+02	-3.160050e+01
4.606082e+02	-3.164954e+01
4.632687e+02	-3.169994e+01
4.659445e+02	-3.174323e+01
4.686358e+02	-3.179045e+01
4.713426e+02	-3.184840e+01
4.740650e+02	-3.189640e+01
4.768032e+02	-3.195512e+01
4.795572e+02	-3.199165e+01
4.823271e+02	-3.204846e+01
4.851130e+02	-3.209611e+01
4.879150e+02	-3.214247e+01
4.907332e+02	-3.219956e+01
4.935676e+02	-3.225183e+01
4.964185e+02	-3.229679e+01
4.992858e+02	-3.235641e+01
5.021696e+02	-3.239999e+01
5.050701e+02	-3.245352e+01
5.079874e+02	-3.250419e+01
5.109215e+02	-3.255351e+01
5.138726e+02	-3.260200e+01
5.168407e+02	-3.265859e+01
5.198259e+02	-3.269918e+01
5.228284e+02	-3.275071e+01
5.258482e+02	-3.280338e+01
5.288855e+02	-3.285424e+01
5.319403e+02	-3.289641e+01
5.350128e+02	-3.295099e+01
5.381030e+02	-3.300235e+01
5.412111e+02	-3.305065e+01
5.443371e+02	-3.310429e+01
5.474812e+02	-3.314981e+01
5.506434e+02	-3.320750e+01
5.538239e+02	-3.325554e+01
5.570228e+02	-3.330082e+01
5.602401e+02	-3.335632e+01
5.634760e+02	-3.340176e+01
5.667306e+02	-3.344869e+01
5.700040e+02	-3.350823e+01
5.732964e+02	-3.355820e+01
5.766077e+02	-3.360763e+01
5.799382e+02	-3.365276e+01
5.832879e+02	-3.370038e+01
5.866569e+02	-3.376079e+01
5.900454e+02	-3.381242e+01
5.934535e+02	-3.385763e+01
5.968813e+02	-3.390381e+01
6.003288e+02	-3.395692e+01
6.037963e+02	-3.401105e+01
6.072838e+02	-3.405825e+01
6.107914e+02	-3.411295e+01
6.143194e+02	-3.415973e+01
6.178676e+02	-3.420838e+01
6.214364e+02	-3.426343e+01
6.250258e+02	-3.430906e+01
6.286359e+02	-3.435490e+01
6.322669e+02	-3.439831e+01
6.359189e+02	-3.445831e+01
6.395919e+02	-3.452301e+01
6.432862e+02	-3.455107e+01
6.470017e+02	-3.460453e+01
6.507388e+02	-3.467305e+01
6.544974e+02	-3.472073e+01
6.582778e+02	-3.476493e+01
6.620800e+02	-3.481615e+01
6.659041e+02	-3.486245e+01
6.697504e+02	-3.491075e+01
6.736188e+02	-3.496831e+01
6.775096e+02	-3.502462e+01
6.814229e+02	-3.505928e+01
6.853587e+02	-3.511663e+01
6.893173e+02	-3.517211e+01
6.932988e+02	-3.521616e+01
6.973033e+02	-3.526218e+01
7.013309e+02	-3.531489e+01
