Frequency(Hz)	Magnitude(dB)
1.000000e+01	-2.015256e+00
1.005776e+01	-2.033663e+00
1.011585e+01	-2.052252e+00
1.017428e+01	-2.071456e+00
1.023305e+01	-2.090579e+00
1.029215e+01	-2.109627e+00
1.035160e+01	-2.129055e+00
1.041139e+01	-2.148280e+00
1.047153e+01	-2.167767e+00
1.053201e+01	-2.187634e+00
1.059284e+01	-2.207461e+00
1.065403e+01	-2.227548e+00
1.071556e+01	-2.247891e+00
1.077746e+01	-2.268035e+00
1.083971e+01	-2.288527e+00
1.090232e+01	-2.308980e+00
1.096529e+01	-2.329621e+00
1.102862e+01	-2.350416e+00
1.109232e+01	-2.371376e+00
1.115639e+01	-2.392647e+00
1.122083e+01	-2.413779e+00
1.128564e+01	-2.435317e+00
1.135083e+01	-2.456910e+00
1.141639e+01	-2.478326e+00
1.148233e+01	-2.500255e+00
1.154865e+01	-2.522225e+00
1.161536e+01	-2.544487e+00
1.168245e+01	-2.566575e+00
1.174992e+01	-2.589287e+00
1.181779e+01	-2.611721e+00
1.188605e+01	-2.634277e+00
1.195470e+01	-2.657218e+00
1.202375e+01	-2.680104e+00
1.209320e+01	-2.703209e+00
1.216305e+01	-2.726530e+00
1.223330e+01	-2.749860e+00
1.230396e+01	-2.773412e+00
1.237503e+01	-2.797104e+00
1.244651e+01	-2.820689e+00
1.251840e+01	-2.844964e+00
1.259070e+01	-2.868732e+00
1.266343e+01	-2.893099e+00
1.273657e+01	-2.917692e+00
1.281014e+01	-2.942185e+00
1.288413e+01	-2.966793e+00
1.295855e+01	-2.991656e+00
1.303339e+01	-3.016680e+00
1.310867e+01	-3.041650e+00
1.318439e+01	-3.067282e+00
1.326054e+01	-3.092584e+00
1.333713e+01	-3.118141e+00
1.341417e+01	-3.143616e+00
1.349165e+01	-3.169433e+00
1.356958e+01	-3.195286e+00
1.364795e+01	-3.221640e+00
1.372678e+01	-3.247842e+00
1.380607e+01	-3.274276e+00
1.388581e+01	-3.301013e+00
1.396602e+01	-3.327302e+00
1.404668e+01	-3.354250e+00
1.412782e+01	-3.381249e+00
1.420942e+01	-3.408671e+00
1.429149e+01	-3.435693e+00
1.437404e+01	-3.463355e+00
1.445706e+01	-3.490879e+00
1.454057e+01	-3.518579e+00
1.462455e+01	-3.546221e+00
1.470902e+01	-3.574303e+00
1.479398e+01	-3.602445e+00
1.487943e+01	-3.630699e+00
1.496537e+01	-3.659062e+00
1.505181e+01	-3.687576e+00
1.513875e+01	-3.716377e+00
1.522619e+01	-3.745043e+00
1.531414e+01	-3.774428e+00
1.540259e+01	-3.803338e+00
1.549156e+01	-3.832611e+00
1.558103e+01	-3.862084e+00
1.567103e+01	-3.891676e+00
1.576155e+01	-3.921066e+00
1.585258e+01	-3.950885e+00
1.594415e+01	-3.981080e+00
1.603624e+01	-4.011137e+00
1.612886e+01	-4.041202e+00
1.622202e+01	-4.071729e+00
1.631572e+01	-4.102018e+00
1.640996e+01	-4.132514e+00
1.650474e+01	-4.163668e+00
1.660008e+01	-4.194498e+00
1.669596e+01	-4.225279e+00
1.679239e+01	-4.256535e+00
1.688938e+01	-4.288155e+00
1.698694e+01	-4.319635e+00
1.708505e+01	-4.351068e+00
1.718373e+01	-4.382800e+00
1.728299e+01	-4.414742e+00
1.738281e+01	-4.446855e+00
1.748322e+01	-4.478865e+00
1.758420e+01	-4.511136e+00
1.768576e+01	-4.543600e+00
1.778792e+01	-4.576167e+00
1.789066e+01	-4.608771e+00
1.799399e+01	-4.641425e+00
1.809793e+01	-4.674332e+00
1.820246e+01	-4.707171e+00
1.830760e+01	-4.740382e+00
1.841334e+01	-4.773756e+00
1.851969e+01	-4.807283e+00
1.862666e+01	-4.840752e+00
1.873425e+01	-4.874587e+00
1.884246e+01	-4.908040e+00
1.895129e+01	-4.942135e+00
1.906075e+01	-4.976303e+00
1.917085e+01	-5.010331e+00
1.928158e+01	-5.044625e+00
1.939295e+01	-5.079148e+00
1.950496e+01	-5.113802e+00
1.961762e+01	-5.148355e+00
1.973093e+01	-5.182997e+00
1.984490e+01	-5.218032e+00
1.995952e+01	-5.253436e+00
2.007480e+01	-5.288393e+00
2.019076e+01	-5.323558e+00
2.030738e+01	-5.359051e+00
2.042467e+01	-5.394474e+00
2.054264e+01	-5.430207e+00
2.066130e+01	-5.465887e+00
2.078064e+01	-5.501534e+00
2.090066e+01	-5.538029e+00
2.102139e+01	-5.573719e+00
2.114280e+01	-5.610024e+00
2.126492e+01	-5.646313e+00
2.138775e+01	-5.683061e+00
2.151128e+01	-5.719423e+00
2.163553e+01	-5.756110e+00
2.176050e+01	-5.793093e+00
2.188619e+01	-5.829832e+00
2.201260e+01	-5.866811e+00
2.213974e+01	-5.903812e+00
2.226762e+01	-5.940935e+00
2.239624e+01	-5.978496e+00
2.252560e+01	-6.015912e+00
2.265571e+01	-6.053670e+00
2.278656e+01	-6.091240e+00
2.291818e+01	-6.128765e+00
2.305055e+01	-6.166885e+00
2.318369e+01	-6.204633e+00
2.331760e+01	-6.242882e+00
2.345228e+01	-6.281195e+00
2.358774e+01	-6.319444e+00
2.372398e+01	-6.357630e+00
2.386101e+01	-6.396341e+00
2.399883e+01	-6.435030e+00
2.413745e+01	-6.473341e+00
2.427686e+01	-6.512710e+00
2.441709e+01	-6.550988e+00
2.455812e+01	-6.590495e+00
2.469997e+01	-6.629312e+00
2.484263e+01	-6.668447e+00
2.498612e+01	-6.708015e+00
2.513044e+01	-6.747591e+00
2.527559e+01	-6.786627e+00
2.542158e+01	-6.826713e+00
2.556842e+01	-6.866034e+00
2.571610e+01	-6.905802e+00
2.586463e+01	-6.945641e+00
2.601403e+01	-6.985697e+00
2.616428e+01	-7.025764e+00
2.631541e+01	-7.065759e+00
2.646740e+01	-7.106048e+00
2.662028e+01	-7.146070e+00
2.677404e+01	-7.187195e+00
2.692868e+01	-7.227247e+00
2.708422e+01	-7.267933e+00
2.724066e+01	-7.308732e+00
2.739800e+01	-7.349562e+00
2.755625e+01	-7.390214e+00
2.771541e+01	-7.431312e+00
2.787550e+01	-7.472679e+00
2.803650e+01	-7.513708e+00
2.819844e+01	-7.554462e+00
2.836131e+01	-7.596052e+00
2.852513e+01	-7.637396e+00
2.868989e+01	-7.679078e+00
2.885560e+01	-7.720187e+00
2.902227e+01	-7.761934e+00
2.918990e+01	-7.803511e+00
2.935850e+01	-7.845046e+00
2.952807e+01	-7.887140e+00
2.969863e+01	-7.929307e+00
2.987016e+01	-7.971409e+00
3.004269e+01	-8.013131e+00
3.021622e+01	-8.055318e+00
3.039075e+01	-8.097263e+00
3.056628e+01	-8.139564e+00
3.074283e+01	-8.182031e+00
3.092040e+01	-8.224542e+00
3.109900e+01	-8.267165e+00
3.127862e+01	-8.309953e+00
3.145929e+01	-8.352700e+00
3.164099e+01	-8.395413e+00
3.182375e+01	-8.438262e+00
3.200756e+01	-8.480509e+00
3.219244e+01	-8.524014e+00
3.237838e+01	-8.567015e+00
3.256540e+01	-8.610064e+00
3.275349e+01	-8.653221e+00
3.294268e+01	-8.696821e+00
3.313295e+01	-8.739841e+00
3.332433e+01	-8.783393e+00
3.351681e+01	-8.827152e+00
3.371040e+01	-8.870139e+00
3.390511e+01	-8.913447e+00
3.410094e+01	-8.957439e+00
3.429791e+01	-9.001254e+00
3.449601e+01	-9.044413e+00
3.469526e+01	-9.088625e+00
3.489566e+01	-9.132171e+00
3.509721e+01	-9.176749e+00
3.529993e+01	-9.220432e+00
3.550382e+01	-9.264527e+00
3.570889e+01	-9.308979e+00
3.591515e+01	-9.352991e+00
3.612259e+01	-9.397222e+00
3.633123e+01	-9.441631e+00
3.654108e+01	-9.486210e+00
3.675214e+01	-9.530298e+00
3.696442e+01	-9.574872e+00
3.717792e+01	-9.619194e+00
3.739266e+01	-9.663726e+00
3.760864e+01	-9.708009e+00
3.782587e+01	-9.753221e+00
3.804435e+01	-9.798386e+00
3.826409e+01	-9.842828e+00
3.848510e+01	-9.887598e+00
3.870739e+01	-9.932524e+00
3.893096e+01	-9.978174e+00
3.915583e+01	-1.002268e+01
3.938199e+01	-1.006791e+01
3.960946e+01	-1.011298e+01
3.983824e+01	-1.015777e+01
4.006834e+01	-1.020330e+01
4.029978e+01	-1.024888e+01
4.053255e+01	-1.029383e+01
4.076666e+01	-1.033949e+01
4.100213e+01	-1.038445e+01
4.123896e+01	-1.043002e+01
4.147715e+01	-1.047585e+01
4.171672e+01	-1.052097e+01
4.195767e+01	-1.056656e+01
4.220002e+01	-1.061241e+01
4.244377e+01	-1.065824e+01
4.268892e+01	-1.070376e+01
4.293549e+01	-1.074976e+01
4.318348e+01	-1.079568e+01
4.343291e+01	-1.084147e+01
4.368377e+01	-1.088702e+01
4.393609e+01	-1.093316e+01
4.418986e+01	-1.097975e+01
4.444510e+01	-1.102530e+01
4.470182e+01	-1.107122e+01
4.496001e+01	-1.111820e+01
4.521970e+01	-1.116356e+01
4.548089e+01	-1.120969e+01
4.574358e+01	-1.125621e+01
4.600779e+01	-1.130251e+01
4.627353e+01	-1.134886e+01
4.654081e+01	-1.139506e+01
4.680963e+01	-1.144163e+01
4.708000e+01	-1.148842e+01
4.735193e+01	-1.153544e+01
4.762543e+01	-1.158162e+01
4.790051e+01	-1.162763e+01
4.817719e+01	-1.167505e+01
4.845545e+01	-1.172145e+01
4.873533e+01	-1.176755e+01
4.901682e+01	-1.181395e+01
4.929994e+01	-1.186093e+01
4.958470e+01	-1.190730e+01
4.987110e+01	-1.195484e+01
5.015915e+01	-1.200162e+01
5.044887e+01	-1.204849e+01
5.074026e+01	-1.209566e+01
5.103333e+01	-1.214242e+01
5.132810e+01	-1.218966e+01
5.162457e+01	-1.223681e+01
5.192275e+01	-1.228327e+01
5.222265e+01	-1.232994e+01
5.252429e+01	-1.237747e+01
5.282767e+01	-1.242486e+01
5.313280e+01	-1.247241e+01
5.343969e+01	-1.251921e+01
5.374836e+01	-1.256570e+01
5.405880e+01	-1.261363e+01
5.437105e+01	-1.266102e+01
5.468509e+01	-1.270826e+01
5.500095e+01	-1.275581e+01
5.531863e+01	-1.280250e+01
5.563815e+01	-1.285059e+01
5.595951e+01	-1.289756e+01
5.628273e+01	-1.294481e+01
5.660782e+01	-1.299322e+01
5.693479e+01	-1.304030e+01
5.726364e+01	-1.308769e+01
5.759439e+01	-1.313532e+01
5.792705e+01	-1.318261e+01
5.826164e+01	-1.323063e+01
5.859815e+01	-1.327832e+01
5.893662e+01	-1.332654e+01
5.927703e+01	-1.337359e+01
5.961941e+01	-1.342128e+01
5.996377e+01	-1.346904e+01
6.031012e+01	-1.351729e+01
6.065847e+01	-1.356472e+01
6.100883e+01	-1.361300e+01
6.136121e+01	-1.366009e+01
6.171563e+01	-1.370846e+01
6.207210e+01	-1.375681e+01
6.243063e+01	-1.380397e+01
6.279122e+01	-1.385293e+01
6.315390e+01	-1.390048e+01
6.351868e+01	-1.394761e+01
6.388556e+01	-1.399640e+01
6.425456e+01	-1.404393e+01
6.462569e+01	-1.409264e+01
6.499897e+01	-1.414057e+01
6.537440e+01	-1.418892e+01
6.575200e+01	-1.423615e+01
6.613178e+01	-1.428481e+01
6.651375e+01	-1.433297e+01
6.689793e+01	-1.438090e+01
6.728433e+01	-1.442966e+01
6.767297e+01	-1.447759e+01
6.806384e+01	-1.452612e+01
6.845698e+01	-1.457500e+01
6.885238e+01	-1.462271e+01
6.925007e+01	-1.467085e+01
6.965005e+01	-1.471944e+01
7.005235e+01	-1.476716e+01
7.045697e+01	-1.481502e+01
7.086393e+01	-1.486511e+01
7.127323e+01	-1.491293e+01
7.168490e+01	-1.496187e+01
7.209895e+01	-1.500936e+01
7.251539e+01	-1.505821e+01
7.293424e+01	-1.510717e+01
7.335551e+01	-1.515531e+01
7.377920e+01	-1.520322e+01
7.420535e+01	-1.525286e+01
7.463396e+01	-1.530058e+01
7.506504e+01	-1.534839e+01
7.549861e+01	-1.539847e+01
7.593469e+01	-1.544625e+01
7.637328e+01	-1.549575e+01
7.681441e+01	-1.554362e+01
7.725809e+01	-1.559222e+01
7.770433e+01	-1.564114e+01
7.815315e+01	-1.568939e+01
7.860456e+01	-1.573845e+01
7.905857e+01	-1.578706e+01
7.951521e+01	-1.583615e+01
7.997449e+01	-1.588463e+01
8.043642e+01	-1.593385e+01
8.090102e+01	-1.598105e+01
8.136830e+01	-1.603036e+01
8.183828e+01	-1.607877e+01
8.231097e+01	-1.612889e+01
8.278640e+01	-1.617760e+01
8.326457e+01	-1.622581e+01
8.374550e+01	-1.627530e+01
8.422921e+01	-1.632425e+01
8.471572e+01	-1.637155e+01
8.520503e+01	-1.642167e+01
8.569717e+01	-1.647043e+01
8.619215e+01	-1.651943e+01
8.669000e+01	-1.656823e+01
8.719071e+01	-1.661575e+01
8.769432e+01	-1.666546e+01
8.820084e+01	-1.671541e+01
8.871029e+01	-1.676378e+01
8.922267e+01	-1.681321e+01
8.973802e+01	-1.686257e+01
9.025634e+01	-1.691096e+01
9.077766e+01	-1.695917e+01
9.130199e+01	-1.700845e+01
9.182935e+01	-1.705784e+01
9.235975e+01	-1.710614e+01
9.289321e+01	-1.715513e+01
9.342976e+01	-1.720501e+01
9.396941e+01	-1.725458e+01
9.451217e+01	-1.730276e+01
9.505807e+01	-1.735281e+01
9.560712e+01	-1.740177e+01
9.615934e+01	-1.745059e+01
9.671476e+01	-1.750065e+01
9.727338e+01	-1.754954e+01
9.783522e+01	-1.759842e+01
9.840032e+01	-1.764762e+01
9.896867e+01	-1.769669e+01
9.954031e+01	-1.774559e+01
1.001153e+02	-1.779541e+01
1.006935e+02	-1.784406e+01
1.012751e+02	-1.789444e+01
1.018601e+02	-1.794359e+01
1.024484e+02	-1.799118e+01
1.030402e+02	-1.804133e+01
1.036353e+02	-1.809001e+01
1.042339e+02	-1.814002e+01
1.048360e+02	-1.818920e+01
1.054415e+02	-1.823750e+01
1.060505e+02	-1.828798e+01
1.066631e+02	-1.833455e+01
1.072791e+02	-1.838725e+01
1.078988e+02	-1.843592e+01
1.085220e+02	-1.848506e+01
1.091488e+02	-1.853335e+01
1.097793e+02	-1.858281e+01
1.104133e+02	-1.863299e+01
1.110511e+02	-1.868341e+01
1.116925e+02	-1.873202e+01
1.123376e+02	-1.878108e+01
1.129865e+02	-1.883036e+01
1.136391e+02	-1.887967e+01
1.142955e+02	-1.892891e+01
1.149556e+02	-1.897859e+01
1.156196e+02	-1.902815e+01
1.162874e+02	-1.907614e+01
1.169591e+02	-1.912651e+01
1.176347e+02	-1.917498e+01
1.183141e+02	-1.922542e+01
1.189975e+02	-1.927471e+01
1.196848e+02	-1.932451e+01
1.203761e+02	-1.937271e+01
1.210714e+02	-1.942426e+01
1.217707e+02	-1.947197e+01
1.224740e+02	-1.952268e+01
1.231814e+02	-1.957172e+01
1.238929e+02	-1.962169e+01
1.246085e+02	-1.967118e+01
1.253283e+02	-1.972122e+01
1.260522e+02	-1.977051e+01
1.267802e+02	-1.981794e+01
1.275125e+02	-1.986819e+01
1.282490e+02	-1.991889e+01
1.289898e+02	-1.996881e+01
1.297348e+02	-2.001716e+01
1.304842e+02	-2.006515e+01
1.312378e+02	-2.011557e+01
1.319959e+02	-2.016624e+01
1.327583e+02	-2.021315e+01
1.335251e+02	-2.026535e+01
1.342963e+02	-2.031470e+01
1.350720e+02	-2.036401e+01
1.358522e+02	-2.041480e+01
1.366368e+02	-2.046157e+01
1.374260e+02	-2.051447e+01
1.382198e+02	-2.056296e+01
1.390182e+02	-2.061219e+01
1.398211e+02	-2.066289e+01
1.406287e+02	-2.071201e+01
1.414410e+02	-2.075982e+01
1.422579e+02	-2.081016e+01
1.430796e+02	-2.086090e+01
1.439060e+02	-2.090998e+01
1.447372e+02	-2.095973e+01
1.455732e+02	-2.100836e+01
1.464141e+02	-2.105750e+01
1.472597e+02	-2.110784e+01
1.481103e+02	-2.115848e+01
1.489658e+02	-2.120765e+01
1.498262e+02	-2.125705e+01
1.506916e+02	-2.130709e+01
1.515620e+02	-2.135919e+01
1.524374e+02	-2.140719e+01
1.533179e+02	-2.145717e+01
1.542034e+02	-2.150492e+01
1.550941e+02	-2.155505e+01
1.559899e+02	-2.160558e+01
1.568909e+02	-2.165314e+01
1.577971e+02	-2.170350e+01
1.587085e+02	-2.175313e+01
1.596252e+02	-2.180478e+01
1.605472e+02	-2.185355e+01
1.614745e+02	-2.190302e+01
1.624072e+02	-2.195519e+01
1.633453e+02	-2.200274e+01
1.642887e+02	-2.205040e+01
1.652377e+02	-2.210297e+01
1.661921e+02	-2.215278e+01
1.671520e+02	-2.220322e+01
1.681175e+02	-2.225013e+01
1.690885e+02	-2.229868e+01
1.700651e+02	-2.235197e+01
1.710474e+02	-2.240153e+01
1.720354e+02	-2.244974e+01
1.730291e+02	-2.249918e+01
1.740285e+02	-2.254888e+01
1.750337e+02	-2.259837e+01
1.760446e+02	-2.264911e+01
1.770615e+02	-2.270067e+01
1.780842e+02	-2.274857e+01
1.791128e+02	-2.279944e+01
1.801473e+02	-2.284974e+01
1.811878e+02	-2.289874e+01
1.822344e+02	-2.294937e+01
1.832870e+02	-2.299962e+01
1.843456e+02	-2.304647e+01
1.854104e+02	-2.309687e+01
1.864813e+02	-2.314665e+01
1.875584e+02	-2.319768e+01
1.886418e+02	-2.324648e+01
1.897313e+02	-2.329960e+01
1.908272e+02	-2.334478e+01
1.919294e+02	-2.339919e+01
1.930380e+02	-2.344816e+01
1.941530e+02	-2.349732e+01
1.952744e+02	-2.354865e+01
1.964023e+02	-2.359434e+01
1.975367e+02	-2.364711e+01
1.986777e+02	-2.369798e+01
1.998252e+02	-2.374471e+01
2.009794e+02	-2.379961e+01
2.021403e+02	-2.384493e+01
2.033078e+02	-2.389232e+01
2.044821e+02	-2.394070e+01
2.056632e+02	-2.399546e+01
2.068511e+02	-2.404348e+01
2.080459e+02	-2.409462e+01
2.092475e+02	-2.414352e+01
2.104561e+02	-2.419657e+01
2.116717e+02	-2.424465e+01
2.128943e+02	-2.429478e+01
2.141240e+02	-2.434521e+01
2.153608e+02	-2.439571e+01
2.166047e+02	-2.444552e+01
2.178558e+02	-2.449510e+01
2.191141e+02	-2.454200e+01
2.203797e+02	-2.459106e+01
2.216526e+02	-2.464449e+01
2.229329e+02	-2.469190e+01
2.242205e+02	-2.474116e+01
2.255156e+02	-2.479128e+01
2.268182e+02	-2.484404e+01
2.281283e+02	-2.489047e+01
2.294459e+02	-2.494216e+01
2.307712e+02	-2.499322e+01
2.321041e+02	-2.504289e+01
2.334447e+02	-2.509248e+01
2.347931e+02	-2.514123e+01
2.361493e+02	-2.519149e+01
2.375133e+02	-2.524203e+01
2.388851e+02	-2.529554e+01
2.402649e+02	-2.534229e+01
2.416527e+02	-2.539213e+01
2.430484e+02	-2.544126e+01
2.444523e+02	-2.549229e+01
2.458642e+02	-2.554353e+01
2.472843e+02	-2.559288e+01
2.487126e+02	-2.564160e+01
2.501492e+02	-2.569083e+01
2.515940e+02	-2.574471e+01
2.530472e+02	-2.579166e+01
2.545088e+02	-2.584221e+01
2.559789e+02	-2.589193e+01
2.574574e+02	-2.594061e+01
2.589444e+02	-2.598818e+01
2.604401e+02	-2.603915e+01
2.619444e+02	-2.609034e+01
2.634574e+02	-2.614063e+01
2.649791e+02	-2.618680e+01
2.665096e+02	-2.623949e+01
2.680489e+02	-2.628978e+01
2.695972e+02	-2.633879e+01
2.711544e+02	-2.638704e+01
2.727205e+02	-2.644013e+01
2.742958e+02	-2.648906e+01
2.758801e+02	-2.653893e+01
2.774736e+02	-2.658957e+01
2.790762e+02	-2.664203e+01
2.806882e+02	-2.668676e+01
2.823094e+02	-2.674179e+01
2.839400e+02	-2.678793e+01
2.855800e+02	-2.684165e+01
2.872295e+02	-2.689170e+01
2.888886e+02	-2.694159e+01
2.905572e+02	-2.699091e+01
2.922354e+02	-2.704390e+01
2.939234e+02	-2.709261e+01
2.956211e+02	-2.714118e+01
2.973286e+02	-2.719186e+01
2.990459e+02	-2.724164e+01
3.007732e+02	-2.728900e+01
3.025104e+02	-2.733724e+01
3.042577e+02	-2.739349e+01
3.060151e+02	-2.743956e+01
3.077826e+02	-2.749301e+01
3.095604e+02	-2.754400e+01
3.113484e+02	-2.759296e+01
3.131467e+02	-2.763970e+01
3.149554e+02	-2.768956e+01
3.167746e+02	-2.774288e+01
3.186043e+02	-2.778988e+01
3.204445e+02	-2.783888e+01
3.222954e+02	-2.788719e+01
3.241570e+02	-2.793816e+01
3.260293e+02	-2.798887e+01
3.279124e+02	-2.804149e+01
3.298064e+02	-2.809192e+01
3.317114e+02	-2.814031e+01
3.336273e+02	-2.819113e+01
3.355544e+02	-2.824206e+01
3.374925e+02	-2.829264e+01
3.394418e+02	-2.833908e+01
3.414024e+02	-2.838526e+01
3.433744e+02	-2.843859e+01
3.453577e+02	-2.849115e+01
3.473525e+02	-2.854104e+01
3.493588e+02	-2.858847e+01
3.513766e+02	-2.864077e+01
3.534062e+02	-2.868939e+01
3.554474e+02	-2.874329e+01
3.575005e+02	-2.878602e+01
3.595654e+02	-2.884621e+01
3.616422e+02	-2.889199e+01
3.637311e+02	-2.893797e+01
3.658320e+02	-2.899207e+01
3.679450e+02	-2.903988e+01
3.700702e+02	-2.909293e+01
3.722077e+02	-2.914006e+01
3.743576e+02	-2.919387e+01
3.765199e+02	-2.923748e+01
3.786946e+02	-2.929373e+01
3.808820e+02	-2.934246e+01
3.830819e+02	-2.939371e+01
3.852946e+02	-2.943856e+01
3.875200e+02	-2.949352e+01
3.897583e+02	-2.954739e+01
3.920096e+02	-2.959571e+01
3.942738e+02	-2.964634e+01
3.965511e+02	-2.969324e+01
3.988416e+02	-2.974244e+01
4.011452e+02	-2.978967e+01
4.034622e+02	-2.984204e+01
4.057926e+02	-2.989184e+01
4.081365e+02	-2.993886e+01
4.104938e+02	-2.999139e+01
4.128648e+02	-3.004429e+01
4.152495e+02	-3.009078e+01
4.176480e+02	-3.014229e+01
4.200603e+02	-3.019735e+01
4.224866e+02	-3.024047e+01
4.249268e+02	-3.029167e+01
4.273812e+02	-3.034579e+01
4.298497e+02	-3.039800e+01
4.323325e+02	-3.044399e+01
4.348297e+02	-3.050031e+01
4.373412e+02	-3.054464e+01
4.398673e+02	-3.059614e+01
4.424079e+02	-3.064456e+01
4.449633e+02	-3.069560e+01
4.475334e+02	-3.074344e+01
4.501183e+02	-3.079215e+01
4.527182e+02	-3.084826e+01
4.553330e+02	-3.089820e+01
4.579630e+02	-3.094541e+01
4.606082e+02	-3.099507e+01
4.632687e+02	-3.104459e+01
4.659445e+02	-3.109377e+01
4.686358e+02	-3.114718e+01
4.713426e+02	-3.120043e+01
4.740650e+02	-3.124311e+01
4.768032e+02	-3.129624e+01
4.795572e+02	-3.134645e+01
4.823271e+02	-3.140011e+01
4.851130e+02	-3.145043e+01
4.879150e+02	-3.149630e+01
4.907332e+02	-3.154838e+01
4.935676e+02	-3.160062e+01
4.964185e+02	-3.164555e+01
4.992858e+02	-3.169502e+01
5.021696e+02	-3.174878e+01
5.050701e+02	-3.179930e+01
5.079874e+02	-3.184697e+01
5.109215e+02	-3.190092e+01
5.138726e+02	-3.195149e+01
5.168407e+02	-3.199457e+01
5.198259e+02	-3.205215e+01
5.228284e+02	-3.210043e+01
5.258482e+02	-3.215245e+01
5.288855e+02	-3.220305e+01
5.319403e+02	-3.224601e+01
5.350128e+02	-3.230577e+01
5.381030e+02	-3.234539e+01
5.412111e+02	-3.239718e+01
5.443371e+02	-3.244513e+01
5.474812e+02	-3.250194e+01
5.506434e+02	-3.255223e+01
5.538239e+02	-3.259831e+01
5.570228e+02	-3.265913e+01
5.602401e+02	-3.269562e+01
5.634760e+02	-3.275148e+01
5.667306e+02	-3.279830e+01
5.700040e+02	-3.285024e+01
5.732964e+02	-3.290819e+01
5.766077e+02	-3.295352e+01
5.799382e+02	-3.300479e+01
5.832879e+02	-3.304719e+01
5.866569e+02	-3.310565e+01
5.900454e+02	-3.314927e+01
5.934535e+02	-3.320304e+01
5.968813e+02	-3.325780e+01
6.003288e+02	-3.331076e+01
6.037963e+02	-3.335769e+01
6.072838e+02	-3.340825e+01
6.107914e+02	-3.345128e+01
6.143194e+02	-3.350185e+01
6.178676e+02	-3.355388e+01
6.214364e+02	-3.360043e+01
6.250258e+02	-3.365190e+01
6.286359e+02	-3.370156e+01
6.322669e+02	-3.376246e+01
6.359189e+02	-3.381283e+01
6.395919e+02	-3.385953e+01
6.432862e+02	-3.390106e+01
6.470017e+02	-3.395551e+01
6.507388e+02	-3.401075e+01
6.544974e+02	-3.405507e+01
6.582778e+02	-3.410539e+01
6.620800e+02	-3.415316e+01
6.659041e+02	-3.420772e+01
6.697504e+02	-3.425493e+01
6.736188e+02	-3.431082e+01
6.775096e+02	-3.435711e+01
6.814229e+02	-3.440564e+01
6.853587e+02	-3.446410e+01
6.893173e+02	-3.451448e+01
6.932988e+02	-3.456711e+01
6.973033e+02	-3.460498e+01
7.013309e+02	-3.466533e+01
