Frequency(Hz)	Magnitude(dB)
1.000000e+01	-2.360009e+00
1.005776e+01	-2.381009e+00
1.011585e+01	-2.402388e+00
1.017428e+01	-2.423677e+00
1.023305e+01	-2.445151e+00
1.029215e+01	-2.466654e+00
1.035160e+01	-2.488571e+00
1.041139e+01	-2.510468e+00
1.047153e+01	-2.532407e+00
1.053201e+01	-2.554611e+00
1.059284e+01	-2.576967e+00
1.065403e+01	-2.599374e+00
1.071556e+01	-2.621906e+00
1.077746e+01	-2.644629e+00
1.083971e+01	-2.667791e+00
1.090232e+01	-2.690685e+00
1.096529e+01	-2.713918e+00
1.102862e+01	-2.737262e+00
1.109232e+01	-2.760485e+00
1.115639e+01	-2.784113e+00
1.122083e+01	-2.807997e+00
1.128564e+01	-2.831874e+00
1.135083e+01	-2.855845e+00
1.141639e+01	-2.880025e+00
1.148233e+01	-2.904625e+00
1.154865e+01	-2.928871e+00
1.161536e+01	-2.953269e+00
1.168245e+01	-2.978165e+00
1.174992e+01	-3.003011e+00
1.181779e+01	-3.028209e+00
1.188605e+01	-3.053253e+00
1.195470e+01	-3.078545e+00
1.202375e+01	-3.104314e+00
1.209320e+01	-3.129656e+00
1.216305e+01	-3.155374e+00
1.223330e+01	-3.181405e+00
1.230396e+01	-3.207341e+00
1.237503e+01	-3.233520e+00
1.244651e+01	-3.259855e+00
1.251840e+01	-3.286438e+00
1.259070e+01	-3.313130e+00
1.266343e+01	-3.339983e+00
1.273657e+01	-3.366716e+00
1.281014e+01	-3.393646e+00
1.288413e+01	-3.421068e+00
1.295855e+01	-3.448419e+00
1.303339e+01	-3.475749e+00
1.310867e+01	-3.503471e+00
1.318439e+01	-3.531282e+00
1.326054e+01	-3.559257e+00
1.333713e+01	-3.587114e+00
1.341417e+01	-3.615406e+00
1.349165e+01	-3.643826e+00
1.356958e+01	-3.672347e+00
1.364795e+01	-3.700760e+00
1.372678e+01	-3.729650e+00
1.380607e+01	-3.758413e+00
1.388581e+01	-3.787406e+00
1.396602e+01	-3.816758e+00
1.404668e+01	-3.846055e+00
1.412782e+01	-3.875251e+00
1.420942e+01	-3.904836e+00
1.429149e+01	-3.934780e+00
1.437404e+01	-3.964844e+00
1.445706e+01	-3.994713e+00
1.454057e+01	-4.024906e+00
1.462455e+01	-4.055170e+00
1.470902e+01	-4.085828e+00
1.479398e+01	-4.116143e+00
1.487943e+01	-4.146737e+00
1.496537e+01	-4.177595e+00
1.505181e+01	-4.208560e+00
1.513875e+01	-4.239899e+00
1.522619e+01	-4.271092e+00
1.531414e+01	-4.302419e+00
1.540259e+01	-4.333713e+00
1.549156e+01	-4.365583e+00
1.558103e+01	-4.397332e+00
1.567103e+01	-4.429319e+00
1.576155e+01	-4.461414e+00
1.585258e+01	-4.493426e+00
1.594415e+01	-4.525723e+00
1.603624e+01	-4.558173e+00
1.612886e+01	-4.590919e+00
1.622202e+01	-4.623530e+00
1.631572e+01	-4.656820e+00
1.640996e+01	-4.689625e+00
1.650474e+01	-4.722542e+00
1.660008e+01	-4.755968e+00
1.669596e+01	-4.789123e+00
1.679239e+01	-4.822622e+00
1.688938e+01	-4.855978e+00
1.698694e+01	-4.889819e+00
1.708505e+01	-4.923925e+00
1.718373e+01	-4.957664e+00
1.728299e+01	-4.991794e+00
1.738281e+01	-5.026162e+00
1.748322e+01	-5.060570e+00
1.758420e+01	-5.094890e+00
1.768576e+01	-5.129601e+00
1.778792e+01	-5.164436e+00
1.789066e+01	-5.199155e+00
1.799399e+01	-5.234123e+00
1.809793e+01	-5.269369e+00
1.820246e+01	-5.304762e+00
1.830760e+01	-5.339755e+00
1.841334e+01	-5.375228e+00
1.851969e+01	-5.410826e+00
1.862666e+01	-5.446629e+00
1.873425e+01	-5.482390e+00
1.884246e+01	-5.517951e+00
1.895129e+01	-5.554346e+00
1.906075e+01	-5.590741e+00
1.917085e+01	-5.626858e+00
1.928158e+01	-5.662917e+00
1.939295e+01	-5.699736e+00
1.950496e+01	-5.736336e+00
1.961762e+01	-5.772891e+00
1.973093e+01	-5.809788e+00
1.984490e+01	-5.846859e+00
1.995952e+01	-5.883884e+00
2.007480e+01	-5.921433e+00
2.019076e+01	-5.958280e+00
2.030738e+01	-5.995735e+00
2.042467e+01	-6.033134e+00
2.054264e+01	-6.070645e+00
2.066130e+01	-6.108264e+00
2.078064e+01	-6.146428e+00
2.090066e+01	-6.184348e+00
2.102139e+01	-6.222246e+00
2.114280e+01	-6.260300e+00
2.126492e+01	-6.298674e+00
2.138775e+01	-6.336964e+00
2.151128e+01	-6.375553e+00
2.163553e+01	-6.414298e+00
2.176050e+01	-6.452750e+00
2.188619e+01	-6.491584e+00
2.201260e+01	-6.530528e+00
2.213974e+01	-6.569201e+00
2.226762e+01	-6.608199e+00
2.239624e+01	-6.647430e+00
2.252560e+01	-6.686609e+00
2.265571e+01	-6.726386e+00
2.278656e+01	-6.765507e+00
2.291818e+01	-6.804880e+00
2.305055e+01	-6.844709e+00
2.318369e+01	-6.884409e+00
2.331760e+01	-6.924076e+00
2.345228e+01	-6.964058e+00
2.358774e+01	-7.004209e+00
2.372398e+01	-7.044278e+00
2.386101e+01	-7.084431e+00
2.399883e+01	-7.124548e+00
2.413745e+01	-7.164722e+00
2.427686e+01	-7.205631e+00
2.441709e+01	-7.245876e+00
2.455812e+01	-7.286860e+00
2.469997e+01	-7.327490e+00
2.484263e+01	-7.368489e+00
2.498612e+01	-7.408957e+00
2.513044e+01	-7.450243e+00
2.527559e+01	-7.491481e+00
2.542158e+01	-7.532518e+00
2.556842e+01	-7.573981e+00
2.571610e+01	-7.614717e+00
2.586463e+01	-7.656297e+00
2.601403e+01	-7.697925e+00
2.616428e+01	-7.739474e+00
2.631541e+01	-7.781322e+00
2.646740e+01	-7.822782e+00
2.662028e+01	-7.864493e+00
2.677404e+01	-7.906889e+00
2.692868e+01	-7.947943e+00
2.708422e+01	-7.990605e+00
2.724066e+01	-8.032494e+00
2.739800e+01	-8.074868e+00
2.755625e+01	-8.116958e+00
2.771541e+01	-8.158948e+00
2.787550e+01	-8.202082e+00
2.803650e+01	-8.244110e+00
2.819844e+01	-8.286805e+00
2.836131e+01	-8.328921e+00
2.852513e+01	-8.371922e+00
2.868989e+01	-8.414894e+00
2.885560e+01	-8.457544e+00
2.902227e+01	-8.500638e+00
2.918990e+01	-8.543835e+00
2.935850e+01	-8.586369e+00
2.952807e+01	-8.629852e+00
2.969863e+01	-8.673175e+00
2.987016e+01	-8.716750e+00
3.004269e+01	-8.759526e+00
3.021622e+01	-8.803373e+00
3.039075e+01	-8.846761e+00
3.056628e+01	-8.890286e+00
3.074283e+01	-8.934240e+00
3.092040e+01	-8.977241e+00
3.109900e+01	-9.021392e+00
3.127862e+01	-9.065418e+00
3.145929e+01	-9.108606e+00
3.164099e+01	-9.152359e+00
3.182375e+01	-9.196903e+00
3.200756e+01	-9.240779e+00
3.219244e+01	-9.284829e+00
3.237838e+01	-9.328785e+00
3.256540e+01	-9.373113e+00
3.275349e+01	-9.417807e+00
3.294268e+01	-9.462151e+00
3.313295e+01	-9.505978e+00
3.332433e+01	-9.550484e+00
3.351681e+01	-9.594913e+00
3.371040e+01	-9.639900e+00
3.390511e+01	-9.684672e+00
3.410094e+01	-9.729355e+00
3.429791e+01	-9.773734e+00
3.449601e+01	-9.818765e+00
3.469526e+01	-9.863478e+00
3.489566e+01	-9.908108e+00
3.509721e+01	-9.953356e+00
3.529993e+01	-9.998126e+00
3.550382e+01	-1.004365e+01
3.570889e+01	-1.008878e+01
3.591515e+01	-1.013314e+01
3.612259e+01	-1.017870e+01
3.633123e+01	-1.022400e+01
3.654108e+01	-1.026897e+01
3.675214e+01	-1.031425e+01
3.696442e+01	-1.035986e+01
3.717792e+01	-1.040583e+01
3.739266e+01	-1.045021e+01
3.760864e+01	-1.049658e+01
3.782587e+01	-1.054225e+01
3.804435e+01	-1.058732e+01
3.826409e+01	-1.063344e+01
3.848510e+01	-1.067919e+01
3.870739e+01	-1.072452e+01
3.893096e+01	-1.077052e+01
3.915583e+01	-1.081661e+01
3.938199e+01	-1.086254e+01
3.960946e+01	-1.090864e+01
3.983824e+01	-1.095415e+01
4.006834e+01	-1.100028e+01
4.029978e+01	-1.104667e+01
4.053255e+01	-1.109250e+01
4.076666e+01	-1.113822e+01
4.100213e+01	-1.118433e+01
4.123896e+01	-1.123130e+01
4.147715e+01	-1.127759e+01
4.171672e+01	-1.132385e+01
4.195767e+01	-1.137040e+01
4.220002e+01	-1.141664e+01
4.244377e+01	-1.146322e+01
4.268892e+01	-1.150945e+01
4.293549e+01	-1.155578e+01
4.318348e+01	-1.160268e+01
4.343291e+01	-1.164917e+01
4.368377e+01	-1.169609e+01
4.393609e+01	-1.174199e+01
4.418986e+01	-1.178924e+01
4.444510e+01	-1.183554e+01
4.470182e+01	-1.188277e+01
4.496001e+01	-1.192984e+01
4.521970e+01	-1.197676e+01
4.548089e+01	-1.202256e+01
4.574358e+01	-1.206942e+01
4.600779e+01	-1.211653e+01
4.627353e+01	-1.216443e+01
4.654081e+01	-1.221056e+01
4.680963e+01	-1.225820e+01
4.708000e+01	-1.230456e+01
4.735193e+01	-1.235228e+01
4.762543e+01	-1.239949e+01
4.790051e+01	-1.244617e+01
4.817719e+01	-1.249373e+01
4.845545e+01	-1.254056e+01
4.873533e+01	-1.258765e+01
4.901682e+01	-1.263553e+01
4.929994e+01	-1.268273e+01
4.958470e+01	-1.272951e+01
4.987110e+01	-1.277765e+01
5.015915e+01	-1.282479e+01
5.044887e+01	-1.287223e+01
5.074026e+01	-1.291945e+01
5.103333e+01	-1.296752e+01
5.132810e+01	-1.301477e+01
5.162457e+01	-1.306246e+01
5.192275e+01	-1.311038e+01
5.222265e+01	-1.315716e+01
5.252429e+01	-1.320539e+01
5.282767e+01	-1.325293e+01
5.313280e+01	-1.329980e+01
5.343969e+01	-1.334796e+01
5.374836e+01	-1.339558e+01
5.405880e+01	-1.344310e+01
5.437105e+01	-1.349140e+01
5.468509e+01	-1.353834e+01
5.500095e+01	-1.358660e+01
5.531863e+01	-1.363502e+01
5.563815e+01	-1.368262e+01
5.595951e+01	-1.372983e+01
5.628273e+01	-1.377795e+01
5.660782e+01	-1.382549e+01
5.693479e+01	-1.387497e+01
5.726364e+01	-1.392185e+01
5.759439e+01	-1.397106e+01
5.792705e+01	-1.401849e+01
5.826164e+01	-1.406625e+01
5.859815e+01	-1.411493e+01
5.893662e+01	-1.416241e+01
5.927703e+01	-1.421119e+01
5.961941e+01	-1.425929e+01
5.996377e+01	-1.430687e+01
6.031012e+01	-1.435542e+01
6.065847e+01	-1.440327e+01
6.100883e+01	-1.445099e+01
6.136121e+01	-1.449957e+01
6.171563e+01	-1.454864e+01
6.207210e+01	-1.459629e+01
6.243063e+01	-1.464481e+01
6.279122e+01	-1.469274e+01
6.315390e+01	-1.474106e+01
6.351868e+01	-1.478983e+01
6.388556e+01	-1.483766e+01
6.425456e+01	-1.488606e+01
6.462569e+01	-1.493445e+01
6.499897e+01	-1.498284e+01
6.537440e+01	-1.503166e+01
6.575200e+01	-1.507973e+01
6.613178e+01	-1.512990e+01
6.651375e+01	-1.517746e+01
6.689793e+01	-1.522518e+01
6.728433e+01	-1.527488e+01
6.767297e+01	-1.532260e+01
6.806384e+01	-1.537111e+01
6.845698e+01	-1.542065e+01
6.885238e+01	-1.546932e+01
6.925007e+01	-1.551640e+01
6.965005e+01	-1.556614e+01
7.005235e+01	-1.561467e+01
7.045697e+01	-1.566429e+01
7.086393e+01	-1.571293e+01
7.127323e+01	-1.576168e+01
7.168490e+01	-1.580823e+01
7.209895e+01	-1.585836e+01
7.251539e+01	-1.590754e+01
7.293424e+01	-1.595510e+01
7.335551e+01	-1.600490e+01
7.377920e+01	-1.605337e+01
7.420535e+01	-1.610217e+01
7.463396e+01	-1.615090e+01
7.506504e+01	-1.619938e+01
7.549861e+01	-1.624783e+01
7.593469e+01	-1.629730e+01
7.637328e+01	-1.634568e+01
7.681441e+01	-1.639517e+01
7.725809e+01	-1.644466e+01
7.770433e+01	-1.649197e+01
7.815315e+01	-1.654023e+01
7.860456e+01	-1.659124e+01
7.905857e+01	-1.663921e+01
7.951521e+01	-1.668841e+01
7.997449e+01	-1.673867e+01
8.043642e+01	-1.678652e+01
8.090102e+01	-1.683705e+01
8.136830e+01	-1.688408e+01
8.183828e+01	-1.693338e+01
8.231097e+01	-1.698338e+01
8.278640e+01	-1.703136e+01
8.326457e+01	-1.707980e+01
8.374550e+01	-1.712995e+01
8.422921e+01	-1.717930e+01
8.471572e+01	-1.722645e+01
8.520503e+01	-1.727584e+01
8.569717e+01	-1.732661e+01
8.619215e+01	-1.737522e+01
8.669000e+01	-1.742255e+01
8.719071e+01	-1.747226e+01
8.769432e+01	-1.752270e+01
8.820084e+01	-1.757187e+01
8.871029e+01	-1.762128e+01
8.922267e+01	-1.766984e+01
8.973802e+01	-1.771957e+01
9.025634e+01	-1.776817e+01
9.077766e+01	-1.781880e+01
9.130199e+01	-1.786607e+01
9.182935e+01	-1.791615e+01
9.235975e+01	-1.796466e+01
9.289321e+01	-1.801508e+01
9.342976e+01	-1.806374e+01
9.396941e+01	-1.811282e+01
9.451217e+01	-1.816310e+01
9.505807e+01	-1.821058e+01
9.560712e+01	-1.826085e+01
9.615934e+01	-1.830866e+01
9.671476e+01	-1.835968e+01
9.727338e+01	-1.840701e+01
9.783522e+01	-1.845799e+01
9.840032e+01	-1.850725e+01
9.896867e+01	-1.855566e+01
9.954031e+01	-1.860612e+01
1.001153e+02	-1.865458e+01
1.006935e+02	-1.870545e+01
1.012751e+02	-1.875368e+01
1.018601e+02	-1.880224e+01
1.024484e+02	-1.885326e+01
1.030402e+02	-1.890266e+01
1.036353e+02	-1.895158e+01
1.042339e+02	-1.900058e+01
1.048360e+02	-1.904999e+01
1.054415e+02	-1.909931e+01
1.060505e+02	-1.914920e+01
1.066631e+02	-1.919845e+01
1.072791e+02	-1.924880e+01
1.078988e+02	-1.929770e+01
1.085220e+02	-1.934738e+01
1.091488e+02	-1.939624e+01
1.097793e+02	-1.944551e+01
1.104133e+02	-1.949525e+01
1.110511e+02	-1.954356e+01
1.116925e+02	-1.959467e+01
1.123376e+02	-1.964343e+01
1.129865e+02	-1.969198e+01
1.136391e+02	-1.974391e+01
1.142955e+02	-1.979046e+01
1.149556e+02	-1.984057e+01
1.156196e+02	-1.988927e+01
1.162874e+02	-1.993950e+01
1.169591e+02	-1.999068e+01
1.176347e+02	-2.004002e+01
1.183141e+02	-2.008856e+01
1.189975e+02	-2.013819e+01
1.196848e+02	-2.018641e+01
1.203761e+02	-2.023795e+01
1.210714e+02	-2.028771e+01
1.217707e+02	-2.033671e+01
1.224740e+02	-2.038675e+01
1.231814e+02	-2.043586e+01
1.238929e+02	-2.048557e+01
1.246085e+02	-2.053594e+01
1.253283e+02	-2.058478e+01
1.260522e+02	-2.063597e+01
1.267802e+02	-2.068336e+01
1.275125e+02	-2.073587e+01
1.282490e+02	-2.078350e+01
1.289898e+02	-2.083362e+01
1.297348e+02	-2.088215e+01
1.304842e+02	-2.093207e+01
1.312378e+02	-2.098282e+01
1.319959e+02	-2.103258e+01
1.327583e+02	-2.108130e+01
1.335251e+02	-2.113179e+01
1.342963e+02	-2.118098e+01
1.350720e+02	-2.123124e+01
1.358522e+02	-2.128098e+01
1.366368e+02	-2.133085e+01
1.374260e+02	-2.137854e+01
1.382198e+02	-2.142863e+01
1.390182e+02	-2.147836e+01
1.398211e+02	-2.152968e+01
1.406287e+02	-2.157925e+01
1.414410e+02	-2.162591e+01
1.422579e+02	-2.167816e+01
1.430796e+02	-2.172592e+01
1.439060e+02	-2.177983e+01
1.447372e+02	-2.182660e+01
1.455732e+02	-2.187796e+01
1.464141e+02	-2.192803e+01
1.472597e+02	-2.197796e+01
1.481103e+02	-2.202297e+01
1.489658e+02	-2.207564e+01
1.498262e+02	-2.212386e+01
1.506916e+02	-2.217557e+01
1.515620e+02	-2.222660e+01
1.524374e+02	-2.227473e+01
1.533179e+02	-2.232393e+01
1.542034e+02	-2.237604e+01
1.550941e+02	-2.242208e+01
1.559899e+02	-2.247465e+01
1.568909e+02	-2.252155e+01
1.577971e+02	-2.257268e+01
1.587085e+02	-2.262225e+01
1.596252e+02	-2.267462e+01
1.605472e+02	-2.272387e+01
1.614745e+02	-2.277103e+01
1.624072e+02	-2.281938e+01
1.633453e+02	-2.287250e+01
1.642887e+02	-2.292199e+01
1.652377e+02	-2.297046e+01
1.661921e+02	-2.302209e+01
1.671520e+02	-2.306919e+01
1.681175e+02	-2.312168e+01
1.690885e+02	-2.317036e+01
1.700651e+02	-2.322051e+01
1.710474e+02	-2.326947e+01
1.720354e+02	-2.332002e+01
1.730291e+02	-2.337092e+01
1.740285e+02	-2.341750e+01
1.750337e+02	-2.346742e+01
1.760446e+02	-2.352018e+01
1.770615e+02	-2.357015e+01
1.780842e+02	-2.361939e+01
1.791128e+02	-2.366685e+01
1.801473e+02	-2.372004e+01
1.811878e+02	-2.376906e+01
1.822344e+02	-2.382003e+01
1.832870e+02	-2.386624e+01
1.843456e+02	-2.391611e+01
1.854104e+02	-2.396748e+01
1.864813e+02	-2.401667e+01
1.875584e+02	-2.406543e+01
1.886418e+02	-2.411760e+01
1.897313e+02	-2.416580e+01
1.908272e+02	-2.421615e+01
1.919294e+02	-2.426729e+01
1.930380e+02	-2.431585e+01
1.941530e+02	-2.436566e+01
1.952744e+02	-2.441436e+01
1.964023e+02	-2.446527e+01
1.975367e+02	-2.451708e+01
1.986777e+02	-2.456641e+01
1.998252e+02	-2.461777e+01
2.009794e+02	-2.466467e+01
2.021403e+02	-2.471553e+01
2.033078e+02	-2.476469e+01
2.044821e+02	-2.481590e+01
2.056632e+02	-2.486258e+01
2.068511e+02	-2.491519e+01
2.080459e+02	-2.496381e+01
2.092475e+02	-2.501186e+01
2.104561e+02	-2.506435e+01
2.116717e+02	-2.511719e+01
2.128943e+02	-2.516428e+01
2.141240e+02	-2.521346e+01
2.153608e+02	-2.526480e+01
2.166047e+02	-2.531429e+01
2.178558e+02	-2.536497e+01
2.191141e+02	-2.541357e+01
2.203797e+02	-2.546232e+01
2.216526e+02	-2.551343e+01
2.229329e+02	-2.556673e+01
2.242205e+02	-2.561354e+01
2.255156e+02	-2.566329e+01
2.268182e+02	-2.571350e+01
2.281283e+02	-2.575871e+01
2.294459e+02	-2.581355e+01
2.307712e+02	-2.586308e+01
2.321041e+02	-2.591355e+01
2.334447e+02	-2.596613e+01
2.347931e+02	-2.601322e+01
2.361493e+02	-2.606324e+01
2.375133e+02	-2.611208e+01
2.388851e+02	-2.616270e+01
2.402649e+02	-2.621034e+01
2.416527e+02	-2.626179e+01
2.430484e+02	-2.631153e+01
2.444523e+02	-2.636291e+01
2.458642e+02	-2.641089e+01
2.472843e+02	-2.646399e+01
2.487126e+02	-2.651422e+01
2.501492e+02	-2.656405e+01
2.515940e+02	-2.661232e+01
2.530472e+02	-2.666151e+01
2.545088e+02	-2.671544e+01
2.559789e+02	-2.676282e+01
2.574574e+02	-2.681398e+01
2.589444e+02	-2.686616e+01
2.604401e+02	-2.691297e+01
2.619444e+02	-2.696400e+01
2.634574e+02	-2.701016e+01
2.649791e+02	-2.706358e+01
2.665096e+02	-2.711078e+01
2.680489e+02	-2.716391e+01
2.695972e+02	-2.720855e+01
2.711544e+02	-2.726281e+01
2.727205e+02	-2.730990e+01
2.742958e+02	-2.735670e+01
2.758801e+02	-2.741072e+01
2.774736e+02	-2.746411e+01
2.790762e+02	-2.751125e+01
2.806882e+02	-2.756016e+01
2.823094e+02	-2.761384e+01
2.839400e+02	-2.766253e+01
2.855800e+02	-2.771152e+01
2.872295e+02	-2.776012e+01
2.888886e+02	-2.781471e+01
2.905572e+02	-2.786477e+01
2.922354e+02	-2.791080e+01
2.939234e+02	-2.796125e+01
2.956211e+02	-2.801328e+01
2.973286e+02	-2.806457e+01
2.990459e+02	-2.811146e+01
3.007732e+02	-2.816407e+01
3.025104e+02	-2.820825e+01
3.042577e+02	-2.826224e+01
3.060151e+02	-2.831377e+01
3.077826e+02	-2.836245e+01
3.095604e+02	-2.840999e+01
3.113484e+02	-2.846359e+01
3.131467e+02	-2.851097e+01
3.149554e+02	-2.855755e+01
3.167746e+02	-2.861362e+01
3.186043e+02	-2.866215e+01
3.204445e+02	-2.871329e+01
3.222954e+02	-2.876157e+01
3.241570e+02	-2.881122e+01
3.260293e+02	-2.886292e+01
3.279124e+02	-2.891553e+01
3.298064e+02	-2.896434e+01
3.317114e+02	-2.901140e+01
3.336273e+02	-2.906101e+01
3.355544e+02	-2.910873e+01
3.374925e+02	-2.916118e+01
3.394418e+02	-2.921062e+01
3.414024e+02	-2.925982e+01
3.433744e+02	-2.931514e+01
3.453577e+02	-2.935780e+01
3.473525e+02	-2.941633e+01
3.493588e+02	-2.946573e+01
3.513766e+02	-2.951211e+01
3.534062e+02	-2.956537e+01
3.554474e+02	-2.961173e+01
3.575005e+02	-2.966330e+01
3.595654e+02	-2.971582e+01
3.616422e+02	-2.976346e+01
3.637311e+02	-2.981626e+01
3.658320e+02	-2.985907e+01
3.679450e+02	-2.991603e+01
3.700702e+02	-2.995964e+01
3.722077e+02	-3.001296e+01
3.743576e+02	-3.005971e+01
3.765199e+02	-3.011600e+01
3.786946e+02	-3.016377e+01
3.808820e+02	-3.021820e+01
3.830819e+02	-3.026584e+01
3.852946e+02	-3.031281e+01
3.875200e+02	-3.036497e+01
3.897583e+02	-3.041915e+01
3.920096e+02	-3.046658e+01
3.942738e+02	-3.051482e+01
3.965511e+02	-3.056032e+01
3.988416e+02	-3.061915e+01
4.011452e+02	-3.066300e+01
4.034622e+02	-3.071615e+01
4.057926e+02	-3.076886e+01
4.081365e+02	-3.081300e+01
4.104938e+02	-3.086688e+01
4.128648e+02	-3.092228e+01
4.152495e+02	-3.096041e+01
4.176480e+02	-3.101443e+01
4.200603e+02	-3.106795e+01
4.224866e+02	-3.112345e+01
4.249268e+02	-3.116834e+01
4.273812e+02	-3.122117e+01
4.298497e+02	-3.126244e+01
4.323325e+02	-3.132297e+01
4.348297e+02	-3.136996e+01
4.373412e+02	-3.141714e+01
4.398673e+02	-3.146553e+01
4.424079e+02	-3.152054e+01
4.449633e+02	-3.156592e+01
4.475334e+02	-3.161417e+01
4.501183e+02	-3.166411e+01
4.527182e+02	-3.171804e+01
4.553330e+02	-3.176445e+01
4.579630e+02	-3.181703e+01
4.606082e+02	-3.187571e+01
4.632687e+02	-3.191403e+01
4.659445e+02	-3.197235e+01
4.686358e+02	-3.202275e+01
4.713426e+02	-3.206475e+01
4.740650e+02	-3.211516e+01
4.768032e+02	-3.217359e+01
4.795572e+02	-3.221436e+01
4.823271e+02	-3.226611e+01
4.851130e+02	-3.231921e+01
4.879150e+02	-3.237118e+01
4.907332e+02	-3.242091e+01
4.935676e+02	-3.247089e+01
4.964185e+02	-3.252425e+01
4.992858e+02	-3.257762e+01
5.021696e+02	-3.261813e+01
5.050701e+02	-3.267251e+01
5.079874e+02	-3.272189e+01
5.109215e+02	-3.277135e+01
5.138726e+02	-3.282230e+01
5.168407e+02	-3.286864e+01
5.198259e+02	-3.292232e+01
5.228284e+02	-3.297720e+01
5.258482e+02	-3.302543e+01
5.288855e+02	-3.307588e+01
5.319403e+02	-3.312436e+01
5.350128e+02	-3.317217e+01
5.381030e+02	-3.322521e+01
5.412111e+02	-3.327360e+01
5.443371e+02	-3.332495e+01
5.474812e+02	-3.337042e+01
5.506434e+02	-3.342605e+01
5.538239e+02	-3.347878e+01
5.570228e+02	-3.352315e+01
5.602401e+02	-3.356684e+01
5.634760e+02	-3.362548e+01
5.667306e+02	-3.367794e+01
5.700040e+02	-3.372361e+01
5.732964e+02	-3.377051e+01
5.766077e+02	-3.382559e+01
5.799382e+02	-3.387911e+01
5.832879e+02	-3.392409e+01
5.866569e+02	-3.396623e+01
5.900454e+02	-3.402595e+01
5.934535e+02	-3.408049e+01
5.968813e+02	-3.412542e+01
6.003288e+02	-3.417674e+01
6.037963e+02	-3.422443e+01
6.072838e+02	-3.428421e+01
6.107914e+02	-3.433307e+01
6.143194e+02	-3.437602e+01
6.178676e+02	-3.442097e+01
6.214364e+02	-3.447452e+01
6.250258e+02	-3.452774e+01
6.286359e+02	-3.457816e+01
6.322669e+02	-3.463024e+01
6.359189e+02	-3.467799e+01
6.395919e+02	-3.472868e+01
6.432862e+02	-3.478311e+01
6.470017e+02	-3.483296e+01
6.507388e+02	-3.487463e+01
6.544974e+02	-3.493135e+01
6.582778e+02	-3.498467e+01
6.620800e+02	-3.503183e+01
6.659041e+02	-3.508120e+01
6.697504e+02	-3.513326e+01
6.736188e+02	-3.518306e+01
6.775096e+02	-3.522937e+01
6.814229e+02	-3.528395e+01
6.853587e+02	-3.533122e+01
6.893173e+02	-3.538452e+01
6.932988e+02	-3.544252e+01
6.973033e+02	-3.548778e+01
7.013309e+02	-3.553102e+01
