Frequency(Hz)	Magnitude(dB)
1.000000e+01	-2.253535e+00
1.005776e+01	-2.273578e+00
1.011585e+01	-2.294092e+00
1.017428e+01	-2.314830e+00
1.023305e+01	-2.335422e+00
1.029215e+01	-2.356517e+00
1.035160e+01	-2.377556e+00
1.041139e+01	-2.398586e+00
1.047153e+01	-2.419888e+00
1.053201e+01	-2.441436e+00
1.059284e+01	-2.463037e+00
1.065403e+01	-2.484844e+00
1.071556e+01	-2.506628e+00
1.077746e+01	-2.528466e+00
1.083971e+01	-2.550864e+00
1.090232e+01	-2.573096e+00
1.096529e+01	-2.595633e+00
1.102862e+01	-2.618222e+00
1.109232e+01	-2.640614e+00
1.115639e+01	-2.663476e+00
1.122083e+01	-2.686684e+00
1.128564e+01	-2.709709e+00
1.135083e+01	-2.733070e+00
1.141639e+01	-2.756572e+00
1.148233e+01	-2.780021e+00
1.154865e+01	-2.803774e+00
1.161536e+01	-2.827642e+00
1.168245e+01	-2.851832e+00
1.174992e+01	-2.875887e+00
1.181779e+01	-2.900239e+00
1.188605e+01	-2.924621e+00
1.195470e+01	-2.949248e+00
1.202375e+01	-2.973853e+00
1.209320e+01	-2.998785e+00
1.216305e+01	-3.023852e+00
1.223330e+01	-3.048997e+00
1.230396e+01	-3.074271e+00
1.237503e+01	-3.099659e+00
1.244651e+01	-3.125432e+00
1.251840e+01	-3.151068e+00
1.259070e+01	-3.176962e+00
1.266343e+01	-3.202856e+00
1.273657e+01	-3.229129e+00
1.281014e+01	-3.255606e+00
1.288413e+01	-3.281870e+00
1.295855e+01	-3.308584e+00
1.303339e+01	-3.335061e+00
1.310867e+01	-3.361986e+00
1.318439e+01	-3.389217e+00
1.326054e+01	-3.416389e+00
1.333713e+01	-3.443645e+00
1.341417e+01	-3.471182e+00
1.349165e+01	-3.498562e+00
1.356958e+01	-3.526259e+00
1.364795e+01	-3.554271e+00
1.372678e+01	-3.582312e+00
1.380607e+01	-3.610506e+00
1.388581e+01	-3.638991e+00
1.396602e+01	-3.667163e+00
1.404668e+01	-3.695692e+00
1.412782e+01	-3.724837e+00
1.420942e+01	-3.753621e+00
1.429149e+01	-3.782503e+00
1.437404e+01	-3.811857e+00
1.445706e+01	-3.841051e+00
1.454057e+01	-3.870748e+00
1.462455e+01	-3.899880e+00
1.470902e+01	-3.929495e+00
1.479398e+01	-3.959729e+00
1.487943e+01	-3.989593e+00
1.496537e+01	-4.019712e+00
1.505181e+01	-4.049881e+00
1.513875e+01	-4.080531e+00
1.522619e+01	-4.111123e+00
1.531414e+01	-4.141734e+00
1.540259e+01	-4.172593e+00
1.549156e+01	-4.203694e+00
1.558103e+01	-4.234140e+00
1.567103e+01	-4.265643e+00
1.576155e+01	-4.297053e+00
1.585258e+01	-4.328443e+00
1.594415e+01	-4.360272e+00
1.603624e+01	-4.392066e+00
1.612886e+01	-4.423694e+00
1.622202e+01	-4.455782e+00
1.631572e+01	-4.487768e+00
1.640996e+01	-4.520373e+00
1.650474e+01	-4.552799e+00
1.660008e+01	-4.585414e+00
1.669596e+01	-4.617802e+00
1.679239e+01	-4.650729e+00
1.688938e+01	-4.683596e+00
1.698694e+01	-4.716782e+00
1.708505e+01	-4.750078e+00
1.718373e+01	-4.783238e+00
1.728299e+01	-4.816508e+00
1.738281e+01	-4.850370e+00
1.748322e+01	-4.884085e+00
1.758420e+01	-4.918164e+00
1.768576e+01	-4.951916e+00
1.778792e+01	-4.986085e+00
1.789066e+01	-5.020428e+00
1.799399e+01	-5.054404e+00
1.809793e+01	-5.088868e+00
1.820246e+01	-5.123986e+00
1.830760e+01	-5.158255e+00
1.841334e+01	-5.193051e+00
1.851969e+01	-5.228018e+00
1.862666e+01	-5.263218e+00
1.873425e+01	-5.298585e+00
1.884246e+01	-5.333803e+00
1.895129e+01	-5.369233e+00
1.906075e+01	-5.404680e+00
1.917085e+01	-5.440418e+00
1.928158e+01	-5.476242e+00
1.939295e+01	-5.512120e+00
1.950496e+01	-5.548071e+00
1.961762e+01	-5.584280e+00
1.973093e+01	-5.620544e+00
1.984490e+01	-5.656679e+00
1.995952e+01	-5.693530e+00
2.007480e+01	-5.729652e+00
2.019076e+01	-5.766656e+00
2.030738e+01	-5.803267e+00
2.042467e+01	-5.840281e+00
2.054264e+01	-5.877571e+00
2.066130e+01	-5.914360e+00
2.078064e+01	-5.951882e+00
2.090066e+01	-5.989443e+00
2.102139e+01	-6.026795e+00
2.114280e+01	-6.064165e+00
2.126492e+01	-6.101774e+00
2.138775e+01	-6.139885e+00
2.151128e+01	-6.177516e+00
2.163553e+01	-6.215779e+00
2.176050e+01	-6.253692e+00
2.188619e+01	-6.292326e+00
2.201260e+01	-6.330528e+00
2.213974e+01	-6.368833e+00
2.226762e+01	-6.407465e+00
2.239624e+01	-6.446186e+00
2.252560e+01	-6.484563e+00
2.265571e+01	-6.523747e+00
2.278656e+01	-6.562356e+00
2.291818e+01	-6.601300e+00
2.305055e+01	-6.640396e+00
2.318369e+01	-6.679847e+00
2.331760e+01	-6.719067e+00
2.345228e+01	-6.758842e+00
2.358774e+01	-6.797950e+00
2.372398e+01	-6.837671e+00
2.386101e+01	-6.877585e+00
2.399883e+01	-6.917320e+00
2.413745e+01	-6.957183e+00
2.427686e+01	-6.997372e+00
2.441709e+01	-7.037289e+00
2.455812e+01	-7.077558e+00
2.469997e+01	-7.117985e+00
2.484263e+01	-7.158110e+00
2.498612e+01	-7.198935e+00
2.513044e+01	-7.239110e+00
2.527559e+01	-7.279774e+00
2.542158e+01	-7.320477e+00
2.556842e+01	-7.361526e+00
2.571610e+01	-7.402243e+00
2.586463e+01	-7.442841e+00
2.601403e+01	-7.484148e+00
2.616428e+01	-7.525363e+00
2.631541e+01	-7.566700e+00
2.646740e+01	-7.607520e+00
2.662028e+01	-7.649429e+00
2.677404e+01	-7.690565e+00
2.692868e+01	-7.732368e+00
2.708422e+01	-7.773526e+00
2.724066e+01	-7.815456e+00
2.739800e+01	-7.857240e+00
2.755625e+01	-7.898986e+00
2.771541e+01	-7.941255e+00
2.787550e+01	-7.983134e+00
2.803650e+01	-8.025258e+00
2.819844e+01	-8.067214e+00
2.836131e+01	-8.110024e+00
2.852513e+01	-8.152239e+00
2.868989e+01	-8.194413e+00
2.885560e+01	-8.237137e+00
2.902227e+01	-8.279306e+00
2.918990e+01	-8.322051e+00
2.935850e+01	-8.364541e+00
2.952807e+01	-8.407929e+00
2.969863e+01	-8.450483e+00
2.987016e+01	-8.493563e+00
3.004269e+01	-8.535948e+00
3.021622e+01	-8.579558e+00
3.039075e+01	-8.622293e+00
3.056628e+01	-8.665838e+00
3.074283e+01	-8.708752e+00
3.092040e+01	-8.752332e+00
3.109900e+01	-8.796057e+00
3.127862e+01	-8.839173e+00
3.145929e+01	-8.882428e+00
3.164099e+01	-8.926009e+00
3.182375e+01	-8.970167e+00
3.200756e+01	-9.013737e+00
3.219244e+01	-9.057206e+00
3.237838e+01	-9.100859e+00
3.256540e+01	-9.145152e+00
3.275349e+01	-9.188988e+00
3.294268e+01	-9.233426e+00
3.313295e+01	-9.277177e+00
3.332433e+01	-9.321157e+00
3.351681e+01	-9.365646e+00
3.371040e+01	-9.409943e+00
3.390511e+01	-9.453792e+00
3.410094e+01	-9.498557e+00
3.429791e+01	-9.542892e+00
3.449601e+01	-9.587278e+00
3.469526e+01	-9.631923e+00
3.489566e+01	-9.676380e+00
3.509721e+01	-9.721298e+00
3.529993e+01	-9.766156e+00
3.550382e+01	-9.810406e+00
3.570889e+01	-9.855870e+00
3.591515e+01	-9.900674e+00
3.612259e+01	-9.945631e+00
3.633123e+01	-9.990136e+00
3.654108e+01	-1.003520e+01
3.675214e+01	-1.008051e+01
3.696442e+01	-1.012567e+01
3.717792e+01	-1.017087e+01
3.739266e+01	-1.021630e+01
3.760864e+01	-1.026101e+01
3.782587e+01	-1.030661e+01
3.804435e+01	-1.035219e+01
3.826409e+01	-1.039772e+01
3.848510e+01	-1.044333e+01
3.870739e+01	-1.048793e+01
3.893096e+01	-1.053433e+01
3.915583e+01	-1.057964e+01
3.938199e+01	-1.062593e+01
3.960946e+01	-1.067128e+01
3.983824e+01	-1.071768e+01
4.006834e+01	-1.076278e+01
4.029978e+01	-1.080882e+01
4.053255e+01	-1.085426e+01
4.076666e+01	-1.090103e+01
4.100213e+01	-1.094625e+01
4.123896e+01	-1.099229e+01
4.147715e+01	-1.103888e+01
4.171672e+01	-1.108465e+01
4.195767e+01	-1.113080e+01
4.220002e+01	-1.117749e+01
4.244377e+01	-1.122343e+01
4.268892e+01	-1.126923e+01
4.293549e+01	-1.131530e+01
4.318348e+01	-1.136258e+01
4.343291e+01	-1.140835e+01
4.368377e+01	-1.145516e+01
4.393609e+01	-1.150132e+01
4.418986e+01	-1.154775e+01
4.444510e+01	-1.159419e+01
4.470182e+01	-1.164072e+01
4.496001e+01	-1.168773e+01
4.521970e+01	-1.173376e+01
4.548089e+01	-1.178154e+01
4.574358e+01	-1.182759e+01
4.600779e+01	-1.187474e+01
4.627353e+01	-1.192166e+01
4.654081e+01	-1.196815e+01
4.680963e+01	-1.201505e+01
4.708000e+01	-1.206194e+01
4.735193e+01	-1.210889e+01
4.762543e+01	-1.215596e+01
4.790051e+01	-1.220290e+01
4.817719e+01	-1.224982e+01
4.845545e+01	-1.229708e+01
4.873533e+01	-1.234372e+01
4.901682e+01	-1.239126e+01
4.929994e+01	-1.243802e+01
4.958470e+01	-1.248493e+01
4.987110e+01	-1.253267e+01
5.015915e+01	-1.258019e+01
5.044887e+01	-1.262749e+01
5.074026e+01	-1.267441e+01
5.103333e+01	-1.272154e+01
5.132810e+01	-1.276892e+01
5.162457e+01	-1.281657e+01
5.192275e+01	-1.286432e+01
5.222265e+01	-1.291178e+01
5.252429e+01	-1.295866e+01
5.282767e+01	-1.300663e+01
5.313280e+01	-1.305379e+01
5.343969e+01	-1.310165e+01
5.374836e+01	-1.314890e+01
5.405880e+01	-1.319634e+01
5.437105e+01	-1.324357e+01
5.468509e+01	-1.329234e+01
5.500095e+01	-1.333973e+01
5.531863e+01	-1.338736e+01
5.563815e+01	-1.343569e+01
5.595951e+01	-1.348249e+01
5.628273e+01	-1.353085e+01
5.660782e+01	-1.357909e+01
5.693479e+01	-1.362645e+01
5.726364e+01	-1.367451e+01
5.759439e+01	-1.372284e+01
5.792705e+01	-1.376992e+01
5.826164e+01	-1.381874e+01
5.859815e+01	-1.386630e+01
5.893662e+01	-1.391385e+01
5.927703e+01	-1.396267e+01
5.961941e+01	-1.401048e+01
5.996377e+01	-1.405818e+01
6.031012e+01	-1.410559e+01
6.065847e+01	-1.415382e+01
6.100883e+01	-1.420237e+01
6.136121e+01	-1.424999e+01
6.171563e+01	-1.429877e+01
6.207210e+01	-1.434695e+01
6.243063e+01	-1.439465e+01
6.279122e+01	-1.444284e+01
6.315390e+01	-1.449163e+01
6.351868e+01	-1.453890e+01
6.388556e+01	-1.458871e+01
6.425456e+01	-1.463648e+01
6.462569e+01	-1.468544e+01
6.499897e+01	-1.473314e+01
6.537440e+01	-1.478125e+01
6.575200e+01	-1.483007e+01
6.613178e+01	-1.487783e+01
6.651375e+01	-1.492617e+01
6.689793e+01	-1.497501e+01
6.728433e+01	-1.502280e+01
6.767297e+01	-1.507160e+01
6.806384e+01	-1.512039e+01
6.845698e+01	-1.516914e+01
6.885238e+01	-1.521705e+01
6.925007e+01	-1.526566e+01
6.965005e+01	-1.531479e+01
7.005235e+01	-1.536304e+01
7.045697e+01	-1.541127e+01
7.086393e+01	-1.546100e+01
7.127323e+01	-1.550777e+01
7.168490e+01	-1.555667e+01
7.209895e+01	-1.560493e+01
7.251539e+01	-1.565423e+01
7.293424e+01	-1.570319e+01
7.335551e+01	-1.575254e+01
7.377920e+01	-1.580030e+01
7.420535e+01	-1.584890e+01
7.463396e+01	-1.589868e+01
7.506504e+01	-1.594734e+01
7.549861e+01	-1.599606e+01
7.593469e+01	-1.604392e+01
7.637328e+01	-1.609393e+01
7.681441e+01	-1.614159e+01
7.725809e+01	-1.619194e+01
7.770433e+01	-1.623999e+01
7.815315e+01	-1.628907e+01
7.860456e+01	-1.633797e+01
7.905857e+01	-1.638660e+01
7.951521e+01	-1.643584e+01
7.997449e+01	-1.648386e+01
8.043642e+01	-1.653288e+01
8.090102e+01	-1.658211e+01
8.136830e+01	-1.663097e+01
8.183828e+01	-1.667981e+01
8.231097e+01	-1.672933e+01
8.278640e+01	-1.677768e+01
8.326457e+01	-1.682712e+01
8.374550e+01	-1.687611e+01
8.422921e+01	-1.692514e+01
8.471572e+01	-1.697257e+01
8.520503e+01	-1.702247e+01
8.569717e+01	-1.707201e+01
8.619215e+01	-1.712035e+01
8.669000e+01	-1.716987e+01
8.719071e+01	-1.721886e+01
8.769432e+01	-1.726905e+01
8.820084e+01	-1.731684e+01
8.871029e+01	-1.736716e+01
8.922267e+01	-1.741579e+01
8.973802e+01	-1.746384e+01
9.025634e+01	-1.751436e+01
9.077766e+01	-1.756304e+01
9.130199e+01	-1.761217e+01
9.182935e+01	-1.766035e+01
9.235975e+01	-1.771028e+01
9.289321e+01	-1.775947e+01
9.342976e+01	-1.780996e+01
9.396941e+01	-1.785849e+01
9.451217e+01	-1.790748e+01
9.505807e+01	-1.795605e+01
9.560712e+01	-1.800696e+01
9.615934e+01	-1.805543e+01
9.671476e+01	-1.810372e+01
9.727338e+01	-1.815395e+01
9.783522e+01	-1.820283e+01
9.840032e+01	-1.825341e+01
9.896867e+01	-1.830231e+01
9.954031e+01	-1.835002e+01
1.001153e+02	-1.839977e+01
1.006935e+02	-1.844977e+01
1.012751e+02	-1.849795e+01
1.018601e+02	-1.854835e+01
1.024484e+02	-1.859709e+01
1.030402e+02	-1.864751e+01
1.036353e+02	-1.869583e+01
1.042339e+02	-1.874465e+01
1.048360e+02	-1.879453e+01
1.054415e+02	-1.884363e+01
1.060505e+02	-1.889510e+01
1.066631e+02	-1.894350e+01
1.072791e+02	-1.899316e+01
1.078988e+02	-1.904286e+01
1.085220e+02	-1.908996e+01
1.091488e+02	-1.914220e+01
1.097793e+02	-1.918855e+01
1.104133e+02	-1.923813e+01
1.110511e+02	-1.928963e+01
1.116925e+02	-1.933922e+01
1.123376e+02	-1.938825e+01
1.129865e+02	-1.943839e+01
1.136391e+02	-1.948704e+01
1.142955e+02	-1.953672e+01
1.149556e+02	-1.958592e+01
1.156196e+02	-1.963501e+01
1.162874e+02	-1.968554e+01
1.169591e+02	-1.973407e+01
1.176347e+02	-1.978399e+01
1.183141e+02	-1.983335e+01
1.189975e+02	-1.988402e+01
1.196848e+02	-1.993236e+01
1.203761e+02	-1.998167e+01
1.210714e+02	-2.003148e+01
1.217707e+02	-2.008141e+01
1.224740e+02	-2.013093e+01
1.231814e+02	-2.018118e+01
1.238929e+02	-2.022860e+01
1.246085e+02	-2.028006e+01
1.253283e+02	-2.032802e+01
1.260522e+02	-2.037767e+01
1.267802e+02	-2.042678e+01
1.275125e+02	-2.047720e+01
1.282490e+02	-2.052756e+01
1.289898e+02	-2.057638e+01
1.297348e+02	-2.062677e+01
1.304842e+02	-2.067671e+01
1.312378e+02	-2.072500e+01
1.319959e+02	-2.077250e+01
1.327583e+02	-2.082506e+01
1.335251e+02	-2.087433e+01
1.342963e+02	-2.092622e+01
1.350720e+02	-2.097409e+01
1.358522e+02	-2.102381e+01
1.366368e+02	-2.107336e+01
1.374260e+02	-2.112262e+01
1.382198e+02	-2.117055e+01
1.390182e+02	-2.122137e+01
1.398211e+02	-2.127191e+01
1.406287e+02	-2.132245e+01
1.414410e+02	-2.137273e+01
1.422579e+02	-2.142061e+01
1.430796e+02	-2.146887e+01
1.439060e+02	-2.152074e+01
1.447372e+02	-2.157064e+01
1.455732e+02	-2.161926e+01
1.464141e+02	-2.166882e+01
1.472597e+02	-2.172053e+01
1.481103e+02	-2.176869e+01
1.489658e+02	-2.181774e+01
1.498262e+02	-2.186579e+01
1.506916e+02	-2.191741e+01
1.515620e+02	-2.196557e+01
1.524374e+02	-2.201806e+01
1.533179e+02	-2.206628e+01
1.542034e+02	-2.211725e+01
1.550941e+02	-2.216645e+01
1.559899e+02	-2.221600e+01
1.568909e+02	-2.226294e+01
1.577971e+02	-2.231627e+01
1.587085e+02	-2.236640e+01
1.596252e+02	-2.241371e+01
1.605472e+02	-2.246643e+01
1.614745e+02	-2.251603e+01
1.624072e+02	-2.256451e+01
1.633453e+02	-2.261366e+01
1.642887e+02	-2.266276e+01
1.652377e+02	-2.271347e+01
1.661921e+02	-2.276534e+01
1.671520e+02	-2.281445e+01
1.681175e+02	-2.286283e+01
1.690885e+02	-2.291294e+01
1.700651e+02	-2.296348e+01
1.710474e+02	-2.301346e+01
1.720354e+02	-2.306146e+01
1.730291e+02	-2.311159e+01
1.740285e+02	-2.316248e+01
1.750337e+02	-2.321139e+01
1.760446e+02	-2.326444e+01
1.770615e+02	-2.331027e+01
1.780842e+02	-2.336118e+01
1.791128e+02	-2.341172e+01
1.801473e+02	-2.345960e+01
1.811878e+02	-2.351094e+01
1.822344e+02	-2.356034e+01
1.832870e+02	-2.361204e+01
1.843456e+02	-2.366071e+01
1.854104e+02	-2.370960e+01
1.864813e+02	-2.376133e+01
1.875584e+02	-2.381039e+01
1.886418e+02	-2.385803e+01
1.897313e+02	-2.390867e+01
1.908272e+02	-2.395980e+01
1.919294e+02	-2.400913e+01
1.930380e+02	-2.405850e+01
1.941530e+02	-2.410787e+01
1.952744e+02	-2.416039e+01
1.964023e+02	-2.421039e+01
1.975367e+02	-2.425685e+01
1.986777e+02	-2.430617e+01
1.998252e+02	-2.435874e+01
2.009794e+02	-2.440825e+01
2.021403e+02	-2.445695e+01
2.033078e+02	-2.450940e+01
2.044821e+02	-2.455584e+01
2.056632e+02	-2.460517e+01
2.068511e+02	-2.465940e+01
2.080459e+02	-2.470430e+01
2.092475e+02	-2.475574e+01
2.104561e+02	-2.480521e+01
2.116717e+02	-2.485218e+01
2.128943e+02	-2.490822e+01
2.141240e+02	-2.495796e+01
2.153608e+02	-2.500686e+01
2.166047e+02	-2.505573e+01
2.178558e+02	-2.510849e+01
2.191141e+02	-2.515474e+01
2.203797e+02	-2.520439e+01
2.216526e+02	-2.525420e+01
2.229329e+02	-2.530803e+01
2.242205e+02	-2.535502e+01
2.255156e+02	-2.540285e+01
2.268182e+02	-2.545601e+01
2.281283e+02	-2.550151e+01
2.294459e+02	-2.555529e+01
2.307712e+02	-2.560234e+01
2.321041e+02	-2.565576e+01
2.334447e+02	-2.570535e+01
2.347931e+02	-2.575509e+01
2.361493e+02	-2.580468e+01
2.375133e+02	-2.585580e+01
2.388851e+02	-2.590588e+01
2.402649e+02	-2.596006e+01
2.416527e+02	-2.600447e+01
2.430484e+02	-2.605257e+01
2.444523e+02	-2.610465e+01
2.458642e+02	-2.615169e+01
2.472843e+02	-2.620425e+01
2.487126e+02	-2.625260e+01
2.501492e+02	-2.630519e+01
2.515940e+02	-2.635354e+01
2.530472e+02	-2.640301e+01
2.545088e+02	-2.645349e+01
2.559789e+02	-2.650490e+01
2.574574e+02	-2.655506e+01
2.589444e+02	-2.660225e+01
2.604401e+02	-2.665437e+01
2.619444e+02	-2.669971e+01
2.634574e+02	-2.675269e+01
2.649791e+02	-2.680518e+01
2.665096e+02	-2.685348e+01
2.680489e+02	-2.690562e+01
2.695972e+02	-2.695324e+01
2.711544e+02	-2.700753e+01
2.727205e+02	-2.705301e+01
2.742958e+02	-2.710492e+01
2.758801e+02	-2.715187e+01
2.774736e+02	-2.720406e+01
2.790762e+02	-2.725363e+01
2.806882e+02	-2.730597e+01
2.823094e+02	-2.735612e+01
2.839400e+02	-2.740617e+01
2.855800e+02	-2.745240e+01
2.872295e+02	-2.750609e+01
2.888886e+02	-2.755245e+01
2.905572e+02	-2.760569e+01
2.922354e+02	-2.765045e+01
2.939234e+02	-2.770423e+01
2.956211e+02	-2.775358e+01
2.973286e+02	-2.780467e+01
2.990459e+02	-2.785386e+01
3.007732e+02	-2.790113e+01
3.025104e+02	-2.795632e+01
3.042577e+02	-2.800304e+01
3.060151e+02	-2.805820e+01
3.077826e+02	-2.810335e+01
3.095604e+02	-2.815227e+01
3.113484e+02	-2.820643e+01
3.131467e+02	-2.825309e+01
3.149554e+02	-2.830614e+01
3.167746e+02	-2.835641e+01
3.186043e+02	-2.840746e+01
3.204445e+02	-2.845382e+01
3.222954e+02	-2.850608e+01
3.241570e+02	-2.855591e+01
3.260293e+02	-2.860605e+01
3.279124e+02	-2.865743e+01
3.298064e+02	-2.870473e+01
3.317114e+02	-2.875392e+01
3.336273e+02	-2.880396e+01
3.355544e+02	-2.885404e+01
3.374925e+02	-2.890114e+01
3.394418e+02	-2.895628e+01
3.414024e+02	-2.900808e+01
3.433744e+02	-2.905414e+01
3.453577e+02	-2.910305e+01
3.473525e+02	-2.915424e+01
3.493588e+02	-2.920816e+01
3.513766e+02	-2.925619e+01
3.534062e+02	-2.930679e+01
3.554474e+02	-2.935581e+01
3.575005e+02	-2.940720e+01
3.595654e+02	-2.945922e+01
3.616422e+02	-2.950309e+01
3.637311e+02	-2.955771e+01
3.658320e+02	-2.960924e+01
3.679450e+02	-2.965429e+01
3.700702e+02	-2.970521e+01
3.722077e+02	-2.975325e+01
3.743576e+02	-2.980596e+01
3.765199e+02	-2.985377e+01
3.786946e+02	-2.990766e+01
3.808820e+02	-2.995153e+01
3.830819e+02	-3.000751e+01
3.852946e+02	-3.005542e+01
3.875200e+02	-3.010698e+01
3.897583e+02	-3.015433e+01
3.920096e+02	-3.020210e+01
3.942738e+02	-3.025487e+01
3.965511e+02	-3.030539e+01
3.988416e+02	-3.035943e+01
4.011452e+02	-3.041268e+01
4.034622e+02	-3.045412e+01
4.057926e+02	-3.050867e+01
4.081365e+02	-3.055634e+01
4.104938e+02	-3.060479e+01
4.128648e+02	-3.066065e+01
4.152495e+02	-3.070690e+01
4.176480e+02	-3.075890e+01
4.200603e+02	-3.080807e+01
4.224866e+02	-3.085552e+01
4.249268e+02	-3.090975e+01
4.273812e+02	-3.095874e+01
4.298497e+02	-3.100697e+01
4.323325e+02	-3.106017e+01
4.348297e+02	-3.110538e+01
4.373412e+02	-3.115996e+01
4.398673e+02	-3.120555e+01
4.424079e+02	-3.126239e+01
4.449633e+02	-3.130630e+01
4.475334e+02	-3.136436e+01
4.501183e+02	-3.141003e+01
4.527182e+02	-3.146452e+01
4.553330e+02	-3.151008e+01
4.579630e+02	-3.156021e+01
4.606082e+02	-3.161048e+01
4.632687e+02	-3.166451e+01
4.659445e+02	-3.171513e+01
4.686358e+02	-3.176338e+01
4.713426e+02	-3.181727e+01
4.740650e+02	-3.186600e+01
4.768032e+02	-3.191117e+01
4.795572e+02	-3.195504e+01
4.823271e+02	-3.201275e+01
4.851130e+02	-3.206058e+01
4.879150e+02	-3.210737e+01
4.907332e+02	-3.216452e+01
4.935676e+02	-3.221256e+01
4.964185e+02	-3.225911e+01
4.992858e+02	-3.231553e+01
5.021696e+02	-3.236724e+01
5.050701e+02	-3.240994e+01
5.079874e+02	-3.246941e+01
5.109215e+02	-3.251365e+01
5.138726e+02	-3.256417e+01
5.168407e+02	-3.261821e+01
5.198259e+02	-3.266702e+01
5.228284e+02	-3.270737e+01
5.258482e+02	-3.276106e+01
5.288855e+02	-3.282030e+01
5.319403e+02	-3.287171e+01
5.350128e+02	-3.291143e+01
5.381030e+02	-3.296491e+01
5.412111e+02	-3.301847e+01
5.443371e+02	-3.305967e+01
5.474812e+02	-3.311798e+01
5.506434e+02	-3.316685e+01
5.538239e+02	-3.321343e+01
5.570228e+02	-3.327369e+01
5.602401e+02	-3.331676e+01
5.634760e+02	-3.336060e+01
5.667306e+02	-3.341601e+01
5.700040e+02	-3.346580e+01
5.732964e+02	-3.351648e+01
5.766077e+02	-3.357149e+01
5.799382e+02	-3.361803e+01
5.832879e+02	-3.367260e+01
5.866569e+02	-3.372282e+01
5.900454e+02	-3.376393e+01
5.934535e+02	-3.381736e+01
5.968813e+02	-3.386761e+01
6.003288e+02	-3.391779e+01
6.037963e+02	-3.398034e+01
6.072838e+02	-3.401931e+01
6.107914e+02	-3.407151e+01
6.143194e+02	-3.412545e+01
6.178676e+02	-3.417565e+01
6.214364e+02	-3.423136e+01
6.250258e+02	-3.427615e+01
6.286359e+02	-3.431969e+01
6.322669e+02	-3.437484e+01
6.359189e+02	-3.443149e+01
6.395919e+02	-3.447958e+01
6.432862e+02	-3.451696e+01
6.470017e+02	-3.457235e+01
6.507388e+02	-3.462985e+01
6.544974e+02	-3.467537e+01
6.582778e+02	-3.472976e+01
6.620800e+02	-3.477300e+01
6.659041e+02	-3.483128e+01
6.697504e+02	-3.487774e+01
6.736188e+02	-3.493065e+01
6.775096e+02	-3.497295e+01
6.814229e+02	-3.503077e+01
6.853587e+02	-3.507789e+01
6.893173e+02	-3.513386e+01
6.932988e+02	-3.517386e+01
6.973033e+02	-3.522233e+01
7.013309e+02	-3.528598e+01
