Frequency(Hz)	Magnitude(dB)
1.000000e+01	-2.319950e+00
1.005776e+01	-2.340732e+00
1.011585e+01	-2.361690e+00
1.017428e+01	-2.382808e+00
1.023305e+01	-2.403760e+00
1.029215e+01	-2.425113e+00
1.035160e+01	-2.446668e+00
1.041139e+01	-2.468277e+00
1.047153e+01	-2.489880e+00
1.053201e+01	-2.511870e+00
1.059284e+01	-2.533977e+00
1.065403e+01	-2.556269e+00
1.071556e+01	-2.578469e+00
1.077746e+01	-2.601022e+00
1.083971e+01	-2.623603e+00
1.090232e+01	-2.646400e+00
1.096529e+01	-2.669191e+00
1.102862e+01	-2.692302e+00
1.109232e+01	-2.715440e+00
1.115639e+01	-2.738763e+00
1.122083e+01	-2.762057e+00
1.128564e+01	-2.785964e+00
1.135083e+01	-2.809643e+00
1.141639e+01	-2.833625e+00
1.148233e+01	-2.857445e+00
1.154865e+01	-2.881654e+00
1.161536e+01	-2.906189e+00
1.168245e+01	-2.930438e+00
1.174992e+01	-2.955223e+00
1.181779e+01	-2.979920e+00
1.188605e+01	-3.004867e+00
1.195470e+01	-3.029984e+00
1.202375e+01	-3.054963e+00
1.209320e+01	-3.080506e+00
1.216305e+01	-3.105705e+00
1.223330e+01	-3.131546e+00
1.230396e+01	-3.157149e+00
1.237503e+01	-3.183230e+00
1.244651e+01	-3.209142e+00
1.251840e+01	-3.235377e+00
1.259070e+01	-3.261830e+00
1.266343e+01	-3.288243e+00
1.273657e+01	-3.314967e+00
1.281014e+01	-3.341922e+00
1.288413e+01	-3.368687e+00
1.295855e+01	-3.395589e+00
1.303339e+01	-3.423128e+00
1.310867e+01	-3.450270e+00
1.318439e+01	-3.477812e+00
1.326054e+01	-3.505370e+00
1.333713e+01	-3.533137e+00
1.341417e+01	-3.561025e+00
1.349165e+01	-3.588985e+00
1.356958e+01	-3.617509e+00
1.364795e+01	-3.645721e+00
1.372678e+01	-3.674311e+00
1.380607e+01	-3.702905e+00
1.388581e+01	-3.731802e+00
1.396602e+01	-3.760859e+00
1.404668e+01	-3.789512e+00
1.412782e+01	-3.818962e+00
1.420942e+01	-3.848063e+00
1.429149e+01	-3.877522e+00
1.437404e+01	-3.907326e+00
1.445706e+01	-3.936826e+00
1.454057e+01	-3.966841e+00
1.462455e+01	-3.996957e+00
1.470902e+01	-4.026709e+00
1.479398e+01	-4.057178e+00
1.487943e+01	-4.087832e+00
1.496537e+01	-4.118305e+00
1.505181e+01	-4.149339e+00
1.513875e+01	-4.179924e+00
1.522619e+01	-4.210945e+00
1.531414e+01	-4.242086e+00
1.540259e+01	-4.273316e+00
1.549156e+01	-4.304229e+00
1.558103e+01	-4.336065e+00
1.567103e+01	-4.367962e+00
1.576155e+01	-4.399410e+00
1.585258e+01	-4.431627e+00
1.594415e+01	-4.463522e+00
1.603624e+01	-4.495850e+00
1.612886e+01	-4.527984e+00
1.622202e+01	-4.560852e+00
1.631572e+01	-4.593097e+00
1.640996e+01	-4.626024e+00
1.650474e+01	-4.658658e+00
1.660008e+01	-4.691825e+00
1.669596e+01	-4.724745e+00
1.679239e+01	-4.758450e+00
1.688938e+01	-4.791313e+00
1.698694e+01	-4.825080e+00
1.708505e+01	-4.858463e+00
1.718373e+01	-4.892379e+00
1.728299e+01	-4.926202e+00
1.738281e+01	-4.960539e+00
1.748322e+01	-4.994132e+00
1.758420e+01	-5.028719e+00
1.768576e+01	-5.062929e+00
1.778792e+01	-5.097373e+00
1.789066e+01	-5.132084e+00
1.799399e+01	-5.166959e+00
1.809793e+01	-5.201829e+00
1.820246e+01	-5.236522e+00
1.830760e+01	-5.271663e+00
1.841334e+01	-5.306801e+00
1.851969e+01	-5.342348e+00
1.862666e+01	-5.377510e+00
1.873425e+01	-5.413352e+00
1.884246e+01	-5.449216e+00
1.895129e+01	-5.484718e+00
1.906075e+01	-5.521115e+00
1.917085e+01	-5.556991e+00
1.928158e+01	-5.593096e+00
1.939295e+01	-5.629341e+00
1.950496e+01	-5.665518e+00
1.961762e+01	-5.702266e+00
1.973093e+01	-5.738982e+00
1.984490e+01	-5.775174e+00
1.995952e+01	-5.812281e+00
2.007480e+01	-5.849512e+00
2.019076e+01	-5.886569e+00
2.030738e+01	-5.923722e+00
2.042467e+01	-5.961099e+00
2.054264e+01	-5.998100e+00
2.066130e+01	-6.035892e+00
2.078064e+01	-6.073416e+00
2.090066e+01	-6.111139e+00
2.102139e+01	-6.149044e+00
2.114280e+01	-6.187138e+00
2.126492e+01	-6.225232e+00
2.138775e+01	-6.263132e+00
2.151128e+01	-6.301082e+00
2.163553e+01	-6.339709e+00
2.176050e+01	-6.378015e+00
2.188619e+01	-6.416698e+00
2.201260e+01	-6.455427e+00
2.213974e+01	-6.494028e+00
2.226762e+01	-6.532765e+00
2.239624e+01	-6.572089e+00
2.252560e+01	-6.611227e+00
2.265571e+01	-6.649981e+00
2.278656e+01	-6.689150e+00
2.291818e+01	-6.728888e+00
2.305055e+01	-6.768172e+00
2.318369e+01	-6.808036e+00
2.331760e+01	-6.847605e+00
2.345228e+01	-6.887398e+00
2.358774e+01	-6.926955e+00
2.372398e+01	-6.966901e+00
2.386101e+01	-7.007063e+00
2.399883e+01	-7.047366e+00
2.413745e+01	-7.087384e+00
2.427686e+01	-7.127425e+00
2.441709e+01	-7.168263e+00
2.455812e+01	-7.208367e+00
2.469997e+01	-7.249360e+00
2.484263e+01	-7.289708e+00
2.498612e+01	-7.330250e+00
2.513044e+01	-7.370789e+00
2.527559e+01	-7.411806e+00
2.542158e+01	-7.453334e+00
2.556842e+01	-7.494373e+00
2.571610e+01	-7.534990e+00
2.586463e+01	-7.576658e+00
2.601403e+01	-7.617573e+00
2.616428e+01	-7.659367e+00
2.631541e+01	-7.700573e+00
2.646740e+01	-7.741901e+00
2.662028e+01	-7.784005e+00
2.677404e+01	-7.825841e+00
2.692868e+01	-7.867540e+00
2.708422e+01	-7.909064e+00
2.724066e+01	-7.951348e+00
2.739800e+01	-7.993568e+00
2.755625e+01	-8.035582e+00
2.771541e+01	-8.077934e+00
2.787550e+01	-8.119904e+00
2.803650e+01	-8.162334e+00
2.819844e+01	-8.204936e+00
2.836131e+01	-8.247489e+00
2.852513e+01	-8.289758e+00
2.868989e+01	-8.332711e+00
2.885560e+01	-8.375389e+00
2.902227e+01	-8.417951e+00
2.918990e+01	-8.460730e+00
2.935850e+01	-8.504167e+00
2.952807e+01	-8.546349e+00
2.969863e+01	-8.589601e+00
2.987016e+01	-8.633036e+00
3.004269e+01	-8.676347e+00
3.021622e+01	-8.719989e+00
3.039075e+01	-8.762609e+00
3.056628e+01	-8.805980e+00
3.074283e+01	-8.849599e+00
3.092040e+01	-8.892893e+00
3.109900e+01	-8.936726e+00
3.127862e+01	-8.980234e+00
3.145929e+01	-9.024326e+00
3.164099e+01	-9.068142e+00
3.182375e+01	-9.111612e+00
3.200756e+01	-9.155837e+00
3.219244e+01	-9.200424e+00
3.237838e+01	-9.243883e+00
3.256540e+01	-9.287879e+00
3.275349e+01	-9.331962e+00
3.294268e+01	-9.375947e+00
3.313295e+01	-9.420904e+00
3.332433e+01	-9.464312e+00
3.351681e+01	-9.508979e+00
3.371040e+01	-9.554164e+00
3.390511e+01	-9.597982e+00
3.410094e+01	-9.643157e+00
3.429791e+01	-9.687506e+00
3.449601e+01	-9.731908e+00
3.469526e+01	-9.776807e+00
3.489566e+01	-9.821788e+00
3.509721e+01	-9.866323e+00
3.529993e+01	-9.911615e+00
3.550382e+01	-9.956523e+00
3.570889e+01	-1.000116e+01
3.591515e+01	-1.004602e+01
3.612259e+01	-1.009152e+01
3.633123e+01	-1.013662e+01
3.654108e+01	-1.018160e+01
3.675214e+01	-1.022713e+01
3.696442e+01	-1.027225e+01
3.717792e+01	-1.031773e+01
3.739266e+01	-1.036321e+01
3.760864e+01	-1.040890e+01
3.782587e+01	-1.045359e+01
3.804435e+01	-1.049996e+01
3.826409e+01	-1.054528e+01
3.848510e+01	-1.059156e+01
3.870739e+01	-1.063644e+01
3.893096e+01	-1.068185e+01
3.915583e+01	-1.072797e+01
3.938199e+01	-1.077377e+01
3.960946e+01	-1.082011e+01
3.983824e+01	-1.086575e+01
4.006834e+01	-1.091128e+01
4.029978e+01	-1.095803e+01
4.053255e+01	-1.100356e+01
4.076666e+01	-1.104954e+01
4.100213e+01	-1.109618e+01
4.123896e+01	-1.114182e+01
4.147715e+01	-1.118834e+01
4.171672e+01	-1.123484e+01
4.195767e+01	-1.128058e+01
4.220002e+01	-1.132705e+01
4.244377e+01	-1.137326e+01
4.268892e+01	-1.141992e+01
4.293549e+01	-1.146577e+01
4.318348e+01	-1.151250e+01
4.343291e+01	-1.155895e+01
4.368377e+01	-1.160611e+01
4.393609e+01	-1.165255e+01
4.418986e+01	-1.169858e+01
4.444510e+01	-1.174627e+01
4.470182e+01	-1.179247e+01
4.496001e+01	-1.183896e+01
4.521970e+01	-1.188552e+01
4.548089e+01	-1.193310e+01
4.574358e+01	-1.197960e+01
4.600779e+01	-1.202614e+01
4.627353e+01	-1.207296e+01
4.654081e+01	-1.212074e+01
4.680963e+01	-1.216800e+01
4.708000e+01	-1.221467e+01
4.735193e+01	-1.226147e+01
4.762543e+01	-1.230809e+01
4.790051e+01	-1.235506e+01
4.817719e+01	-1.240267e+01
4.845545e+01	-1.245041e+01
4.873533e+01	-1.249728e+01
4.901682e+01	-1.254424e+01
4.929994e+01	-1.259095e+01
4.958470e+01	-1.263860e+01
4.987110e+01	-1.268631e+01
5.015915e+01	-1.273327e+01
5.044887e+01	-1.278042e+01
5.074026e+01	-1.282831e+01
5.103333e+01	-1.287607e+01
5.132810e+01	-1.292300e+01
5.162457e+01	-1.297048e+01
5.192275e+01	-1.301810e+01
5.222265e+01	-1.306595e+01
5.252429e+01	-1.311326e+01
5.282767e+01	-1.316057e+01
5.313280e+01	-1.320825e+01
5.343969e+01	-1.325580e+01
5.374836e+01	-1.330359e+01
5.405880e+01	-1.335167e+01
5.437105e+01	-1.339940e+01
5.468509e+01	-1.344637e+01
5.500095e+01	-1.349497e+01
5.531863e+01	-1.354260e+01
5.563815e+01	-1.359036e+01
5.595951e+01	-1.363846e+01
5.628273e+01	-1.368635e+01
5.660782e+01	-1.373422e+01
5.693479e+01	-1.378223e+01
5.726364e+01	-1.383003e+01
5.759439e+01	-1.387757e+01
5.792705e+01	-1.392560e+01
5.826164e+01	-1.397438e+01
5.859815e+01	-1.402199e+01
5.893662e+01	-1.407030e+01
5.927703e+01	-1.411823e+01
5.961941e+01	-1.416613e+01
5.996377e+01	-1.421428e+01
6.031012e+01	-1.426235e+01
6.065847e+01	-1.430993e+01
6.100883e+01	-1.435928e+01
6.136121e+01	-1.440676e+01
6.171563e+01	-1.445443e+01
6.207210e+01	-1.450273e+01
6.243063e+01	-1.455142e+01
6.279122e+01	-1.459952e+01
6.315390e+01	-1.464790e+01
6.351868e+01	-1.469620e+01
6.388556e+01	-1.474470e+01
6.425456e+01	-1.479378e+01
6.462569e+01	-1.484172e+01
6.499897e+01	-1.488972e+01
6.537440e+01	-1.493835e+01
6.575200e+01	-1.498654e+01
6.613178e+01	-1.503536e+01
6.651375e+01	-1.508343e+01
6.689793e+01	-1.513320e+01
6.728433e+01	-1.518066e+01
6.767297e+01	-1.522931e+01
6.806384e+01	-1.527713e+01
6.845698e+01	-1.532542e+01
6.885238e+01	-1.537511e+01
6.925007e+01	-1.542524e+01
6.965005e+01	-1.547240e+01
7.005235e+01	-1.552118e+01
7.045697e+01	-1.556936e+01
7.086393e+01	-1.561770e+01
7.127323e+01	-1.566622e+01
7.168490e+01	-1.571489e+01
7.209895e+01	-1.576398e+01
7.251539e+01	-1.581348e+01
7.293424e+01	-1.586119e+01
7.335551e+01	-1.591060e+01
7.377920e+01	-1.595863e+01
7.420535e+01	-1.600791e+01
7.463396e+01	-1.605616e+01
7.506504e+01	-1.610627e+01
7.549861e+01	-1.615381e+01
7.593469e+01	-1.620262e+01
7.637328e+01	-1.625145e+01
7.681441e+01	-1.630067e+01
7.725809e+01	-1.635010e+01
7.770433e+01	-1.639884e+01
7.815315e+01	-1.644704e+01
7.860456e+01	-1.649623e+01
7.905857e+01	-1.654503e+01
7.951521e+01	-1.659478e+01
7.997449e+01	-1.664311e+01
8.043642e+01	-1.669204e+01
8.090102e+01	-1.674045e+01
8.136830e+01	-1.678907e+01
8.183828e+01	-1.683821e+01
8.231097e+01	-1.688754e+01
8.278640e+01	-1.693714e+01
8.326457e+01	-1.698665e+01
8.374550e+01	-1.703623e+01
8.422921e+01	-1.708327e+01
8.471572e+01	-1.713348e+01
8.520503e+01	-1.718160e+01
8.569717e+01	-1.723163e+01
8.619215e+01	-1.727965e+01
8.669000e+01	-1.732952e+01
8.719071e+01	-1.737787e+01
8.769432e+01	-1.742731e+01
8.820084e+01	-1.747746e+01
8.871029e+01	-1.752559e+01
8.922267e+01	-1.757609e+01
8.973802e+01	-1.762412e+01
9.025634e+01	-1.767400e+01
9.077766e+01	-1.772378e+01
9.130199e+01	-1.777201e+01
9.182935e+01	-1.782125e+01
9.235975e+01	-1.787148e+01
9.289321e+01	-1.792062e+01
9.342976e+01	-1.796785e+01
9.396941e+01	-1.801815e+01
9.451217e+01	-1.806699e+01
9.505807e+01	-1.811641e+01
9.560712e+01	-1.816572e+01
9.615934e+01	-1.821514e+01
9.671476e+01	-1.826323e+01
9.727338e+01	-1.831259e+01
9.783522e+01	-1.836237e+01
9.840032e+01	-1.841300e+01
9.896867e+01	-1.845958e+01
9.954031e+01	-1.851166e+01
1.001153e+02	-1.855874e+01
1.006935e+02	-1.860866e+01
1.012751e+02	-1.865861e+01
1.018601e+02	-1.870724e+01
1.024484e+02	-1.875781e+01
1.030402e+02	-1.880632e+01
1.036353e+02	-1.885592e+01
1.042339e+02	-1.890551e+01
1.048360e+02	-1.895543e+01
1.054415e+02	-1.900457e+01
1.060505e+02	-1.905514e+01
1.066631e+02	-1.910232e+01
1.072791e+02	-1.915424e+01
1.078988e+02	-1.920129e+01
1.085220e+02	-1.925159e+01
1.091488e+02	-1.930207e+01
1.097793e+02	-1.935098e+01
1.104133e+02	-1.939907e+01
1.110511e+02	-1.944953e+01
1.116925e+02	-1.950005e+01
1.123376e+02	-1.954708e+01
1.129865e+02	-1.959736e+01
1.136391e+02	-1.964768e+01
1.142955e+02	-1.969683e+01
1.149556e+02	-1.974699e+01
1.156196e+02	-1.979492e+01
1.162874e+02	-1.984557e+01
1.169591e+02	-1.989598e+01
1.176347e+02	-1.994450e+01
1.183141e+02	-1.999391e+01
1.189975e+02	-2.004289e+01
1.196848e+02	-2.009291e+01
1.203761e+02	-2.014106e+01
1.210714e+02	-2.019193e+01
1.217707e+02	-2.024256e+01
1.224740e+02	-2.029241e+01
1.231814e+02	-2.034086e+01
1.238929e+02	-2.039030e+01
1.246085e+02	-2.043933e+01
1.253283e+02	-2.048984e+01
1.260522e+02	-2.053932e+01
1.267802e+02	-2.058849e+01
1.275125e+02	-2.063905e+01
1.282490e+02	-2.068793e+01
1.289898e+02	-2.073715e+01
1.297348e+02	-2.078716e+01
1.304842e+02	-2.083420e+01
1.312378e+02	-2.088626e+01
1.319959e+02	-2.093580e+01
1.327583e+02	-2.098649e+01
1.335251e+02	-2.103453e+01
1.342963e+02	-2.108424e+01
1.350720e+02	-2.113483e+01
1.358522e+02	-2.118310e+01
1.366368e+02	-2.123345e+01
1.374260e+02	-2.128289e+01
1.382198e+02	-2.133173e+01
1.390182e+02	-2.138316e+01
1.398211e+02	-2.143113e+01
1.406287e+02	-2.148390e+01
1.414410e+02	-2.153130e+01
1.422579e+02	-2.158136e+01
1.430796e+02	-2.163093e+01
1.439060e+02	-2.168178e+01
1.447372e+02	-2.173118e+01
1.455732e+02	-2.178302e+01
1.464141e+02	-2.183016e+01
1.472597e+02	-2.187942e+01
1.481103e+02	-2.193064e+01
1.489658e+02	-2.197879e+01
1.498262e+02	-2.203107e+01
1.506916e+02	-2.207939e+01
1.515620e+02	-2.212686e+01
1.524374e+02	-2.217779e+01
1.533179e+02	-2.222831e+01
1.542034e+02	-2.227746e+01
1.550941e+02	-2.232958e+01
1.559899e+02	-2.237539e+01
1.568909e+02	-2.242706e+01
1.577971e+02	-2.247632e+01
1.587085e+02	-2.252905e+01
1.596252e+02	-2.257668e+01
1.605472e+02	-2.262893e+01
1.614745e+02	-2.267646e+01
1.624072e+02	-2.272669e+01
1.633453e+02	-2.277522e+01
1.642887e+02	-2.282474e+01
1.652377e+02	-2.287541e+01
1.661921e+02	-2.292543e+01
1.671520e+02	-2.297879e+01
1.681175e+02	-2.302370e+01
1.690885e+02	-2.307465e+01
1.700651e+02	-2.312481e+01
1.710474e+02	-2.317426e+01
1.720354e+02	-2.322285e+01
1.730291e+02	-2.327196e+01
1.740285e+02	-2.332348e+01
1.750337e+02	-2.337217e+01
1.760446e+02	-2.342387e+01
1.770615e+02	-2.347187e+01
1.780842e+02	-2.352042e+01
1.791128e+02	-2.357202e+01
1.801473e+02	-2.362264e+01
1.811878e+02	-2.367272e+01
1.822344e+02	-2.372381e+01
1.832870e+02	-2.377220e+01
1.843456e+02	-2.382191e+01
1.854104e+02	-2.386933e+01
1.864813e+02	-2.392079e+01
1.875584e+02	-2.397148e+01
1.886418e+02	-2.402018e+01
1.897313e+02	-2.406953e+01
1.908272e+02	-2.411975e+01
1.919294e+02	-2.416985e+01
1.930380e+02	-2.422156e+01
1.941530e+02	-2.427225e+01
1.952744e+02	-2.432028e+01
1.964023e+02	-2.436911e+01
1.975367e+02	-2.442001e+01
1.986777e+02	-2.446709e+01
1.998252e+02	-2.451848e+01
2.009794e+02	-2.457040e+01
2.021403e+02	-2.461650e+01
2.033078e+02	-2.466697e+01
2.044821e+02	-2.472018e+01
2.056632e+02	-2.476775e+01
2.068511e+02	-2.481947e+01
2.080459e+02	-2.486740e+01
2.092475e+02	-2.491990e+01
2.104561e+02	-2.497066e+01
2.116717e+02	-2.501981e+01
2.128943e+02	-2.506995e+01
2.141240e+02	-2.511628e+01
2.153608e+02	-2.516911e+01
2.166047e+02	-2.521931e+01
2.178558e+02	-2.526908e+01
2.191141e+02	-2.531772e+01
2.203797e+02	-2.537177e+01
2.216526e+02	-2.541988e+01
2.229329e+02	-2.546449e+01
2.242205e+02	-2.551914e+01
2.255156e+02	-2.556745e+01
2.268182e+02	-2.561825e+01
2.281283e+02	-2.566610e+01
2.294459e+02	-2.571627e+01
2.307712e+02	-2.576819e+01
2.321041e+02	-2.582083e+01
2.334447e+02	-2.586656e+01
2.347931e+02	-2.591350e+01
2.361493e+02	-2.596357e+01
2.375133e+02	-2.602089e+01
2.388851e+02	-2.606788e+01
2.402649e+02	-2.611685e+01
2.416527e+02	-2.616613e+01
2.430484e+02	-2.621747e+01
2.444523e+02	-2.626757e+01
2.458642e+02	-2.631765e+01
2.472843e+02	-2.636636e+01
2.487126e+02	-2.641805e+01
2.501492e+02	-2.646678e+01
2.515940e+02	-2.651183e+01
2.530472e+02	-2.656557e+01
2.545088e+02	-2.661781e+01
2.559789e+02	-2.666751e+01
2.574574e+02	-2.671437e+01
2.589444e+02	-2.676417e+01
2.604401e+02	-2.682039e+01
2.619444e+02	-2.686247e+01
2.634574e+02	-2.691845e+01
2.649791e+02	-2.696655e+01
2.665096e+02	-2.701193e+01
2.680489e+02	-2.706503e+01
2.695972e+02	-2.711565e+01
2.711544e+02	-2.716708e+01
2.727205e+02	-2.721353e+01
2.742958e+02	-2.726490e+01
2.758801e+02	-2.731619e+01
2.774736e+02	-2.736418e+01
2.790762e+02	-2.741724e+01
2.806882e+02	-2.746900e+01
2.823094e+02	-2.751123e+01
2.839400e+02	-2.756748e+01
2.855800e+02	-2.761707e+01
2.872295e+02	-2.766759e+01
2.888886e+02	-2.771497e+01
2.905572e+02	-2.776644e+01
2.922354e+02	-2.781849e+01
2.939234e+02	-2.786563e+01
2.956211e+02	-2.791791e+01
2.973286e+02	-2.796700e+01
2.990459e+02	-2.801603e+01
3.007732e+02	-2.807070e+01
3.025104e+02	-2.811571e+01
3.042577e+02	-2.816729e+01
3.060151e+02	-2.821298e+01
3.077826e+02	-2.826652e+01
3.095604e+02	-2.831370e+01
3.113484e+02	-2.836496e+01
3.131467e+02	-2.842049e+01
3.149554e+02	-2.846491e+01
3.167746e+02	-2.851416e+01
3.186043e+02	-2.856659e+01
3.204445e+02	-2.861680e+01
3.222954e+02	-2.867127e+01
3.241570e+02	-2.871734e+01
3.260293e+02	-2.877065e+01
3.279124e+02	-2.882179e+01
3.298064e+02	-2.886466e+01
3.317114e+02	-2.891570e+01
3.336273e+02	-2.896547e+01
3.355544e+02	-2.901806e+01
3.374925e+02	-2.906275e+01
3.394418e+02	-2.912237e+01
3.414024e+02	-2.916471e+01
3.433744e+02	-2.922002e+01
3.453577e+02	-2.926748e+01
3.473525e+02	-2.931565e+01
3.493588e+02	-2.936847e+01
3.513766e+02	-2.941591e+01
3.534062e+02	-2.946646e+01
3.554474e+02	-2.952099e+01
3.575005e+02	-2.956056e+01
3.595654e+02	-2.962071e+01
3.616422e+02	-2.966982e+01
3.637311e+02	-2.971420e+01
3.658320e+02	-2.977256e+01
3.679450e+02	-2.981843e+01
3.700702e+02	-2.986776e+01
3.722077e+02	-2.991883e+01
3.743576e+02	-2.996654e+01
3.765199e+02	-3.002005e+01
3.786946e+02	-3.007454e+01
3.808820e+02	-3.012046e+01
3.830819e+02	-3.016598e+01
3.852946e+02	-3.021540e+01
3.875200e+02	-3.026861e+01
3.897583e+02	-3.032142e+01
3.920096e+02	-3.037167e+01
3.942738e+02	-3.041494e+01
3.965511e+02	-3.046730e+01
3.988416e+02	-3.051634e+01
4.011452e+02	-3.057289e+01
4.034622e+02	-3.061652e+01
4.057926e+02	-3.066717e+01
4.081365e+02	-3.072148e+01
4.104938e+02	-3.077135e+01
4.128648e+02	-3.082082e+01
4.152495e+02	-3.087443e+01
4.176480e+02	-3.092210e+01
4.200603e+02	-3.096898e+01
4.224866e+02	-3.102076e+01
4.249268e+02	-3.107198e+01
4.273812e+02	-3.111926e+01
4.298497e+02	-3.116616e+01
4.323325e+02	-3.122021e+01
4.348297e+02	-3.127626e+01
4.373412e+02	-3.132666e+01
4.398673e+02	-3.137004e+01
4.424079e+02	-3.142105e+01
4.449633e+02	-3.146880e+01
4.475334e+02	-3.151640e+01
4.501183e+02	-3.157610e+01
4.527182e+02	-3.162547e+01
4.553330e+02	-3.166884e+01
4.579630e+02	-3.172765e+01
4.606082e+02	-3.176835e+01
4.632687e+02	-3.182381e+01
4.659445e+02	-3.187434e+01
4.686358e+02	-3.192673e+01
4.713426e+02	-3.197142e+01
4.740650e+02	-3.201815e+01
4.768032e+02	-3.207480e+01
4.795572e+02	-3.212847e+01
4.823271e+02	-3.217619e+01
4.851130e+02	-3.222197e+01
4.879150e+02	-3.227302e+01
4.907332e+02	-3.232697e+01
4.935676e+02	-3.237334e+01
4.964185e+02	-3.242915e+01
4.992858e+02	-3.247420e+01
5.021696e+02	-3.252652e+01
5.050701e+02	-3.257509e+01
5.079874e+02	-3.262845e+01
5.109215e+02	-3.267454e+01
5.138726e+02	-3.272060e+01
5.168407e+02	-3.277281e+01
5.198259e+02	-3.282389e+01
5.228284e+02	-3.287992e+01
5.258482e+02	-3.292651e+01
5.288855e+02	-3.297796e+01
5.319403e+02	-3.303059e+01
5.350128e+02	-3.307924e+01
5.381030e+02	-3.312947e+01
5.412111e+02	-3.317425e+01
5.443371e+02	-3.323609e+01
5.474812e+02	-3.327640e+01
5.506434e+02	-3.332597e+01
5.538239e+02	-3.337592e+01
5.570228e+02	-3.343010e+01
5.602401e+02	-3.347575e+01
5.634760e+02	-3.353493e+01
5.667306e+02	-3.358591e+01
5.700040e+02	-3.363986e+01
5.732964e+02	-3.368358e+01
5.766077e+02	-3.373032e+01
5.799382e+02	-3.377991e+01
5.832879e+02	-3.383083e+01
5.866569e+02	-3.388272e+01
5.900454e+02	-3.393417e+01
5.934535e+02	-3.397680e+01
5.968813e+02	-3.403529e+01
6.003288e+02	-3.408207e+01
6.037963e+02	-3.413169e+01
6.072838e+02	-3.418233e+01
6.107914e+02	-3.423466e+01
6.143194e+02	-3.428348e+01
6.178676e+02	-3.433102e+01
6.214364e+02	-3.439199e+01
6.250258e+02	-3.442752e+01
6.286359e+02	-3.448888e+01
6.322669e+02	-3.454809e+01
6.359189e+02	-3.459605e+01
6.395919e+02	-3.463743e+01
6.432862e+02	-3.469236e+01
6.470017e+02	-3.473378e+01
6.507388e+02	-3.479252e+01
6.544974e+02	-3.484022e+01
6.582778e+02	-3.489090e+01
6.620800e+02	-3.493805e+01
6.659041e+02	-3.497719e+01
6.697504e+02	-3.503706e+01
6.736188e+02	-3.508917e+01
6.775096e+02	-3.513616e+01
6.814229e+02	-3.519326e+01
6.853587e+02	-3.524180e+01
6.893173e+02	-3.528846e+01
6.932988e+02	-3.534067e+01
6.973033e+02	-3.539742e+01
7.013309e+02	-3.544644e+01
