Frequency(Hz)	Magnitude(dB)
1.000000e+01	-1.630245e-05
1.005776e+01	-1.649132e-05
1.011585e+01	-1.668237e-05
1.017428e+01	-1.687564e-05
1.023305e+01	-1.707115e-05
1.029215e+01	-1.726892e-05
1.035160e+01	-1.746899e-05
1.041139e+01	-1.767137e-05
1.047153e+01	-1.787610e-05
1.053201e+01	-1.808320e-05
1.059284e+01	-1.829270e-05
1.065403e+01	-1.850462e-05
1.071556e+01	-1.871900e-05
1.077746e+01	-1.893587e-05
1.083971e+01	-1.915524e-05
1.090232e+01	-1.937716e-05
1.096529e+01	-1.960165e-05
1.102862e+01	-1.982874e-05
1.109232e+01	-2.005846e-05
1.115639e+01	-2.029085e-05
1.122083e+01	-2.052592e-05
1.128564e+01	-2.076372e-05
1.135083e+01	-2.100427e-05
1.141639e+01	-2.124761e-05
1.148233e+01	-2.149377e-05
1.154865e+01	-2.174278e-05
1.161536e+01	-2.199468e-05
1.168245e+01	-2.224949e-05
1.174992e+01	-2.250726e-05
1.181779e+01	-2.276801e-05
1.188605e+01	-2.303178e-05
1.195470e+01	-2.329861e-05
1.202375e+01	-2.356853e-05
1.209320e+01	-2.384158e-05
1.216305e+01	-2.411779e-05
1.223330e+01	-2.439720e-05
1.230396e+01	-2.467985e-05
1.237503e+01	-2.496577e-05
1.244651e+01	-2.525500e-05
1.251840e+01	-2.554759e-05
1.259070e+01	-2.584356e-05
1.266343e+01	-2.614297e-05
1.273657e+01	-2.644584e-05
1.281014e+01	-2.675222e-05
1.288413e+01	-2.706215e-05
1.295855e+01	-2.737567e-05
1.303339e+01	-2.769283e-05
1.310867e+01	-2.801366e-05
1.318439e+01	-2.833820e-05
1.326054e+01	-2.866651e-05
1.333713e+01	-2.899862e-05
1.341417e+01	-2.933457e-05
1.349165e+01	-2.967442e-05
1.356958e+01	-3.001820e-05
1.364795e+01	-3.036597e-05
1.372678e+01	-3.071777e-05
1.380607e+01	-3.107364e-05
1.388581e+01	-3.143364e-05
1.396602e+01	-3.179780e-05
1.404668e+01	-3.216619e-05
1.412782e+01	-3.253884e-05
1.420942e+01	-3.291581e-05
1.429149e+01	-3.329715e-05
1.437404e+01	-3.368290e-05
1.445706e+01	-3.407313e-05
1.454057e+01	-3.446787e-05
1.462455e+01	-3.486719e-05
1.470902e+01	-3.527114e-05
1.479398e+01	-3.567976e-05
1.487943e+01	-3.609312e-05
1.496537e+01	-3.651127e-05
1.505181e+01	-3.693426e-05
1.513875e+01	-3.736215e-05
1.522619e+01	-3.779500e-05
1.531414e+01	-3.823286e-05
1.540259e+01	-3.867580e-05
1.549156e+01	-3.912387e-05
1.558103e+01	-3.957713e-05
1.567103e+01	-4.003564e-05
1.576155e+01	-4.049946e-05
1.585258e+01	-4.096865e-05
1.594415e+01	-4.144328e-05
1.603624e+01	-4.192341e-05
1.612886e+01	-4.240911e-05
1.622202e+01	-4.290043e-05
1.631572e+01	-4.339744e-05
1.640996e+01	-4.390021e-05
1.650474e+01	-4.440880e-05
1.660008e+01	-4.492328e-05
1.669596e+01	-4.544373e-05
1.679239e+01	-4.597021e-05
1.688938e+01	-4.650278e-05
1.698694e+01	-4.704153e-05
1.708505e+01	-4.758651e-05
1.718373e+01	-4.813781e-05
1.728299e+01	-4.869550e-05
1.738281e+01	-4.925965e-05
1.748322e+01	-4.983033e-05
1.758420e+01	-5.040763e-05
1.768576e+01	-5.099161e-05
1.778792e+01	-5.158236e-05
1.789066e+01	-5.217995e-05
1.799399e+01	-5.278446e-05
1.809793e+01	-5.339598e-05
1.820246e+01	-5.401459e-05
1.830760e+01	-5.464036e-05
1.841334e+01	-5.527338e-05
1.851969e+01	-5.591373e-05
1.862666e+01	-5.656150e-05
1.873425e+01	-5.721678e-05
1.884246e+01	-5.787965e-05
1.895129e+01	-5.855019e-05
1.906075e+01	-5.922851e-05
1.917085e+01	-5.991468e-05
1.928158e+01	-6.060881e-05
1.939295e+01	-6.131097e-05
1.950496e+01	-6.202127e-05
1.961762e+01	-6.273980e-05
1.973093e+01	-6.346665e-05
1.984490e+01	-6.420193e-05
1.995952e+01	-6.494572e-05
2.007480e+01	-6.569813e-05
2.019076e+01	-6.645925e-05
2.030738e+01	-6.722920e-05
2.042467e+01	-6.800806e-05
2.054264e+01	-6.879595e-05
2.066130e+01	-6.959296e-05
2.078064e+01	-7.039921e-05
2.090066e+01	-7.121479e-05
2.102139e+01	-7.203983e-05
2.114280e+01	-7.287443e-05
2.126492e+01	-7.371869e-05
2.138775e+01	-7.457273e-05
2.151128e+01	-7.543667e-05
2.163553e+01	-7.631062e-05
2.176050e+01	-7.719469e-05
2.188619e+01	-7.808901e-05
2.201260e+01	-7.899368e-05
2.213974e+01	-7.990884e-05
2.226762e+01	-8.083459e-05
2.239624e+01	-8.177108e-05
2.252560e+01	-8.271841e-05
2.265571e+01	-8.367671e-05
2.278656e+01	-8.464612e-05
2.291818e+01	-8.562676e-05
2.305055e+01	-8.661876e-05
2.318369e+01	-8.762225e-05
2.331760e+01	-8.863737e-05
2.345228e+01	-8.966425e-05
2.358774e+01	-9.070303e-05
2.372398e+01	-9.175383e-05
2.386101e+01	-9.281682e-05
2.399883e+01	-9.389211e-05
2.413745e+01	-9.497987e-05
2.427686e+01	-9.608022e-05
2.441709e+01	-9.719333e-05
2.455812e+01	-9.831933e-05
2.469997e+01	-9.945837e-05
2.484263e+01	-1.006106e-04
2.498612e+01	-1.017762e-04
2.513044e+01	-1.029553e-04
2.527559e+01	-1.041480e-04
2.542158e+01	-1.053546e-04
2.556842e+01	-1.065752e-04
2.571610e+01	-1.078098e-04
2.586463e+01	-1.090588e-04
2.601403e+01	-1.103223e-04
2.616428e+01	-1.116004e-04
2.631541e+01	-1.128933e-04
2.646740e+01	-1.142012e-04
2.662028e+01	-1.155242e-04
2.677404e+01	-1.168626e-04
2.692868e+01	-1.182165e-04
2.708422e+01	-1.195860e-04
2.724066e+01	-1.209714e-04
2.739800e+01	-1.223729e-04
2.755625e+01	-1.237906e-04
2.771541e+01	-1.252247e-04
2.787550e+01	-1.266755e-04
2.803650e+01	-1.281430e-04
2.819844e+01	-1.296276e-04
2.836131e+01	-1.311293e-04
2.852513e+01	-1.326485e-04
2.868989e+01	-1.341852e-04
2.885560e+01	-1.357398e-04
2.902227e+01	-1.373123e-04
2.918990e+01	-1.389031e-04
2.935850e+01	-1.405123e-04
2.952807e+01	-1.421401e-04
2.969863e+01	-1.437868e-04
2.987016e+01	-1.454526e-04
3.004269e+01	-1.471377e-04
3.021622e+01	-1.488423e-04
3.039075e+01	-1.505667e-04
3.056628e+01	-1.523110e-04
3.074283e+01	-1.540755e-04
3.092040e+01	-1.558605e-04
3.109900e+01	-1.576662e-04
3.127862e+01	-1.594927e-04
3.145929e+01	-1.613405e-04
3.164099e+01	-1.632096e-04
3.182375e+01	-1.651004e-04
3.200756e+01	-1.670131e-04
3.219244e+01	-1.689479e-04
3.237838e+01	-1.709052e-04
3.256540e+01	-1.728852e-04
3.275349e+01	-1.748880e-04
3.294268e+01	-1.769141e-04
3.313295e+01	-1.789637e-04
3.332433e+01	-1.810370e-04
3.351681e+01	-1.831343e-04
3.371040e+01	-1.852559e-04
3.390511e+01	-1.874021e-04
3.410094e+01	-1.895732e-04
3.429791e+01	-1.917694e-04
3.449601e+01	-1.939910e-04
3.469526e+01	-1.962384e-04
3.489566e+01	-1.985119e-04
3.509721e+01	-2.008116e-04
3.529993e+01	-2.031380e-04
3.550382e+01	-2.054914e-04
3.570889e+01	-2.078720e-04
3.591515e+01	-2.102802e-04
3.612259e+01	-2.127163e-04
3.633123e+01	-2.151806e-04
3.654108e+01	-2.176735e-04
3.675214e+01	-2.201952e-04
3.696442e+01	-2.227462e-04
3.717792e+01	-2.253267e-04
3.739266e+01	-2.279371e-04
3.760864e+01	-2.305777e-04
3.782587e+01	-2.332490e-04
3.804435e+01	-2.359511e-04
3.826409e+01	-2.386846e-04
3.848510e+01	-2.414498e-04
3.870739e+01	-2.442470e-04
3.893096e+01	-2.470765e-04
3.915583e+01	-2.499389e-04
3.938199e+01	-2.528344e-04
3.960946e+01	-2.557635e-04
3.983824e+01	-2.587265e-04
4.006834e+01	-2.617238e-04
4.029978e+01	-2.647559e-04
4.053255e+01	-2.678231e-04
4.076666e+01	-2.709258e-04
4.100213e+01	-2.740644e-04
4.123896e+01	-2.772394e-04
4.147715e+01	-2.804512e-04
4.171672e+01	-2.837002e-04
4.195767e+01	-2.869869e-04
4.220002e+01	-2.903116e-04
4.244377e+01	-2.936748e-04
4.268892e+01	-2.970770e-04
4.293549e+01	-3.005186e-04
4.318348e+01	-3.040001e-04
4.343291e+01	-3.075219e-04
4.368377e+01	-3.110845e-04
4.393609e+01	-3.146883e-04
4.418986e+01	-3.183340e-04
4.444510e+01	-3.220218e-04
4.470182e+01	-3.257524e-04
4.496001e+01	-3.295262e-04
4.521970e+01	-3.333437e-04
4.548089e+01	-3.372054e-04
4.574358e+01	-3.411119e-04
4.600779e+01	-3.450636e-04
4.627353e+01	-3.490611e-04
4.654081e+01	-3.531049e-04
4.680963e+01	-3.571955e-04
4.708000e+01	-3.613336e-04
4.735193e+01	-3.655195e-04
4.762543e+01	-3.697540e-04
4.790051e+01	-3.740375e-04
4.817719e+01	-3.783707e-04
4.845545e+01	-3.827540e-04
4.873533e+01	-3.871881e-04
4.901682e+01	-3.916736e-04
4.929994e+01	-3.962110e-04
4.958470e+01	-4.008010e-04
4.987110e+01	-4.054442e-04
5.015915e+01	-4.101412e-04
5.044887e+01	-4.148926e-04
5.074026e+01	-4.196990e-04
5.103333e+01	-4.245611e-04
5.132810e+01	-4.294795e-04
5.162457e+01	-4.344549e-04
5.192275e+01	-4.394879e-04
5.222265e+01	-4.445792e-04
5.252429e+01	-4.497295e-04
5.282767e+01	-4.549395e-04
5.313280e+01	-4.602098e-04
5.343969e+01	-4.655412e-04
5.374836e+01	-4.709343e-04
5.405880e+01	-4.763899e-04
5.437105e+01	-4.819087e-04
5.468509e+01	-4.874915e-04
5.500095e+01	-4.931389e-04
5.531863e+01	-4.988517e-04
5.563815e+01	-5.046307e-04
5.595951e+01	-5.104766e-04
5.628273e+01	-5.163903e-04
5.660782e+01	-5.223724e-04
5.693479e+01	-5.284239e-04
5.726364e+01	-5.345455e-04
5.759439e+01	-5.407379e-04
5.792705e+01	-5.470021e-04
5.826164e+01	-5.533389e-04
5.859815e+01	-5.597491e-04
5.893662e+01	-5.662335e-04
5.927703e+01	-5.727930e-04
5.961941e+01	-5.794286e-04
5.996377e+01	-5.861409e-04
6.031012e+01	-5.929311e-04
6.065847e+01	-5.997999e-04
6.100883e+01	-6.067482e-04
6.136121e+01	-6.137771e-04
6.171563e+01	-6.208874e-04
6.207210e+01	-6.280800e-04
6.243063e+01	-6.353559e-04
6.279122e+01	-6.427162e-04
6.315390e+01	-6.501617e-04
6.351868e+01	-6.576934e-04
6.388556e+01	-6.653124e-04
6.425456e+01	-6.730196e-04
6.462569e+01	-6.808161e-04
6.499897e+01	-6.887029e-04
6.537440e+01	-6.966811e-04
6.575200e+01	-7.047517e-04
6.613178e+01	-7.129157e-04
6.651375e+01	-7.211744e-04
6.689793e+01	-7.295287e-04
6.728433e+01	-7.379798e-04
6.767297e+01	-7.465287e-04
6.806384e+01	-7.551767e-04
6.845698e+01	-7.639249e-04
6.885238e+01	-7.727744e-04
6.925007e+01	-7.817264e-04
6.965005e+01	-7.907821e-04
7.005235e+01	-7.999426e-04
7.045697e+01	-8.092093e-04
7.086393e+01	-8.185834e-04
7.127323e+01	-8.280660e-04
7.168490e+01	-8.376584e-04
7.209895e+01	-8.473620e-04
7.251539e+01	-8.571779e-04
7.293424e+01	-8.671076e-04
7.335551e+01	-8.771522e-04
7.377920e+01	-8.873132e-04
7.420535e+01	-8.975919e-04
7.463396e+01	-9.079897e-04
7.506504e+01	-9.185079e-04
7.549861e+01	-9.291479e-04
7.593469e+01	-9.399112e-04
7.637328e+01	-9.507991e-04
7.681441e+01	-9.618132e-04
7.725809e+01	-9.729548e-04
7.770433e+01	-9.842255e-04
7.815315e+01	-9.956267e-04
7.860456e+01	-1.007160e-03
7.905857e+01	-1.018827e-03
7.951521e+01	-1.030629e-03
7.997449e+01	-1.042567e-03
8.043642e+01	-1.054644e-03
8.090102e+01	-1.066861e-03
8.136830e+01	-1.079220e-03
8.183828e+01	-1.091721e-03
8.231097e+01	-1.104367e-03
8.278640e+01	-1.117160e-03
8.326457e+01	-1.130101e-03
8.374550e+01	-1.143192e-03
8.422921e+01	-1.156434e-03
8.471572e+01	-1.169830e-03
8.520503e+01	-1.183381e-03
8.569717e+01	-1.197089e-03
8.619215e+01	-1.210956e-03
8.669000e+01	-1.224983e-03
8.719071e+01	-1.239173e-03
8.769432e+01	-1.253527e-03
8.820084e+01	-1.268047e-03
8.871029e+01	-1.282736e-03
8.922267e+01	-1.297594e-03
8.973802e+01	-1.312625e-03
9.025634e+01	-1.327830e-03
9.077766e+01	-1.343211e-03
9.130199e+01	-1.358770e-03
9.182935e+01	-1.374509e-03
9.235975e+01	-1.390430e-03
9.289321e+01	-1.406536e-03
9.342976e+01	-1.422829e-03
9.396941e+01	-1.439310e-03
9.451217e+01	-1.455982e-03
9.505807e+01	-1.472847e-03
9.560712e+01	-1.489907e-03
9.615934e+01	-1.507165e-03
9.671476e+01	-1.524623e-03
9.727338e+01	-1.542283e-03
9.783522e+01	-1.560148e-03
9.840032e+01	-1.578219e-03
9.896867e+01	-1.596500e-03
9.954031e+01	-1.614992e-03
1.001153e+02	-1.633699e-03
1.006935e+02	-1.652622e-03
1.012751e+02	-1.671764e-03
1.018601e+02	-1.691129e-03
1.024484e+02	-1.710717e-03
1.030402e+02	-1.730532e-03
1.036353e+02	-1.750577e-03
1.042339e+02	-1.770853e-03
1.048360e+02	-1.791365e-03
1.054415e+02	-1.812114e-03
1.060505e+02	-1.833103e-03
1.066631e+02	-1.854336e-03
1.072791e+02	-1.875814e-03
1.078988e+02	-1.897541e-03
1.085220e+02	-1.919520e-03
1.091488e+02	-1.941753e-03
1.097793e+02	-1.964244e-03
1.104133e+02	-1.986995e-03
1.110511e+02	-2.010009e-03
1.116925e+02	-2.033290e-03
1.123376e+02	-2.056841e-03
1.129865e+02	-2.080664e-03
1.136391e+02	-2.104764e-03
1.142955e+02	-2.129142e-03
1.149556e+02	-2.153802e-03
1.156196e+02	-2.178749e-03
1.162874e+02	-2.203984e-03
1.169591e+02	-2.229511e-03
1.176347e+02	-2.255333e-03
1.183141e+02	-2.281455e-03
1.189975e+02	-2.307879e-03
1.196848e+02	-2.334610e-03
1.203761e+02	-2.361649e-03
1.210714e+02	-2.389002e-03
1.217707e+02	-2.416672e-03
1.224740e+02	-2.444662e-03
1.231814e+02	-2.472976e-03
1.238929e+02	-2.501617e-03
1.246085e+02	-2.530591e-03
1.253283e+02	-2.559900e-03
1.260522e+02	-2.589548e-03
1.267802e+02	-2.619540e-03
1.275125e+02	-2.649878e-03
1.282490e+02	-2.680568e-03
1.289898e+02	-2.711614e-03
1.297348e+02	-2.743019e-03
1.304842e+02	-2.774787e-03
1.312378e+02	-2.806923e-03
1.319959e+02	-2.839432e-03
1.327583e+02	-2.872316e-03
1.335251e+02	-2.905582e-03
1.342963e+02	-2.939232e-03
1.350720e+02	-2.973272e-03
1.358522e+02	-3.007707e-03
1.366368e+02	-3.042539e-03
1.374260e+02	-3.077776e-03
1.382198e+02	-3.113420e-03
1.390182e+02	-3.149476e-03
1.398211e+02	-3.185950e-03
1.406287e+02	-3.222847e-03
1.414410e+02	-3.260170e-03
1.422579e+02	-3.297926e-03
1.430796e+02	-3.336118e-03
1.439060e+02	-3.374753e-03
1.447372e+02	-3.413835e-03
1.455732e+02	-3.453370e-03
1.464141e+02	-3.493362e-03
1.472597e+02	-3.533817e-03
1.481103e+02	-3.574740e-03
1.489658e+02	-3.616137e-03
1.498262e+02	-3.658013e-03
1.506916e+02	-3.700374e-03
1.515620e+02	-3.743226e-03
1.524374e+02	-3.786573e-03
1.533179e+02	-3.830422e-03
1.542034e+02	-3.874778e-03
1.550941e+02	-3.919649e-03
1.559899e+02	-3.965038e-03
1.568909e+02	-4.010953e-03
1.577971e+02	-4.057399e-03
1.587085e+02	-4.104383e-03
1.596252e+02	-4.151910e-03
1.605472e+02	-4.199988e-03
1.614745e+02	-4.248622e-03
1.624072e+02	-4.297819e-03
1.633453e+02	-4.347585e-03
1.642887e+02	-4.397928e-03
1.652377e+02	-4.448853e-03
1.661921e+02	-4.500367e-03
1.671520e+02	-4.552478e-03
1.681175e+02	-4.605191e-03
1.690885e+02	-4.658515e-03
1.700651e+02	-4.712456e-03
1.710474e+02	-4.767021e-03
1.720354e+02	-4.822217e-03
1.730291e+02	-4.878052e-03
1.740285e+02	-4.934534e-03
1.750337e+02	-4.991668e-03
1.760446e+02	-5.049465e-03
1.770615e+02	-5.107929e-03
1.780842e+02	-5.167071e-03
1.791128e+02	-5.226897e-03
1.801473e+02	-5.287415e-03
1.811878e+02	-5.348633e-03
1.822344e+02	-5.410559e-03
1.832870e+02	-5.473203e-03
1.843456e+02	-5.536571e-03
1.854104e+02	-5.600672e-03
1.864813e+02	-5.665515e-03
1.875584e+02	-5.731108e-03
1.886418e+02	-5.797459e-03
1.897313e+02	-5.864579e-03
1.908272e+02	-5.932475e-03
1.919294e+02	-6.001157e-03
1.930380e+02	-6.070633e-03
1.941530e+02	-6.140913e-03
1.952744e+02	-6.212006e-03
1.964023e+02	-6.283922e-03
1.975367e+02	-6.356669e-03
1.986777e+02	-6.430258e-03
1.998252e+02	-6.504698e-03
2.009794e+02	-6.580000e-03
2.021403e+02	-6.656172e-03
2.033078e+02	-6.733226e-03
2.044821e+02	-6.811170e-03
2.056632e+02	-6.890017e-03
2.068511e+02	-6.969775e-03
2.080459e+02	-7.050456e-03
2.092475e+02	-7.132070e-03
2.104561e+02	-7.214628e-03
2.116717e+02	-7.298141e-03
2.128943e+02	-7.382620e-03
2.141240e+02	-7.468076e-03
2.153608e+02	-7.554520e-03
2.166047e+02	-7.641964e-03
2.178558e+02	-7.730419e-03
2.191141e+02	-7.819897e-03
2.203797e+02	-7.910410e-03
2.216526e+02	-8.001969e-03
2.229329e+02	-8.094587e-03
2.242205e+02	-8.188277e-03
2.255156e+02	-8.283049e-03
2.268182e+02	-8.378917e-03
2.281283e+02	-8.475894e-03
2.294459e+02	-8.573993e-03
2.307712e+02	-8.673225e-03
2.321041e+02	-8.773605e-03
2.334447e+02	-8.875145e-03
2.347931e+02	-8.977859e-03
2.361493e+02	-9.081761e-03
2.375133e+02	-9.186864e-03
2.388851e+02	-9.293182e-03
2.402649e+02	-9.400729e-03
2.416527e+02	-9.509519e-03
2.430484e+02	-9.619567e-03
2.444523e+02	-9.730887e-03
2.458642e+02	-9.843493e-03
2.472843e+02	-9.957402e-03
2.487126e+02	-1.007263e-02
2.501492e+02	-1.018918e-02
2.515940e+02	-1.030709e-02
2.530472e+02	-1.042635e-02
2.545088e+02	-1.054700e-02
2.559789e+02	-1.066904e-02
2.574574e+02	-1.079249e-02
2.589444e+02	-1.091736e-02
2.604401e+02	-1.104368e-02
2.619444e+02	-1.117146e-02
2.634574e+02	-1.130072e-02
2.649791e+02	-1.143146e-02
2.665096e+02	-1.156372e-02
2.680489e+02	-1.169751e-02
2.695972e+02	-1.183285e-02
2.711544e+02	-1.196974e-02
2.727205e+02	-1.210822e-02
2.742958e+02	-1.224830e-02
2.758801e+02	-1.239000e-02
2.774736e+02	-1.253333e-02
2.790762e+02	-1.267832e-02
2.806882e+02	-1.282498e-02
2.823094e+02	-1.297334e-02
2.839400e+02	-1.312341e-02
2.855800e+02	-1.327522e-02
2.872295e+02	-1.342878e-02
2.888886e+02	-1.358411e-02
2.905572e+02	-1.374123e-02
2.922354e+02	-1.390017e-02
2.939234e+02	-1.406095e-02
2.956211e+02	-1.422358e-02
2.973286e+02	-1.438809e-02
2.990459e+02	-1.455450e-02
3.007732e+02	-1.472283e-02
3.025104e+02	-1.489311e-02
3.042577e+02	-1.506535e-02
3.060151e+02	-1.523957e-02
3.077826e+02	-1.541581e-02
3.095604e+02	-1.559409e-02
3.113484e+02	-1.577442e-02
3.131467e+02	-1.595683e-02
3.149554e+02	-1.614135e-02
3.167746e+02	-1.632800e-02
3.186043e+02	-1.651681e-02
3.204445e+02	-1.670779e-02
3.222954e+02	-1.690097e-02
3.241570e+02	-1.709639e-02
3.260293e+02	-1.729406e-02
3.279124e+02	-1.749401e-02
3.298064e+02	-1.769627e-02
3.317114e+02	-1.790086e-02
3.336273e+02	-1.810781e-02
3.355544e+02	-1.831715e-02
3.374925e+02	-1.852891e-02
3.394418e+02	-1.874311e-02
3.414024e+02	-1.895977e-02
3.433744e+02	-1.917894e-02
3.453577e+02	-1.940064e-02
3.473525e+02	-1.962489e-02
3.493588e+02	-1.985173e-02
3.513766e+02	-2.008118e-02
3.534062e+02	-2.031328e-02
3.554474e+02	-2.054806e-02
3.575005e+02	-2.078554e-02
3.595654e+02	-2.102576e-02
3.616422e+02	-2.126875e-02
3.637311e+02	-2.151454e-02
3.658320e+02	-2.176317e-02
3.679450e+02	-2.201466e-02
3.700702e+02	-2.226905e-02
3.722077e+02	-2.252637e-02
3.743576e+02	-2.278665e-02
3.765199e+02	-2.304994e-02
3.786946e+02	-2.331626e-02
3.808820e+02	-2.358565e-02
3.830819e+02	-2.385814e-02
3.852946e+02	-2.413378e-02
3.875200e+02	-2.441258e-02
3.897583e+02	-2.469460e-02
3.920096e+02	-2.497987e-02
3.942738e+02	-2.526842e-02
3.965511e+02	-2.556030e-02
3.988416e+02	-2.585554e-02
4.011452e+02	-2.615418e-02
4.034622e+02	-2.645626e-02
4.057926e+02	-2.676181e-02
4.081365e+02	-2.707088e-02
4.104938e+02	-2.738352e-02
4.128648e+02	-2.769975e-02
4.152495e+02	-2.801962e-02
4.176480e+02	-2.834317e-02
4.200603e+02	-2.867044e-02
4.224866e+02	-2.900149e-02
4.249268e+02	-2.933634e-02
4.273812e+02	-2.967504e-02
4.298497e+02	-3.001764e-02
4.323325e+02	-3.036419e-02
4.348297e+02	-3.071472e-02
4.373412e+02	-3.106928e-02
4.398673e+02	-3.142792e-02
4.424079e+02	-3.179068e-02
4.449633e+02	-3.215762e-02
4.475334e+02	-3.252877e-02
4.501183e+02	-3.290420e-02
4.527182e+02	-3.328393e-02
4.553330e+02	-3.366804e-02
4.579630e+02	-3.405656e-02
4.606082e+02	-3.444954e-02
4.632687e+02	-3.484704e-02
4.659445e+02	-3.524911e-02
4.686358e+02	-3.565580e-02
4.713426e+02	-3.606717e-02
4.740650e+02	-3.648325e-02
4.768032e+02	-3.690412e-02
4.795572e+02	-3.732982e-02
4.823271e+02	-3.776041e-02
4.851130e+02	-3.819595e-02
4.879150e+02	-3.863649e-02
4.907332e+02	-3.908208e-02
4.935676e+02	-3.953279e-02
4.964185e+02	-3.998868e-02
4.992858e+02	-4.044979e-02
5.021696e+02	-4.091620e-02
5.050701e+02	-4.138796e-02
5.079874e+02	-4.186514e-02
5.109215e+02	-4.234779e-02
5.138726e+02	-4.283597e-02
5.168407e+02	-4.332976e-02
5.198259e+02	-4.382921e-02
5.228284e+02	-4.433438e-02
5.258482e+02	-4.484535e-02
5.288855e+02	-4.536218e-02
5.319403e+02	-4.588493e-02
5.350128e+02	-4.641367e-02
5.381030e+02	-4.694847e-02
5.412111e+02	-4.748940e-02
5.443371e+02	-4.803653e-02
5.474812e+02	-4.858993e-02
5.506434e+02	-4.914967e-02
5.538239e+02	-4.971581e-02
5.570228e+02	-5.028844e-02
5.602401e+02	-5.086763e-02
5.634760e+02	-5.145345e-02
5.667306e+02	-5.204597e-02
5.700040e+02	-5.264528e-02
5.732964e+02	-5.325145e-02
5.766077e+02	-5.386455e-02
5.799382e+02	-5.448466e-02
5.832879e+02	-5.511187e-02
5.866569e+02	-5.574625e-02
5.900454e+02	-5.638789e-02
5.934535e+02	-5.703686e-02
5.968813e+02	-5.769326e-02
6.003288e+02	-5.835715e-02
6.037963e+02	-5.902864e-02
6.072838e+02	-5.970779e-02
6.107914e+02	-6.039471e-02
6.143194e+02	-6.108947e-02
6.178676e+02	-6.179217e-02
6.214364e+02	-6.250290e-02
6.250258e+02	-6.322173e-02
6.286359e+02	-6.394878e-02
6.322669e+02	-6.468412e-02
6.359189e+02	-6.542786e-02
6.395919e+02	-6.618008e-02
6.432862e+02	-6.694088e-02
6.470017e+02	-6.771036e-02
6.507388e+02	-6.848861e-02
6.544974e+02	-6.927574e-02
6.582778e+02	-7.007184e-02
6.620800e+02	-7.087702e-02
6.659041e+02	-7.169137e-02
6.697504e+02	-7.251500e-02
6.736188e+02	-7.334801e-02
6.775096e+02	-7.419051e-02
6.814229e+02	-7.504260e-02
6.853587e+02	-7.590439e-02
6.893173e+02	-7.677599e-02
6.932988e+02	-7.765751e-02
6.973033e+02	-7.854906e-02
7.013309e+02	-7.945076e-02
