Frequency(Hz)	Magnitude(dB)
1.000000e+01	-1.732858e-05
1.005776e+01	-1.752933e-05
1.011585e+01	-1.773242e-05
1.017428e+01	-1.793785e-05
1.023305e+01	-1.814566e-05
1.029215e+01	-1.835589e-05
1.035160e+01	-1.856854e-05
1.041139e+01	-1.878367e-05
1.047153e+01	-1.900128e-05
1.053201e+01	-1.922141e-05
1.059284e+01	-1.944410e-05
1.065403e+01	-1.966936e-05
1.071556e+01	-1.989724e-05
1.077746e+01	-2.012775e-05
1.083971e+01	-2.036094e-05
1.090232e+01	-2.059682e-05
1.096529e+01	-2.083544e-05
1.102862e+01	-2.107683e-05
1.109232e+01	-2.132101e-05
1.115639e+01	-2.156802e-05
1.122083e+01	-2.181789e-05
1.128564e+01	-2.207065e-05
1.135083e+01	-2.232635e-05
1.141639e+01	-2.258500e-05
1.148233e+01	-2.284666e-05
1.154865e+01	-2.311134e-05
1.161536e+01	-2.337909e-05
1.168245e+01	-2.364994e-05
1.174992e+01	-2.392394e-05
1.181779e+01	-2.420110e-05
1.188605e+01	-2.448148e-05
1.195470e+01	-2.476510e-05
1.202375e+01	-2.505201e-05
1.209320e+01	-2.534224e-05
1.216305e+01	-2.563584e-05
1.223330e+01	-2.593284e-05
1.230396e+01	-2.623328e-05
1.237503e+01	-2.653719e-05
1.244651e+01	-2.684463e-05
1.251840e+01	-2.715564e-05
1.259070e+01	-2.747024e-05
1.266343e+01	-2.778849e-05
1.273657e+01	-2.811043e-05
1.281014e+01	-2.843609e-05
1.288413e+01	-2.876553e-05
1.295855e+01	-2.909879e-05
1.303339e+01	-2.943590e-05
1.310867e+01	-2.977693e-05
1.318439e+01	-3.012190e-05
1.326054e+01	-3.047087e-05
1.333713e+01	-3.082388e-05
1.341417e+01	-3.118098e-05
1.349165e+01	-3.154222e-05
1.356958e+01	-3.190764e-05
1.364795e+01	-3.227730e-05
1.372678e+01	-3.265124e-05
1.380607e+01	-3.302952e-05
1.388581e+01	-3.341217e-05
1.396602e+01	-3.379926e-05
1.404668e+01	-3.419083e-05
1.412782e+01	-3.458694e-05
1.420942e+01	-3.498764e-05
1.429149e+01	-3.539298e-05
1.437404e+01	-3.580301e-05
1.445706e+01	-3.621780e-05
1.454057e+01	-3.663739e-05
1.462455e+01	-3.706184e-05
1.470902e+01	-3.749121e-05
1.479398e+01	-3.792556e-05
1.487943e+01	-3.836493e-05
1.496537e+01	-3.880940e-05
1.505181e+01	-3.925902e-05
1.513875e+01	-3.971384e-05
1.522619e+01	-4.017393e-05
1.531414e+01	-4.063936e-05
1.540259e+01	-4.111017e-05
1.549156e+01	-4.158644e-05
1.558103e+01	-4.206823e-05
1.567103e+01	-4.255560e-05
1.576155e+01	-4.304862e-05
1.585258e+01	-4.354735e-05
1.594415e+01	-4.405185e-05
1.603624e+01	-4.456220e-05
1.612886e+01	-4.507847e-05
1.622202e+01	-4.560071e-05
1.631572e+01	-4.612900e-05
1.640996e+01	-4.666342e-05
1.650474e+01	-4.720402e-05
1.660008e+01	-4.775089e-05
1.669596e+01	-4.830410e-05
1.679239e+01	-4.886371e-05
1.688938e+01	-4.942981e-05
1.698694e+01	-5.000246e-05
1.708505e+01	-5.058175e-05
1.718373e+01	-5.116775e-05
1.728299e+01	-5.176054e-05
1.738281e+01	-5.236020e-05
1.748322e+01	-5.296680e-05
1.758420e+01	-5.358043e-05
1.768576e+01	-5.420117e-05
1.778792e+01	-5.482910e-05
1.789066e+01	-5.546431e-05
1.799399e+01	-5.610688e-05
1.809793e+01	-5.675689e-05
1.820246e+01	-5.741443e-05
1.830760e+01	-5.807958e-05
1.841334e+01	-5.875245e-05
1.851969e+01	-5.943311e-05
1.862666e+01	-6.012165e-05
1.873425e+01	-6.081817e-05
1.884246e+01	-6.152276e-05
1.895129e+01	-6.223552e-05
1.906075e+01	-6.295653e-05
1.917085e+01	-6.368589e-05
1.928158e+01	-6.442370e-05
1.939295e+01	-6.517007e-05
1.950496e+01	-6.592507e-05
1.961762e+01	-6.668883e-05
1.973093e+01	-6.746143e-05
1.984490e+01	-6.824298e-05
1.995952e+01	-6.903359e-05
2.007480e+01	-6.983336e-05
2.019076e+01	-7.064239e-05
2.030738e+01	-7.146080e-05
2.042467e+01	-7.228868e-05
2.054264e+01	-7.312616e-05
2.066130e+01	-7.397334e-05
2.078064e+01	-7.483033e-05
2.090066e+01	-7.569726e-05
2.102139e+01	-7.657422e-05
2.114280e+01	-7.746135e-05
2.126492e+01	-7.835875e-05
2.138775e+01	-7.926655e-05
2.151128e+01	-8.018487e-05
2.163553e+01	-8.111382e-05
2.176050e+01	-8.205354e-05
2.188619e+01	-8.300415e-05
2.201260e+01	-8.396576e-05
2.213974e+01	-8.493852e-05
2.226762e+01	-8.592255e-05
2.239624e+01	-8.691797e-05
2.252560e+01	-8.792493e-05
2.265571e+01	-8.894356e-05
2.278656e+01	-8.997398e-05
2.291818e+01	-9.101635e-05
2.305055e+01	-9.207078e-05
2.318369e+01	-9.313744e-05
2.331760e+01	-9.421645e-05
2.345228e+01	-9.530796e-05
2.358774e+01	-9.641212e-05
2.372398e+01	-9.752907e-05
2.386101e+01	-9.865896e-05
2.399883e+01	-9.980193e-05
2.413745e+01	-1.009582e-04
2.427686e+01	-1.021278e-04
2.441709e+01	-1.033109e-04
2.455812e+01	-1.045078e-04
2.469997e+01	-1.057185e-04
2.484263e+01	-1.069433e-04
2.498612e+01	-1.081823e-04
2.513044e+01	-1.094356e-04
2.527559e+01	-1.107034e-04
2.542158e+01	-1.119859e-04
2.556842e+01	-1.132833e-04
2.571610e+01	-1.145957e-04
2.586463e+01	-1.159233e-04
2.601403e+01	-1.172663e-04
2.616428e+01	-1.186248e-04
2.631541e+01	-1.199991e-04
2.646740e+01	-1.213893e-04
2.662028e+01	-1.227956e-04
2.677404e+01	-1.242182e-04
2.692868e+01	-1.256573e-04
2.708422e+01	-1.271130e-04
2.724066e+01	-1.285857e-04
2.739800e+01	-1.300753e-04
2.755625e+01	-1.315823e-04
2.771541e+01	-1.331067e-04
2.787550e+01	-1.346487e-04
2.803650e+01	-1.362086e-04
2.819844e+01	-1.377866e-04
2.836131e+01	-1.393829e-04
2.852513e+01	-1.409977e-04
2.868989e+01	-1.426311e-04
2.885560e+01	-1.442835e-04
2.902227e+01	-1.459551e-04
2.918990e+01	-1.476460e-04
2.935850e+01	-1.493565e-04
2.952807e+01	-1.510868e-04
2.969863e+01	-1.528371e-04
2.987016e+01	-1.546077e-04
3.004269e+01	-1.563989e-04
3.021622e+01	-1.582108e-04
3.039075e+01	-1.600437e-04
3.056628e+01	-1.618978e-04
3.074283e+01	-1.637734e-04
3.092040e+01	-1.656707e-04
3.109900e+01	-1.675900e-04
3.127862e+01	-1.695315e-04
3.145929e+01	-1.714956e-04
3.164099e+01	-1.734824e-04
3.182375e+01	-1.754922e-04
3.200756e+01	-1.775252e-04
3.219244e+01	-1.795819e-04
3.237838e+01	-1.816623e-04
3.256540e+01	-1.837669e-04
3.275349e+01	-1.858959e-04
3.294268e+01	-1.880495e-04
3.313295e+01	-1.902280e-04
3.332433e+01	-1.924318e-04
3.351681e+01	-1.946611e-04
3.371040e+01	-1.969163e-04
3.390511e+01	-1.991976e-04
3.410094e+01	-2.015053e-04
3.429791e+01	-2.038397e-04
3.449601e+01	-2.062012e-04
3.469526e+01	-2.085900e-04
3.489566e+01	-2.110066e-04
3.509721e+01	-2.134511e-04
3.529993e+01	-2.159239e-04
3.550382e+01	-2.184254e-04
3.570889e+01	-2.209558e-04
3.591515e+01	-2.235156e-04
3.612259e+01	-2.261050e-04
3.633123e+01	-2.287244e-04
3.654108e+01	-2.313742e-04
3.675214e+01	-2.340547e-04
3.696442e+01	-2.367662e-04
3.717792e+01	-2.395091e-04
3.739266e+01	-2.422838e-04
3.760864e+01	-2.450907e-04
3.782587e+01	-2.479300e-04
3.804435e+01	-2.508023e-04
3.826409e+01	-2.537078e-04
3.848510e+01	-2.566470e-04
3.870739e+01	-2.596202e-04
3.893096e+01	-2.626279e-04
3.915583e+01	-2.656704e-04
3.938199e+01	-2.687482e-04
3.960946e+01	-2.718616e-04
3.983824e+01	-2.750111e-04
4.006834e+01	-2.781971e-04
4.029978e+01	-2.814200e-04
4.053255e+01	-2.846802e-04
4.076666e+01	-2.879782e-04
4.100213e+01	-2.913144e-04
4.123896e+01	-2.946892e-04
4.147715e+01	-2.981032e-04
4.171672e+01	-3.015567e-04
4.195767e+01	-3.050502e-04
4.220002e+01	-3.085841e-04
4.244377e+01	-3.121590e-04
4.268892e+01	-3.157753e-04
4.293549e+01	-3.194336e-04
4.318348e+01	-3.231341e-04
4.343291e+01	-3.268776e-04
4.368377e+01	-3.306644e-04
4.393609e+01	-3.344951e-04
4.418986e+01	-3.383702e-04
4.444510e+01	-3.422901e-04
4.470182e+01	-3.462555e-04
4.496001e+01	-3.502668e-04
4.521970e+01	-3.543246e-04
4.548089e+01	-3.584294e-04
4.574358e+01	-3.625817e-04
4.600779e+01	-3.667821e-04
4.627353e+01	-3.710312e-04
4.654081e+01	-3.753295e-04
4.680963e+01	-3.796776e-04
4.708000e+01	-3.840761e-04
4.735193e+01	-3.885255e-04
4.762543e+01	-3.930265e-04
4.790051e+01	-3.975796e-04
4.817719e+01	-4.021855e-04
4.845545e+01	-4.068447e-04
4.873533e+01	-4.115579e-04
4.901682e+01	-4.163257e-04
4.929994e+01	-4.211487e-04
4.958470e+01	-4.260276e-04
4.987110e+01	-4.309630e-04
5.015915e+01	-4.359555e-04
5.044887e+01	-4.410060e-04
5.074026e+01	-4.461149e-04
5.103333e+01	-4.512830e-04
5.132810e+01	-4.565109e-04
5.162457e+01	-4.617995e-04
5.192275e+01	-4.671492e-04
5.222265e+01	-4.725610e-04
5.252429e+01	-4.780354e-04
5.282767e+01	-4.835733e-04
5.313280e+01	-4.891753e-04
5.343969e+01	-4.948422e-04
5.374836e+01	-5.005748e-04
5.405880e+01	-5.063738e-04
5.437105e+01	-5.122399e-04
5.468509e+01	-5.181740e-04
5.500095e+01	-5.241768e-04
5.531863e+01	-5.302492e-04
5.563815e+01	-5.363919e-04
5.595951e+01	-5.426057e-04
5.628273e+01	-5.488916e-04
5.660782e+01	-5.552502e-04
5.693479e+01	-5.616825e-04
5.726364e+01	-5.681893e-04
5.759439e+01	-5.747715e-04
5.792705e+01	-5.814300e-04
5.826164e+01	-5.881656e-04
5.859815e+01	-5.949791e-04
5.893662e+01	-6.018717e-04
5.927703e+01	-6.088440e-04
5.961941e+01	-6.158972e-04
5.996377e+01	-6.230320e-04
6.031012e+01	-6.302495e-04
6.065847e+01	-6.375505e-04
6.100883e+01	-6.449362e-04
6.136121e+01	-6.524074e-04
6.171563e+01	-6.599651e-04
6.207210e+01	-6.676104e-04
6.243063e+01	-6.753443e-04
6.279122e+01	-6.831677e-04
6.315390e+01	-6.910818e-04
6.351868e+01	-6.990875e-04
6.388556e+01	-7.071859e-04
6.425456e+01	-7.153782e-04
6.462569e+01	-7.236654e-04
6.499897e+01	-7.320485e-04
6.537440e+01	-7.405288e-04
6.575200e+01	-7.491073e-04
6.613178e+01	-7.577851e-04
6.651375e+01	-7.665635e-04
6.689793e+01	-7.754436e-04
6.728433e+01	-7.844265e-04
6.767297e+01	-7.935134e-04
6.806384e+01	-8.027057e-04
6.845698e+01	-8.120044e-04
6.885238e+01	-8.214108e-04
6.925007e+01	-8.309261e-04
6.965005e+01	-8.405517e-04
7.005235e+01	-8.502888e-04
7.045697e+01	-8.601386e-04
7.086393e+01	-8.701026e-04
7.127323e+01	-8.801819e-04
7.168490e+01	-8.903780e-04
7.209895e+01	-9.006922e-04
7.251539e+01	-9.111259e-04
7.293424e+01	-9.216804e-04
7.335551e+01	-9.323572e-04
7.377920e+01	-9.431576e-04
7.420535e+01	-9.540832e-04
7.463396e+01	-9.651353e-04
7.506504e+01	-9.763154e-04
7.549861e+01	-9.876249e-04
7.593469e+01	-9.990655e-04
7.637328e+01	-1.010639e-03
7.681441e+01	-1.022346e-03
7.725809e+01	-1.034189e-03
7.770433e+01	-1.046168e-03
7.815315e+01	-1.058287e-03
7.860456e+01	-1.070546e-03
7.905857e+01	-1.082947e-03
7.951521e+01	-1.095492e-03
7.997449e+01	-1.108182e-03
8.043642e+01	-1.121019e-03
8.090102e+01	-1.134004e-03
8.136830e+01	-1.147140e-03
8.183828e+01	-1.160428e-03
8.231097e+01	-1.173871e-03
8.278640e+01	-1.187468e-03
8.326457e+01	-1.201224e-03
8.374550e+01	-1.215138e-03
8.422921e+01	-1.229214e-03
8.471572e+01	-1.243453e-03
8.520503e+01	-1.257856e-03
8.569717e+01	-1.272427e-03
8.619215e+01	-1.287166e-03
8.669000e+01	-1.302076e-03
8.719071e+01	-1.317158e-03
8.769432e+01	-1.332416e-03
8.820084e+01	-1.347850e-03
8.871029e+01	-1.363462e-03
8.922267e+01	-1.379256e-03
8.973802e+01	-1.395233e-03
9.025634e+01	-1.411394e-03
9.077766e+01	-1.427743e-03
9.130199e+01	-1.444281e-03
9.182935e+01	-1.461010e-03
9.235975e+01	-1.477934e-03
9.289321e+01	-1.495053e-03
9.342976e+01	-1.512371e-03
9.396941e+01	-1.529889e-03
9.451217e+01	-1.547610e-03
9.505807e+01	-1.565536e-03
9.560712e+01	-1.583670e-03
9.615934e+01	-1.602014e-03
9.671476e+01	-1.620570e-03
9.727338e+01	-1.639341e-03
9.783522e+01	-1.658330e-03
9.840032e+01	-1.677538e-03
9.896867e+01	-1.696969e-03
9.954031e+01	-1.716625e-03
1.001153e+02	-1.736509e-03
1.006935e+02	-1.756622e-03
1.012751e+02	-1.776969e-03
1.018601e+02	-1.797552e-03
1.024484e+02	-1.818372e-03
1.030402e+02	-1.839434e-03
1.036353e+02	-1.860740e-03
1.042339e+02	-1.882293e-03
1.048360e+02	-1.904095e-03
1.054415e+02	-1.926149e-03
1.060505e+02	-1.948459e-03
1.066631e+02	-1.971027e-03
1.072791e+02	-1.993857e-03
1.078988e+02	-2.016951e-03
1.085220e+02	-2.040312e-03
1.091488e+02	-2.063944e-03
1.097793e+02	-2.087850e-03
1.104133e+02	-2.112032e-03
1.110511e+02	-2.136495e-03
1.116925e+02	-2.161241e-03
1.123376e+02	-2.186273e-03
1.129865e+02	-2.211595e-03
1.136391e+02	-2.237210e-03
1.142955e+02	-2.263122e-03
1.149556e+02	-2.289334e-03
1.156196e+02	-2.315849e-03
1.162874e+02	-2.342672e-03
1.169591e+02	-2.369805e-03
1.176347e+02	-2.397252e-03
1.183141e+02	-2.425017e-03
1.189975e+02	-2.453104e-03
1.196848e+02	-2.481516e-03
1.203761e+02	-2.510256e-03
1.210714e+02	-2.539330e-03
1.217707e+02	-2.568740e-03
1.224740e+02	-2.598490e-03
1.231814e+02	-2.628586e-03
1.238929e+02	-2.659029e-03
1.246085e+02	-2.689825e-03
1.253283e+02	-2.720978e-03
1.260522e+02	-2.752491e-03
1.267802e+02	-2.784369e-03
1.275125e+02	-2.816616e-03
1.282490e+02	-2.849237e-03
1.289898e+02	-2.882235e-03
1.297348e+02	-2.915615e-03
1.304842e+02	-2.949382e-03
1.312378e+02	-2.983539e-03
1.319959e+02	-3.018092e-03
1.327583e+02	-3.053045e-03
1.335251e+02	-3.088403e-03
1.342963e+02	-3.124170e-03
1.350720e+02	-3.160351e-03
1.358522e+02	-3.196951e-03
1.366368e+02	-3.233975e-03
1.374260e+02	-3.271427e-03
1.382198e+02	-3.309313e-03
1.390182e+02	-3.347638e-03
1.398211e+02	-3.386406e-03
1.406287e+02	-3.425623e-03
1.414410e+02	-3.465294e-03
1.422579e+02	-3.505424e-03
1.430796e+02	-3.546018e-03
1.439060e+02	-3.587083e-03
1.447372e+02	-3.628623e-03
1.455732e+02	-3.670644e-03
1.464141e+02	-3.713151e-03
1.472597e+02	-3.756150e-03
1.481103e+02	-3.799647e-03
1.489658e+02	-3.843647e-03
1.498262e+02	-3.888157e-03
1.506916e+02	-3.933182e-03
1.515620e+02	-3.978728e-03
1.524374e+02	-4.024801e-03
1.533179e+02	-4.071408e-03
1.542034e+02	-4.118553e-03
1.550941e+02	-4.166245e-03
1.559899e+02	-4.214489e-03
1.568909e+02	-4.263291e-03
1.577971e+02	-4.312657e-03
1.587085e+02	-4.362595e-03
1.596252e+02	-4.413111e-03
1.605472e+02	-4.464212e-03
1.614745e+02	-4.515904e-03
1.624072e+02	-4.568195e-03
1.633453e+02	-4.621090e-03
1.642887e+02	-4.674598e-03
1.652377e+02	-4.728725e-03
1.661921e+02	-4.783478e-03
1.671520e+02	-4.838865e-03
1.681175e+02	-4.894893e-03
1.690885e+02	-4.951569e-03
1.700651e+02	-5.008901e-03
1.710474e+02	-5.066896e-03
1.720354e+02	-5.125563e-03
1.730291e+02	-5.184908e-03
1.740285e+02	-5.244941e-03
1.750337e+02	-5.305667e-03
1.760446e+02	-5.367097e-03
1.770615e+02	-5.429237e-03
1.780842e+02	-5.492096e-03
1.791128e+02	-5.555683e-03
1.801473e+02	-5.620005e-03
1.811878e+02	-5.685072e-03
1.822344e+02	-5.750891e-03
1.832870e+02	-5.817472e-03
1.843456e+02	-5.884823e-03
1.854104e+02	-5.952953e-03
1.864813e+02	-6.021872e-03
1.875584e+02	-6.091588e-03
1.886418e+02	-6.162110e-03
1.897313e+02	-6.233448e-03
1.908272e+02	-6.305612e-03
1.919294e+02	-6.378610e-03
1.930380e+02	-6.452453e-03
1.941530e+02	-6.527150e-03
1.952744e+02	-6.602711e-03
1.964023e+02	-6.679146e-03
1.975367e+02	-6.756465e-03
1.986777e+02	-6.834679e-03
1.998252e+02	-6.913797e-03
2.009794e+02	-6.993831e-03
2.021403e+02	-7.074790e-03
2.033078e+02	-7.156685e-03
2.044821e+02	-7.239528e-03
2.056632e+02	-7.323329e-03
2.068511e+02	-7.408099e-03
2.080459e+02	-7.493849e-03
2.092475e+02	-7.580592e-03
2.104561e+02	-7.668337e-03
2.116717e+02	-7.757097e-03
2.128943e+02	-7.846883e-03
2.141240e+02	-7.937708e-03
2.153608e+02	-8.029583e-03
2.166047e+02	-8.122521e-03
2.178558e+02	-8.216533e-03
2.191141e+02	-8.311632e-03
2.203797e+02	-8.407831e-03
2.216526e+02	-8.505142e-03
2.229329e+02	-8.603579e-03
2.242205e+02	-8.703153e-03
2.255156e+02	-8.803879e-03
2.268182e+02	-8.905769e-03
2.281283e+02	-9.008838e-03
2.294459e+02	-9.113097e-03
2.307712e+02	-9.218562e-03
2.321041e+02	-9.325247e-03
2.334447e+02	-9.433165e-03
2.347931e+02	-9.542330e-03
2.361493e+02	-9.652757e-03
2.375133e+02	-9.764460e-03
2.388851e+02	-9.877455e-03
2.402649e+02	-9.991756e-03
2.416527e+02	-1.010738e-02
2.430484e+02	-1.022434e-02
2.444523e+02	-1.034265e-02
2.458642e+02	-1.046232e-02
2.472843e+02	-1.058338e-02
2.487126e+02	-1.070584e-02
2.501492e+02	-1.082972e-02
2.515940e+02	-1.095502e-02
2.530472e+02	-1.108178e-02
2.545088e+02	-1.121000e-02
2.559789e+02	-1.133970e-02
2.574574e+02	-1.147090e-02
2.589444e+02	-1.160361e-02
2.604401e+02	-1.173786e-02
2.619444e+02	-1.187366e-02
2.634574e+02	-1.201103e-02
2.649791e+02	-1.214998e-02
2.665096e+02	-1.229055e-02
2.680489e+02	-1.243273e-02
2.695972e+02	-1.257656e-02
2.711544e+02	-1.272205e-02
2.727205e+02	-1.286921e-02
2.742958e+02	-1.301808e-02
2.758801e+02	-1.316867e-02
2.774736e+02	-1.332100e-02
2.790762e+02	-1.347509e-02
2.806882e+02	-1.363095e-02
2.823094e+02	-1.378862e-02
2.839400e+02	-1.394811e-02
2.855800e+02	-1.410944e-02
2.872295e+02	-1.427263e-02
2.888886e+02	-1.443770e-02
2.905572e+02	-1.460469e-02
2.922354e+02	-1.477360e-02
2.939234e+02	-1.494446e-02
2.956211e+02	-1.511729e-02
2.973286e+02	-1.529212e-02
2.990459e+02	-1.546896e-02
3.007732e+02	-1.564785e-02
3.025104e+02	-1.582880e-02
3.042577e+02	-1.601185e-02
3.060151e+02	-1.619700e-02
3.077826e+02	-1.638429e-02
3.095604e+02	-1.657374e-02
3.113484e+02	-1.676538e-02
3.131467e+02	-1.695923e-02
3.149554e+02	-1.715532e-02
3.167746e+02	-1.735367e-02
3.186043e+02	-1.755431e-02
3.204445e+02	-1.775726e-02
3.222954e+02	-1.796256e-02
3.241570e+02	-1.817022e-02
3.260293e+02	-1.838028e-02
3.279124e+02	-1.859277e-02
3.298064e+02	-1.880770e-02
3.317114e+02	-1.902511e-02
3.336273e+02	-1.924503e-02
3.355544e+02	-1.946749e-02
3.374925e+02	-1.969251e-02
3.394418e+02	-1.992013e-02
3.414024e+02	-2.015037e-02
3.433744e+02	-2.038327e-02
3.453577e+02	-2.061885e-02
3.473525e+02	-2.085715e-02
3.493588e+02	-2.109820e-02
3.513766e+02	-2.134203e-02
3.534062e+02	-2.158866e-02
3.554474e+02	-2.183814e-02
3.575005e+02	-2.209050e-02
3.595654e+02	-2.234576e-02
3.616422e+02	-2.260396e-02
3.637311e+02	-2.286515e-02
3.658320e+02	-2.312934e-02
3.679450e+02	-2.339657e-02
3.700702e+02	-2.366689e-02
3.722077e+02	-2.394031e-02
3.743576e+02	-2.421689e-02
3.765199e+02	-2.449666e-02
3.786946e+02	-2.477965e-02
3.808820e+02	-2.506589e-02
3.830819e+02	-2.535544e-02
3.852946e+02	-2.564832e-02
3.875200e+02	-2.594457e-02
3.897583e+02	-2.624423e-02
3.920096e+02	-2.654734e-02
3.942738e+02	-2.685395e-02
3.965511e+02	-2.716408e-02
3.988416e+02	-2.747779e-02
4.011452e+02	-2.779510e-02
4.034622e+02	-2.811607e-02
4.057926e+02	-2.844073e-02
4.081365e+02	-2.876913e-02
4.104938e+02	-2.910131e-02
4.128648e+02	-2.943731e-02
4.152495e+02	-2.977717e-02
4.176480e+02	-3.012095e-02
4.200603e+02	-3.046868e-02
4.224866e+02	-3.082041e-02
4.249268e+02	-3.117619e-02
4.273812e+02	-3.153606e-02
4.298497e+02	-3.190006e-02
4.323325e+02	-3.226826e-02
4.348297e+02	-3.264069e-02
4.373412e+02	-3.301739e-02
4.398673e+02	-3.339843e-02
4.424079e+02	-3.378385e-02
4.449633e+02	-3.417370e-02
4.475334e+02	-3.456804e-02
4.501183e+02	-3.496690e-02
4.527182e+02	-3.537034e-02
4.553330e+02	-3.577843e-02
4.579630e+02	-3.619120e-02
4.606082e+02	-3.660871e-02
4.632687e+02	-3.703102e-02
4.659445e+02	-3.745818e-02
4.686358e+02	-3.789024e-02
4.713426e+02	-3.832727e-02
4.740650e+02	-3.876931e-02
4.768032e+02	-3.921643e-02
4.795572e+02	-3.966868e-02
4.823271e+02	-4.012613e-02
4.851130e+02	-4.058882e-02
4.879150e+02	-4.105682e-02
4.907332e+02	-4.153020e-02
4.935676e+02	-4.200900e-02
4.964185e+02	-4.249330e-02
4.992858e+02	-4.298316e-02
5.021696e+02	-4.347863e-02
5.050701e+02	-4.397978e-02
5.079874e+02	-4.448669e-02
5.109215e+02	-4.499940e-02
5.138726e+02	-4.551799e-02
5.168407e+02	-4.604253e-02
5.198259e+02	-4.657308e-02
5.228284e+02	-4.710971e-02
5.258482e+02	-4.765248e-02
5.288855e+02	-4.820148e-02
5.319403e+02	-4.875677e-02
5.350128e+02	-4.931841e-02
5.381030e+02	-4.988649e-02
5.412111e+02	-5.046108e-02
5.443371e+02	-5.104224e-02
5.474812e+02	-5.163005e-02
5.506434e+02	-5.222460e-02
5.538239e+02	-5.282595e-02
5.570228e+02	-5.343418e-02
5.602401e+02	-5.404937e-02
5.634760e+02	-5.467160e-02
5.667306e+02	-5.530095e-02
5.700040e+02	-5.593749e-02
5.732964e+02	-5.658131e-02
5.766077e+02	-5.723250e-02
5.799382e+02	-5.789113e-02
5.832879e+02	-5.855728e-02
5.866569e+02	-5.923105e-02
5.900454e+02	-5.991252e-02
5.934535e+02	-6.060177e-02
5.968813e+02	-6.129890e-02
6.003288e+02	-6.200399e-02
6.037963e+02	-6.271713e-02
6.072838e+02	-6.343841e-02
6.107914e+02	-6.416793e-02
6.143194e+02	-6.490577e-02
6.178676e+02	-6.565203e-02
6.214364e+02	-6.640681e-02
6.250258e+02	-6.717020e-02
6.286359e+02	-6.794229e-02
6.322669e+02	-6.872319e-02
6.359189e+02	-6.951299e-02
6.395919e+02	-7.031180e-02
6.432862e+02	-7.111970e-02
6.470017e+02	-7.193682e-02
6.507388e+02	-7.276324e-02
6.544974e+02	-7.359908e-02
6.582778e+02	-7.444443e-02
6.620800e+02	-7.529941e-02
6.659041e+02	-7.616413e-02
6.697504e+02	-7.703868e-02
6.736188e+02	-7.792319e-02
6.775096e+02	-7.881776e-02
6.814229e+02	-7.972251e-02
6.853587e+02	-8.063754e-02
6.893173e+02	-8.156298e-02
6.932988e+02	-8.249894e-02
6.973033e+02	-8.344553e-02
7.013309e+02	-8.440288e-02
