Frequency(Hz)	Magnitude(dB)
1.000000e+01	-2.280485e+00
1.005776e+01	-2.301213e+00
1.011585e+01	-2.321865e+00
1.017428e+01	-2.342616e+00
1.023305e+01	-2.363441e+00
1.029215e+01	-2.384696e+00
1.035160e+01	-2.405777e+00
1.041139e+01	-2.427309e+00
1.047153e+01	-2.448392e+00
1.053201e+01	-2.470249e+00
1.059284e+01	-2.492126e+00
1.065403e+01	-2.514015e+00
1.071556e+01	-2.536158e+00
1.077746e+01	-2.558089e+00
1.083971e+01	-2.580554e+00
1.090232e+01	-2.603064e+00
1.096529e+01	-2.625698e+00
1.102862e+01	-2.648482e+00
1.109232e+01	-2.671189e+00
1.115639e+01	-2.694294e+00
1.122083e+01	-2.717504e+00
1.128564e+01	-2.740958e+00
1.135083e+01	-2.764385e+00
1.141639e+01	-2.788116e+00
1.148233e+01	-2.811946e+00
1.154865e+01	-2.835705e+00
1.161536e+01	-2.859837e+00
1.168245e+01	-2.883960e+00
1.174992e+01	-2.908290e+00
1.181779e+01	-2.932915e+00
1.188605e+01	-2.957448e+00
1.195470e+01	-2.982265e+00
1.202375e+01	-3.006982e+00
1.209320e+01	-3.032115e+00
1.216305e+01	-3.057553e+00
1.223330e+01	-3.082571e+00
1.230396e+01	-3.108303e+00
1.237503e+01	-3.133885e+00
1.244651e+01	-3.159595e+00
1.251840e+01	-3.185464e+00
1.259070e+01	-3.211646e+00
1.266343e+01	-3.237969e+00
1.273657e+01	-3.264074e+00
1.281014e+01	-3.290763e+00
1.288413e+01	-3.317402e+00
1.295855e+01	-3.344147e+00
1.303339e+01	-3.370994e+00
1.310867e+01	-3.398321e+00
1.318439e+01	-3.425366e+00
1.326054e+01	-3.452902e+00
1.333713e+01	-3.480139e+00
1.341417e+01	-3.507959e+00
1.349165e+01	-3.535734e+00
1.356958e+01	-3.563469e+00
1.364795e+01	-3.591822e+00
1.372678e+01	-3.619753e+00
1.380607e+01	-3.648453e+00
1.388581e+01	-3.676908e+00
1.396602e+01	-3.705400e+00
1.404668e+01	-3.733906e+00
1.412782e+01	-3.763206e+00
1.420942e+01	-3.792333e+00
1.429149e+01	-3.821570e+00
1.437404e+01	-3.850636e+00
1.445706e+01	-3.880181e+00
1.454057e+01	-3.909895e+00
1.462455e+01	-3.939761e+00
1.470902e+01	-3.969800e+00
1.479398e+01	-3.999727e+00
1.487943e+01	-4.029768e+00
1.496537e+01	-4.060115e+00
1.505181e+01	-4.090605e+00
1.513875e+01	-4.121012e+00
1.522619e+01	-4.151565e+00
1.531414e+01	-4.182749e+00
1.540259e+01	-4.213843e+00
1.549156e+01	-4.244745e+00
1.558103e+01	-4.276211e+00
1.567103e+01	-4.307501e+00
1.576155e+01	-4.338994e+00
1.585258e+01	-4.370583e+00
1.594415e+01	-4.402328e+00
1.603624e+01	-4.434330e+00
1.612886e+01	-4.466595e+00
1.622202e+01	-4.498662e+00
1.631572e+01	-4.531102e+00
1.640996e+01	-4.563454e+00
1.650474e+01	-4.596179e+00
1.660008e+01	-4.628857e+00
1.669596e+01	-4.661764e+00
1.679239e+01	-4.694844e+00
1.688938e+01	-4.727751e+00
1.698694e+01	-4.761241e+00
1.708505e+01	-4.794650e+00
1.718373e+01	-4.828090e+00
1.728299e+01	-4.861280e+00
1.738281e+01	-4.895136e+00
1.748322e+01	-4.929135e+00
1.758420e+01	-4.963363e+00
1.768576e+01	-4.997191e+00
1.778792e+01	-5.031676e+00
1.789066e+01	-5.066265e+00
1.799399e+01	-5.100682e+00
1.809793e+01	-5.135280e+00
1.820246e+01	-5.169720e+00
1.830760e+01	-5.204916e+00
1.841334e+01	-5.239535e+00
1.851969e+01	-5.274778e+00
1.862666e+01	-5.310158e+00
1.873425e+01	-5.345616e+00
1.884246e+01	-5.381196e+00
1.895129e+01	-5.416712e+00
1.906075e+01	-5.452330e+00
1.917085e+01	-5.487708e+00
1.928158e+01	-5.524147e+00
1.939295e+01	-5.560252e+00
1.950496e+01	-5.596280e+00
1.961762e+01	-5.632709e+00
1.973093e+01	-5.669021e+00
1.984490e+01	-5.705488e+00
1.995952e+01	-5.742182e+00
2.007480e+01	-5.778696e+00
2.019076e+01	-5.815440e+00
2.030738e+01	-5.852663e+00
2.042467e+01	-5.889770e+00
2.054264e+01	-5.926859e+00
2.066130e+01	-5.964187e+00
2.078064e+01	-6.002228e+00
2.090066e+01	-6.039472e+00
2.102139e+01	-6.076603e+00
2.114280e+01	-6.114683e+00
2.126492e+01	-6.152219e+00
2.138775e+01	-6.190225e+00
2.151128e+01	-6.228382e+00
2.163553e+01	-6.266469e+00
2.176050e+01	-6.305068e+00
2.188619e+01	-6.343646e+00
2.201260e+01	-6.381800e+00
2.213974e+01	-6.420245e+00
2.226762e+01	-6.458668e+00
2.239624e+01	-6.497826e+00
2.252560e+01	-6.536346e+00
2.265571e+01	-6.575249e+00
2.278656e+01	-6.614262e+00
2.291818e+01	-6.653670e+00
2.305055e+01	-6.693527e+00
2.318369e+01	-6.732553e+00
2.331760e+01	-6.771770e+00
2.345228e+01	-6.811556e+00
2.358774e+01	-6.851066e+00
2.372398e+01	-6.890856e+00
2.386101e+01	-6.930577e+00
2.399883e+01	-6.970517e+00
2.413745e+01	-7.010780e+00
2.427686e+01	-7.050598e+00
2.441709e+01	-7.090753e+00
2.455812e+01	-7.130855e+00
2.469997e+01	-7.171572e+00
2.484263e+01	-7.212051e+00
2.498612e+01	-7.252943e+00
2.513044e+01	-7.293608e+00
2.527559e+01	-7.334159e+00
2.542158e+01	-7.374734e+00
2.556842e+01	-7.415733e+00
2.571610e+01	-7.456610e+00
2.586463e+01	-7.497637e+00
2.601403e+01	-7.539000e+00
2.616428e+01	-7.580448e+00
2.631541e+01	-7.621313e+00
2.646740e+01	-7.662865e+00
2.662028e+01	-7.704283e+00
2.677404e+01	-7.746209e+00
2.692868e+01	-7.788105e+00
2.708422e+01	-7.829195e+00
2.724066e+01	-7.871714e+00
2.739800e+01	-7.913570e+00
2.755625e+01	-7.955122e+00
2.771541e+01	-7.996981e+00
2.787550e+01	-8.039401e+00
2.803650e+01	-8.081485e+00
2.819844e+01	-8.123894e+00
2.836131e+01	-8.165807e+00
2.852513e+01	-8.208937e+00
2.868989e+01	-8.251353e+00
2.885560e+01	-8.294048e+00
2.902227e+01	-8.336419e+00
2.918990e+01	-8.378921e+00
2.935850e+01	-8.421425e+00
2.952807e+01	-8.464462e+00
2.969863e+01	-8.507460e+00
2.987016e+01	-8.550689e+00
3.004269e+01	-8.593891e+00
3.021622e+01	-8.637181e+00
3.039075e+01	-8.680099e+00
3.056628e+01	-8.723772e+00
3.074283e+01	-8.766327e+00
3.092040e+01	-8.810347e+00
3.109900e+01	-8.853376e+00
3.127862e+01	-8.897315e+00
3.145929e+01	-8.940966e+00
3.164099e+01	-8.984953e+00
3.182375e+01	-9.028029e+00
3.200756e+01	-9.071815e+00
3.219244e+01	-9.115819e+00
3.237838e+01	-9.159811e+00
3.256540e+01	-9.203898e+00
3.275349e+01	-9.248431e+00
3.294268e+01	-9.292169e+00
3.313295e+01	-9.336962e+00
3.332433e+01	-9.380216e+00
3.351681e+01	-9.424957e+00
3.371040e+01	-9.468771e+00
3.390511e+01	-9.513536e+00
3.410094e+01	-9.557951e+00
3.429791e+01	-9.602238e+00
3.449601e+01	-9.646992e+00
3.469526e+01	-9.691546e+00
3.489566e+01	-9.735956e+00
3.509721e+01	-9.780978e+00
3.529993e+01	-9.825512e+00
3.550382e+01	-9.870586e+00
3.570889e+01	-9.915288e+00
3.591515e+01	-9.960801e+00
3.612259e+01	-1.000581e+01
3.633123e+01	-1.005078e+01
3.654108e+01	-1.009629e+01
3.675214e+01	-1.014081e+01
3.696442e+01	-1.018660e+01
3.717792e+01	-1.023162e+01
3.739266e+01	-1.027694e+01
3.760864e+01	-1.032182e+01
3.782587e+01	-1.036728e+01
3.804435e+01	-1.041288e+01
3.826409e+01	-1.045802e+01
3.848510e+01	-1.050369e+01
3.870739e+01	-1.054969e+01
3.893096e+01	-1.059521e+01
3.915583e+01	-1.064067e+01
3.938199e+01	-1.068602e+01
3.960946e+01	-1.073221e+01
3.983824e+01	-1.077803e+01
4.006834e+01	-1.082408e+01
4.029978e+01	-1.087009e+01
4.053255e+01	-1.091604e+01
4.076666e+01	-1.096159e+01
4.100213e+01	-1.100804e+01
4.123896e+01	-1.105357e+01
4.147715e+01	-1.110015e+01
4.171672e+01	-1.114629e+01
4.195767e+01	-1.119299e+01
4.220002e+01	-1.123882e+01
4.244377e+01	-1.128444e+01
4.268892e+01	-1.133128e+01
4.293549e+01	-1.137729e+01
4.318348e+01	-1.142452e+01
4.343291e+01	-1.147058e+01
4.368377e+01	-1.151744e+01
4.393609e+01	-1.156327e+01
4.418986e+01	-1.160973e+01
4.444510e+01	-1.165649e+01
4.470182e+01	-1.170317e+01
4.496001e+01	-1.174975e+01
4.521970e+01	-1.179730e+01
4.548089e+01	-1.184361e+01
4.574358e+01	-1.188994e+01
4.600779e+01	-1.193705e+01
4.627353e+01	-1.198393e+01
4.654081e+01	-1.203075e+01
4.680963e+01	-1.207676e+01
4.708000e+01	-1.212410e+01
4.735193e+01	-1.217170e+01
4.762543e+01	-1.221913e+01
4.790051e+01	-1.226625e+01
4.817719e+01	-1.231269e+01
4.845545e+01	-1.235959e+01
4.873533e+01	-1.240667e+01
4.901682e+01	-1.245371e+01
4.929994e+01	-1.250130e+01
4.958470e+01	-1.254865e+01
4.987110e+01	-1.259576e+01
5.015915e+01	-1.264320e+01
5.044887e+01	-1.269002e+01
5.074026e+01	-1.273795e+01
5.103333e+01	-1.278601e+01
5.132810e+01	-1.283242e+01
5.162457e+01	-1.288069e+01
5.192275e+01	-1.292723e+01
5.222265e+01	-1.297454e+01
5.252429e+01	-1.302192e+01
5.282767e+01	-1.306974e+01
5.313280e+01	-1.311817e+01
5.343969e+01	-1.316528e+01
5.374836e+01	-1.321263e+01
5.405880e+01	-1.326021e+01
5.437105e+01	-1.330819e+01
5.468509e+01	-1.335600e+01
5.500095e+01	-1.340387e+01
5.531863e+01	-1.345179e+01
5.563815e+01	-1.349895e+01
5.595951e+01	-1.354745e+01
5.628273e+01	-1.359417e+01
5.660782e+01	-1.364282e+01
5.693479e+01	-1.368906e+01
5.726364e+01	-1.373782e+01
5.759439e+01	-1.378713e+01
5.792705e+01	-1.383308e+01
5.826164e+01	-1.388220e+01
5.859815e+01	-1.393036e+01
5.893662e+01	-1.397901e+01
5.927703e+01	-1.402595e+01
5.961941e+01	-1.407399e+01
5.996377e+01	-1.412171e+01
6.031012e+01	-1.417037e+01
6.065847e+01	-1.421839e+01
6.100883e+01	-1.426704e+01
6.136121e+01	-1.431463e+01
6.171563e+01	-1.436252e+01
6.207210e+01	-1.441114e+01
6.243063e+01	-1.445972e+01
6.279122e+01	-1.450719e+01
6.315390e+01	-1.455574e+01
6.351868e+01	-1.460399e+01
6.388556e+01	-1.465302e+01
6.425456e+01	-1.470119e+01
6.462569e+01	-1.474955e+01
6.499897e+01	-1.479741e+01
6.537440e+01	-1.484562e+01
6.575200e+01	-1.489488e+01
6.613178e+01	-1.494261e+01
6.651375e+01	-1.499146e+01
6.689793e+01	-1.503926e+01
6.728433e+01	-1.508843e+01
6.767297e+01	-1.513786e+01
6.806384e+01	-1.518450e+01
6.845698e+01	-1.523378e+01
6.885238e+01	-1.528230e+01
6.925007e+01	-1.533041e+01
6.965005e+01	-1.537960e+01
7.005235e+01	-1.542845e+01
7.045697e+01	-1.547594e+01
7.086393e+01	-1.552517e+01
7.127323e+01	-1.557355e+01
7.168490e+01	-1.562170e+01
7.209895e+01	-1.567080e+01
7.251539e+01	-1.572006e+01
7.293424e+01	-1.576855e+01
7.335551e+01	-1.581713e+01
7.377920e+01	-1.586624e+01
7.420535e+01	-1.591438e+01
7.463396e+01	-1.596313e+01
7.506504e+01	-1.601220e+01
7.549861e+01	-1.606012e+01
7.593469e+01	-1.611010e+01
7.637328e+01	-1.615804e+01
7.681441e+01	-1.620739e+01
7.725809e+01	-1.625523e+01
7.770433e+01	-1.630461e+01
7.815315e+01	-1.635465e+01
7.860456e+01	-1.640314e+01
7.905857e+01	-1.645145e+01
7.951521e+01	-1.650046e+01
7.997449e+01	-1.654958e+01
8.043642e+01	-1.659867e+01
8.090102e+01	-1.664747e+01
8.136830e+01	-1.669746e+01
8.183828e+01	-1.674613e+01
8.231097e+01	-1.679406e+01
8.278640e+01	-1.684293e+01
8.326457e+01	-1.689179e+01
8.374550e+01	-1.694172e+01
8.422921e+01	-1.698976e+01
8.471572e+01	-1.703760e+01
8.520503e+01	-1.708800e+01
8.569717e+01	-1.713836e+01
8.619215e+01	-1.718645e+01
8.669000e+01	-1.723462e+01
8.719071e+01	-1.728468e+01
8.769432e+01	-1.733421e+01
8.820084e+01	-1.738172e+01
8.871029e+01	-1.743231e+01
8.922267e+01	-1.748102e+01
8.973802e+01	-1.753081e+01
9.025634e+01	-1.757931e+01
9.077766e+01	-1.762755e+01
9.130199e+01	-1.767753e+01
9.182935e+01	-1.772721e+01
9.235975e+01	-1.777641e+01
9.289321e+01	-1.782517e+01
9.342976e+01	-1.787429e+01
9.396941e+01	-1.792411e+01
9.451217e+01	-1.797240e+01
9.505807e+01	-1.802229e+01
9.560712e+01	-1.807126e+01
9.615934e+01	-1.811991e+01
9.671476e+01	-1.817013e+01
9.727338e+01	-1.822039e+01
9.783522e+01	-1.826869e+01
9.840032e+01	-1.831666e+01
9.896867e+01	-1.836783e+01
9.954031e+01	-1.841662e+01
1.001153e+02	-1.846601e+01
1.006935e+02	-1.851629e+01
1.012751e+02	-1.856469e+01
1.018601e+02	-1.861486e+01
1.024484e+02	-1.866427e+01
1.030402e+02	-1.871263e+01
1.036353e+02	-1.876168e+01
1.042339e+02	-1.881169e+01
1.048360e+02	-1.886018e+01
1.054415e+02	-1.891129e+01
1.060505e+02	-1.895997e+01
1.066631e+02	-1.900821e+01
1.072791e+02	-1.905859e+01
1.078988e+02	-1.910682e+01
1.085220e+02	-1.915710e+01
1.091488e+02	-1.920820e+01
1.097793e+02	-1.925586e+01
1.104133e+02	-1.930464e+01
1.110511e+02	-1.935629e+01
1.116925e+02	-1.940340e+01
1.123376e+02	-1.945350e+01
1.129865e+02	-1.950342e+01
1.136391e+02	-1.955405e+01
1.142955e+02	-1.960175e+01
1.149556e+02	-1.965257e+01
1.156196e+02	-1.970146e+01
1.162874e+02	-1.975037e+01
1.169591e+02	-1.979939e+01
1.176347e+02	-1.984939e+01
1.183141e+02	-1.989979e+01
1.189975e+02	-1.995006e+01
1.196848e+02	-1.999825e+01
1.203761e+02	-2.004761e+01
1.210714e+02	-2.009937e+01
1.217707e+02	-2.014649e+01
1.224740e+02	-2.019547e+01
1.231814e+02	-2.024604e+01
1.238929e+02	-2.029603e+01
1.246085e+02	-2.034708e+01
1.253283e+02	-2.039593e+01
1.260522e+02	-2.044441e+01
1.267802e+02	-2.049332e+01
1.275125e+02	-2.054309e+01
1.282490e+02	-2.059415e+01
1.289898e+02	-2.064075e+01
1.297348e+02	-2.069203e+01
1.304842e+02	-2.074097e+01
1.312378e+02	-2.079134e+01
1.319959e+02	-2.084100e+01
1.327583e+02	-2.089009e+01
1.335251e+02	-2.094170e+01
1.342963e+02	-2.098979e+01
1.350720e+02	-2.103835e+01
1.358522e+02	-2.108775e+01
1.366368e+02	-2.114051e+01
1.374260e+02	-2.119066e+01
1.382198e+02	-2.123854e+01
1.390182e+02	-2.128940e+01
1.398211e+02	-2.133755e+01
1.406287e+02	-2.138747e+01
1.414410e+02	-2.143866e+01
1.422579e+02	-2.148750e+01
1.430796e+02	-2.153524e+01
1.439060e+02	-2.158672e+01
1.447372e+02	-2.163829e+01
1.455732e+02	-2.168742e+01
1.464141e+02	-2.173466e+01
1.472597e+02	-2.178493e+01
1.481103e+02	-2.183455e+01
1.489658e+02	-2.188338e+01
1.498262e+02	-2.193470e+01
1.506916e+02	-2.198294e+01
1.515620e+02	-2.203442e+01
1.524374e+02	-2.208331e+01
1.533179e+02	-2.213409e+01
1.542034e+02	-2.218290e+01
1.550941e+02	-2.223382e+01
1.559899e+02	-2.228158e+01
1.568909e+02	-2.232915e+01
1.577971e+02	-2.238414e+01
1.587085e+02	-2.243221e+01
1.596252e+02	-2.248221e+01
1.605472e+02	-2.253249e+01
1.614745e+02	-2.258039e+01
1.624072e+02	-2.263247e+01
1.633453e+02	-2.267886e+01
1.642887e+02	-2.272782e+01
1.652377e+02	-2.277868e+01
1.661921e+02	-2.283102e+01
1.671520e+02	-2.287997e+01
1.681175e+02	-2.293164e+01
1.690885e+02	-2.297852e+01
1.700651e+02	-2.302847e+01
1.710474e+02	-2.307751e+01
1.720354e+02	-2.313008e+01
1.730291e+02	-2.317916e+01
1.740285e+02	-2.322874e+01
1.750337e+02	-2.327825e+01
1.760446e+02	-2.332816e+01
1.770615e+02	-2.337859e+01
1.780842e+02	-2.342946e+01
1.791128e+02	-2.347768e+01
1.801473e+02	-2.352490e+01
1.811878e+02	-2.357783e+01
1.822344e+02	-2.362648e+01
1.832870e+02	-2.367912e+01
1.843456e+02	-2.372654e+01
1.854104e+02	-2.377616e+01
1.864813e+02	-2.382556e+01
1.875584e+02	-2.387795e+01
1.886418e+02	-2.392773e+01
1.897313e+02	-2.397580e+01
1.908272e+02	-2.402428e+01
1.919294e+02	-2.407693e+01
1.930380e+02	-2.412546e+01
1.941530e+02	-2.417585e+01
1.952744e+02	-2.422665e+01
1.964023e+02	-2.427460e+01
1.975367e+02	-2.432264e+01
1.986777e+02	-2.437735e+01
1.998252e+02	-2.442374e+01
2.009794e+02	-2.447275e+01
2.021403e+02	-2.452490e+01
2.033078e+02	-2.457547e+01
2.044821e+02	-2.462587e+01
2.056632e+02	-2.467473e+01
2.068511e+02	-2.472402e+01
2.080459e+02	-2.477363e+01
2.092475e+02	-2.482513e+01
2.104561e+02	-2.487386e+01
2.116717e+02	-2.492589e+01
2.128943e+02	-2.497206e+01
2.141240e+02	-2.501960e+01
2.153608e+02	-2.507436e+01
2.166047e+02	-2.512361e+01
2.178558e+02	-2.517447e+01
2.191141e+02	-2.521998e+01
2.203797e+02	-2.527283e+01
2.216526e+02	-2.532050e+01
2.229329e+02	-2.537421e+01
2.242205e+02	-2.542193e+01
2.255156e+02	-2.547135e+01
2.268182e+02	-2.552232e+01
2.281283e+02	-2.557318e+01
2.294459e+02	-2.562169e+01
2.307712e+02	-2.567356e+01
2.321041e+02	-2.572247e+01
2.334447e+02	-2.577242e+01
2.347931e+02	-2.582067e+01
2.361493e+02	-2.586972e+01
2.375133e+02	-2.592288e+01
2.388851e+02	-2.597145e+01
2.402649e+02	-2.602231e+01
2.416527e+02	-2.607003e+01
2.430484e+02	-2.612033e+01
2.444523e+02	-2.617441e+01
2.458642e+02	-2.621928e+01
2.472843e+02	-2.627210e+01
2.487126e+02	-2.632356e+01
2.501492e+02	-2.637256e+01
2.515940e+02	-2.642406e+01
2.530472e+02	-2.647019e+01
2.545088e+02	-2.652186e+01
2.559789e+02	-2.656783e+01
2.574574e+02	-2.662103e+01
2.589444e+02	-2.667394e+01
2.604401e+02	-2.671973e+01
2.619444e+02	-2.677225e+01
2.634574e+02	-2.681958e+01
2.649791e+02	-2.687265e+01
2.665096e+02	-2.692285e+01
2.680489e+02	-2.697191e+01
2.695972e+02	-2.701575e+01
2.711544e+02	-2.706889e+01
2.727205e+02	-2.711868e+01
2.742958e+02	-2.717414e+01
2.758801e+02	-2.721962e+01
2.774736e+02	-2.727181e+01
2.790762e+02	-2.732020e+01
2.806882e+02	-2.737204e+01
2.823094e+02	-2.742390e+01
2.839400e+02	-2.746912e+01
2.855800e+02	-2.752046e+01
2.872295e+02	-2.757039e+01
2.888886e+02	-2.762020e+01
2.905572e+02	-2.767318e+01
2.922354e+02	-2.772214e+01
2.939234e+02	-2.776767e+01
2.956211e+02	-2.782202e+01
2.973286e+02	-2.787257e+01
2.990459e+02	-2.792429e+01
3.007732e+02	-2.796897e+01
3.025104e+02	-2.802521e+01
3.042577e+02	-2.807235e+01
3.060151e+02	-2.811775e+01
3.077826e+02	-2.816976e+01
3.095604e+02	-2.822033e+01
3.113484e+02	-2.827090e+01
3.131467e+02	-2.832272e+01
3.149554e+02	-2.837462e+01
3.167746e+02	-2.841964e+01
3.186043e+02	-2.847056e+01
3.204445e+02	-2.852473e+01
3.222954e+02	-2.857097e+01
3.241570e+02	-2.862200e+01
3.260293e+02	-2.867237e+01
3.279124e+02	-2.872072e+01
3.298064e+02	-2.877590e+01
3.317114e+02	-2.882236e+01
3.336273e+02	-2.887424e+01
3.355544e+02	-2.891613e+01
3.374925e+02	-2.896849e+01
3.394418e+02	-2.902363e+01
3.414024e+02	-2.907208e+01
3.433744e+02	-2.912221e+01
3.453577e+02	-2.917358e+01
3.473525e+02	-2.922272e+01
3.493588e+02	-2.927157e+01
3.513766e+02	-2.932460e+01
3.534062e+02	-2.937155e+01
3.554474e+02	-2.942343e+01
3.575005e+02	-2.947445e+01
3.595654e+02	-2.952059e+01
3.616422e+02	-2.957571e+01
3.637311e+02	-2.962496e+01
3.658320e+02	-2.967961e+01
3.679450e+02	-2.972452e+01
3.700702e+02	-2.976975e+01
3.722077e+02	-2.981887e+01
3.743576e+02	-2.987529e+01
3.765199e+02	-2.992844e+01
3.786946e+02	-2.997570e+01
3.808820e+02	-3.001918e+01
3.830819e+02	-3.007070e+01
3.852946e+02	-3.012601e+01
3.875200e+02	-3.017090e+01
3.897583e+02	-3.022386e+01
3.920096e+02	-3.027495e+01
3.942738e+02	-3.032376e+01
3.965511e+02	-3.036996e+01
3.988416e+02	-3.042565e+01
4.011452e+02	-3.047361e+01
4.034622e+02	-3.052358e+01
4.057926e+02	-3.057442e+01
4.081365e+02	-3.062757e+01
4.104938e+02	-3.067808e+01
4.128648e+02	-3.072865e+01
4.152495e+02	-3.078298e+01
4.176480e+02	-3.082108e+01
4.200603e+02	-3.087770e+01
4.224866e+02	-3.092529e+01
4.249268e+02	-3.097366e+01
4.273812e+02	-3.102372e+01
4.298497e+02	-3.107269e+01
4.323325e+02	-3.112710e+01
4.348297e+02	-3.117374e+01
4.373412e+02	-3.122587e+01
4.398673e+02	-3.127700e+01
4.424079e+02	-3.132758e+01
4.449633e+02	-3.137612e+01
4.475334e+02	-3.142935e+01
4.501183e+02	-3.147730e+01
4.527182e+02	-3.152675e+01
4.553330e+02	-3.158254e+01
4.579630e+02	-3.163107e+01
4.606082e+02	-3.168308e+01
4.632687e+02	-3.172665e+01
4.659445e+02	-3.177651e+01
4.686358e+02	-3.182134e+01
4.713426e+02	-3.188272e+01
4.740650e+02	-3.193318e+01
4.768032e+02	-3.197474e+01
4.795572e+02	-3.203075e+01
4.823271e+02	-3.208453e+01
4.851130e+02	-3.212540e+01
4.879150e+02	-3.218575e+01
4.907332e+02	-3.222948e+01
4.935676e+02	-3.228267e+01
4.964185e+02	-3.233647e+01
4.992858e+02	-3.238043e+01
5.021696e+02	-3.243270e+01
5.050701e+02	-3.248340e+01
5.079874e+02	-3.252875e+01
5.109215e+02	-3.258287e+01
5.138726e+02	-3.263502e+01
5.168407e+02	-3.268840e+01
5.198259e+02	-3.272776e+01
5.228284e+02	-3.277660e+01
5.258482e+02	-3.283467e+01
5.288855e+02	-3.288416e+01
5.319403e+02	-3.293624e+01
5.350128e+02	-3.297783e+01
5.381030e+02	-3.303222e+01
5.412111e+02	-3.308347e+01
5.443371e+02	-3.312753e+01
5.474812e+02	-3.318109e+01
5.506434e+02	-3.323472e+01
5.538239e+02	-3.327937e+01
5.570228e+02	-3.333082e+01
5.602401e+02	-3.338233e+01
5.634760e+02	-3.343620e+01
5.667306e+02	-3.349052e+01
5.700040e+02	-3.354029e+01
5.732964e+02	-3.359352e+01
5.766077e+02	-3.363760e+01
5.799382e+02	-3.368855e+01
5.832879e+02	-3.374345e+01
5.866569e+02	-3.378344e+01
5.900454e+02	-3.383243e+01
5.934535e+02	-3.388937e+01
5.968813e+02	-3.394388e+01
6.003288e+02	-3.398680e+01
6.037963e+02	-3.403617e+01
6.072838e+02	-3.408973e+01
6.107914e+02	-3.414664e+01
6.143194e+02	-3.419538e+01
6.178676e+02	-3.424651e+01
6.214364e+02	-3.429256e+01
6.250258e+02	-3.433353e+01
6.286359e+02	-3.439567e+01
6.322669e+02	-3.444625e+01
6.359189e+02	-3.449142e+01
6.395919e+02	-3.453258e+01
6.432862e+02	-3.460368e+01
6.470017e+02	-3.464675e+01
6.507388e+02	-3.469432e+01
6.544974e+02	-3.474089e+01
6.582778e+02	-3.479820e+01
6.620800e+02	-3.484474e+01
6.659041e+02	-3.488621e+01
6.697504e+02	-3.494548e+01
6.736188e+02	-3.499684e+01
6.775096e+02	-3.503555e+01
6.814229e+02	-3.508799e+01
6.853587e+02	-3.515140e+01
6.893173e+02	-3.519510e+01
6.932988e+02	-3.525106e+01
6.973033e+02	-3.529837e+01
7.013309e+02	-3.535262e+01
