Frequency(Hz)	Magnitude(dB)
1.000000e+01	-1.916350e-05
1.005776e+01	-1.938552e-05
1.011585e+01	-1.961010e-05
1.017428e+01	-1.983729e-05
1.023305e+01	-2.006711e-05
1.029215e+01	-2.029959e-05
1.035160e+01	-2.053477e-05
1.041139e+01	-2.077267e-05
1.047153e+01	-2.101333e-05
1.053201e+01	-2.125677e-05
1.059284e+01	-2.150304e-05
1.065403e+01	-2.175215e-05
1.071556e+01	-2.200416e-05
1.077746e+01	-2.225908e-05
1.083971e+01	-2.251696e-05
1.090232e+01	-2.277782e-05
1.096529e+01	-2.304171e-05
1.102862e+01	-2.330865e-05
1.109232e+01	-2.357869e-05
1.115639e+01	-2.385186e-05
1.122083e+01	-2.412819e-05
1.128564e+01	-2.440772e-05
1.135083e+01	-2.469049e-05
1.141639e+01	-2.497653e-05
1.148233e+01	-2.526589e-05
1.154865e+01	-2.555860e-05
1.161536e+01	-2.585471e-05
1.168245e+01	-2.615424e-05
1.174992e+01	-2.645724e-05
1.181779e+01	-2.676375e-05
1.188605e+01	-2.707382e-05
1.195470e+01	-2.738748e-05
1.202375e+01	-2.770477e-05
1.209320e+01	-2.802573e-05
1.216305e+01	-2.835042e-05
1.223330e+01	-2.867886e-05
1.230396e+01	-2.901112e-05
1.237503e+01	-2.934722e-05
1.244651e+01	-2.968721e-05
1.251840e+01	-3.003115e-05
1.259070e+01	-3.037906e-05
1.266343e+01	-3.073101e-05
1.273657e+01	-3.108704e-05
1.281014e+01	-3.144719e-05
1.288413e+01	-3.181151e-05
1.295855e+01	-3.218006e-05
1.303339e+01	-3.255287e-05
1.310867e+01	-3.293000e-05
1.318439e+01	-3.331150e-05
1.326054e+01	-3.369743e-05
1.333713e+01	-3.408782e-05
1.341417e+01	-3.448273e-05
1.349165e+01	-3.488222e-05
1.356958e+01	-3.528634e-05
1.364795e+01	-3.569514e-05
1.372678e+01	-3.610868e-05
1.380607e+01	-3.652701e-05
1.388581e+01	-3.695018e-05
1.396602e+01	-3.737826e-05
1.404668e+01	-3.781129e-05
1.412782e+01	-3.824935e-05
1.420942e+01	-3.869247e-05
1.429149e+01	-3.914073e-05
1.437404e+01	-3.959419e-05
1.445706e+01	-4.005290e-05
1.454057e+01	-4.051692e-05
1.462455e+01	-4.098632e-05
1.470902e+01	-4.146115e-05
1.479398e+01	-4.194149e-05
1.487943e+01	-4.242739e-05
1.496537e+01	-4.291892e-05
1.505181e+01	-4.341615e-05
1.513875e+01	-4.391913e-05
1.522619e+01	-4.442794e-05
1.531414e+01	-4.494265e-05
1.540259e+01	-4.546332e-05
1.549156e+01	-4.599002e-05
1.558103e+01	-4.652283e-05
1.567103e+01	-4.706181e-05
1.576155e+01	-4.760703e-05
1.585258e+01	-4.815856e-05
1.594415e+01	-4.871649e-05
1.603624e+01	-4.928088e-05
1.612886e+01	-4.985181e-05
1.622202e+01	-5.042936e-05
1.631572e+01	-5.101359e-05
1.640996e+01	-5.160459e-05
1.650474e+01	-5.220244e-05
1.660008e+01	-5.280722e-05
1.669596e+01	-5.341900e-05
1.679239e+01	-5.403787e-05
1.688938e+01	-5.466391e-05
1.698694e+01	-5.529721e-05
1.708505e+01	-5.593784e-05
1.718373e+01	-5.658589e-05
1.728299e+01	-5.724145e-05
1.738281e+01	-5.790460e-05
1.748322e+01	-5.857544e-05
1.758420e+01	-5.925404e-05
1.768576e+01	-5.994051e-05
1.778792e+01	-6.063494e-05
1.789066e+01	-6.133740e-05
1.799399e+01	-6.204801e-05
1.809793e+01	-6.276685e-05
1.820246e+01	-6.349402e-05
1.830760e+01	-6.422961e-05
1.841334e+01	-6.497372e-05
1.851969e+01	-6.572645e-05
1.862666e+01	-6.648790e-05
1.873425e+01	-6.725818e-05
1.884246e+01	-6.803738e-05
1.895129e+01	-6.882560e-05
1.906075e+01	-6.962296e-05
1.917085e+01	-7.042956e-05
1.928158e+01	-7.124550e-05
1.939295e+01	-7.207089e-05
1.950496e+01	-7.290584e-05
1.961762e+01	-7.375047e-05
1.973093e+01	-7.460488e-05
1.984490e+01	-7.546919e-05
1.995952e+01	-7.634352e-05
2.007480e+01	-7.722797e-05
2.019076e+01	-7.812267e-05
2.030738e+01	-7.902774e-05
2.042467e+01	-7.994329e-05
2.054264e+01	-8.086944e-05
2.066130e+01	-8.180633e-05
2.078064e+01	-8.275407e-05
2.090066e+01	-8.371279e-05
2.102139e+01	-8.468261e-05
2.114280e+01	-8.566368e-05
2.126492e+01	-8.665610e-05
2.138775e+01	-8.766003e-05
2.151128e+01	-8.867559e-05
2.163553e+01	-8.970291e-05
2.176050e+01	-9.074213e-05
2.188619e+01	-9.179339e-05
2.201260e+01	-9.285683e-05
2.213974e+01	-9.393259e-05
2.226762e+01	-9.502082e-05
2.239624e+01	-9.612165e-05
2.252560e+01	-9.723523e-05
2.265571e+01	-9.836171e-05
2.278656e+01	-9.950125e-05
2.291818e+01	-1.006540e-04
2.305055e+01	-1.018201e-04
2.318369e+01	-1.029997e-04
2.331760e+01	-1.041929e-04
2.345228e+01	-1.054000e-04
2.358774e+01	-1.066211e-04
2.372398e+01	-1.078563e-04
2.386101e+01	-1.091059e-04
2.399883e+01	-1.103699e-04
2.413745e+01	-1.116485e-04
2.427686e+01	-1.129420e-04
2.441709e+01	-1.142504e-04
2.455812e+01	-1.155740e-04
2.469997e+01	-1.169130e-04
2.484263e+01	-1.182674e-04
2.498612e+01	-1.196376e-04
2.513044e+01	-1.210236e-04
2.527559e+01	-1.224256e-04
2.542158e+01	-1.238440e-04
2.556842e+01	-1.252787e-04
2.571610e+01	-1.267301e-04
2.586463e+01	-1.281983e-04
2.601403e+01	-1.296834e-04
2.616428e+01	-1.311858e-04
2.631541e+01	-1.327056e-04
2.646740e+01	-1.342431e-04
2.662028e+01	-1.357983e-04
2.677404e+01	-1.373715e-04
2.692868e+01	-1.389630e-04
2.708422e+01	-1.405729e-04
2.724066e+01	-1.422014e-04
2.739800e+01	-1.438488e-04
2.755625e+01	-1.455153e-04
2.771541e+01	-1.472011e-04
2.787550e+01	-1.489065e-04
2.803650e+01	-1.506316e-04
2.819844e+01	-1.523766e-04
2.836131e+01	-1.541419e-04
2.852513e+01	-1.559277e-04
2.868989e+01	-1.577341e-04
2.885560e+01	-1.595615e-04
2.902227e+01	-1.614100e-04
2.918990e+01	-1.632800e-04
2.935850e+01	-1.651716e-04
2.952807e+01	-1.670851e-04
2.969863e+01	-1.690208e-04
2.987016e+01	-1.709789e-04
3.004269e+01	-1.729597e-04
3.021622e+01	-1.749634e-04
3.039075e+01	-1.769904e-04
3.056628e+01	-1.790408e-04
3.074283e+01	-1.811150e-04
3.092040e+01	-1.832133e-04
3.109900e+01	-1.853358e-04
3.127862e+01	-1.874829e-04
3.145929e+01	-1.896549e-04
3.164099e+01	-1.918521e-04
3.182375e+01	-1.940747e-04
3.200756e+01	-1.963230e-04
3.219244e+01	-1.985974e-04
3.237838e+01	-2.008982e-04
3.256540e+01	-2.032256e-04
3.275349e+01	-2.055800e-04
3.294268e+01	-2.079616e-04
3.313295e+01	-2.103708e-04
3.332433e+01	-2.128080e-04
3.351681e+01	-2.152734e-04
3.371040e+01	-2.177673e-04
3.390511e+01	-2.202901e-04
3.410094e+01	-2.228422e-04
3.429791e+01	-2.254238e-04
3.449601e+01	-2.280353e-04
3.469526e+01	-2.306771e-04
3.489566e+01	-2.333495e-04
3.509721e+01	-2.360529e-04
3.529993e+01	-2.387875e-04
3.550382e+01	-2.415539e-04
3.570889e+01	-2.443523e-04
3.591515e+01	-2.471831e-04
3.612259e+01	-2.500467e-04
3.633123e+01	-2.529434e-04
3.654108e+01	-2.558738e-04
3.675214e+01	-2.588381e-04
3.696442e+01	-2.618367e-04
3.717792e+01	-2.648700e-04
3.739266e+01	-2.679385e-04
3.760864e+01	-2.710426e-04
3.782587e+01	-2.741826e-04
3.804435e+01	-2.773590e-04
3.826409e+01	-2.805721e-04
3.848510e+01	-2.838225e-04
3.870739e+01	-2.871106e-04
3.893096e+01	-2.904367e-04
3.915583e+01	-2.938014e-04
3.938199e+01	-2.972051e-04
3.960946e+01	-3.006482e-04
3.983824e+01	-3.041311e-04
4.006834e+01	-3.076544e-04
4.029978e+01	-3.112186e-04
4.053255e+01	-3.148240e-04
4.076666e+01	-3.184712e-04
4.100213e+01	-3.221606e-04
4.123896e+01	-3.258928e-04
4.147715e+01	-3.296682e-04
4.171672e+01	-3.334874e-04
4.195767e+01	-3.373508e-04
4.220002e+01	-3.412589e-04
4.244377e+01	-3.452123e-04
4.268892e+01	-3.492116e-04
4.293549e+01	-3.532571e-04
4.318348e+01	-3.573495e-04
4.343291e+01	-3.614893e-04
4.368377e+01	-3.656771e-04
4.393609e+01	-3.699134e-04
4.418986e+01	-3.741988e-04
4.444510e+01	-3.785338e-04
4.470182e+01	-3.829190e-04
4.496001e+01	-3.873550e-04
4.521970e+01	-3.918425e-04
4.548089e+01	-3.963818e-04
4.574358e+01	-4.009738e-04
4.600779e+01	-4.056190e-04
4.627353e+01	-4.103180e-04
4.654081e+01	-4.150714e-04
4.680963e+01	-4.198799e-04
4.708000e+01	-4.247441e-04
4.735193e+01	-4.296646e-04
4.762543e+01	-4.346422e-04
4.790051e+01	-4.396773e-04
4.817719e+01	-4.447709e-04
4.845545e+01	-4.499234e-04
4.873533e+01	-4.551356e-04
4.901682e+01	-4.604082e-04
4.929994e+01	-4.657419e-04
4.958470e+01	-4.711373e-04
4.987110e+01	-4.765953e-04
5.015915e+01	-4.821165e-04
5.044887e+01	-4.877016e-04
5.074026e+01	-4.933514e-04
5.103333e+01	-4.990667e-04
5.132810e+01	-5.048482e-04
5.162457e+01	-5.106967e-04
5.192275e+01	-5.166129e-04
5.222265e+01	-5.225976e-04
5.252429e+01	-5.286517e-04
5.282767e+01	-5.347759e-04
5.313280e+01	-5.409710e-04
5.343969e+01	-5.472380e-04
5.374836e+01	-5.535775e-04
5.405880e+01	-5.599904e-04
5.437105e+01	-5.664776e-04
5.468509e+01	-5.730400e-04
5.500095e+01	-5.796784e-04
5.531863e+01	-5.863936e-04
5.563815e+01	-5.931867e-04
5.595951e+01	-6.000585e-04
5.628273e+01	-6.070098e-04
5.660782e+01	-6.140417e-04
5.693479e+01	-6.211550e-04
5.726364e+01	-6.283508e-04
5.759439e+01	-6.356298e-04
5.792705e+01	-6.429933e-04
5.826164e+01	-6.504419e-04
5.859815e+01	-6.579769e-04
5.893662e+01	-6.655992e-04
5.927703e+01	-6.733097e-04
5.961941e+01	-6.811096e-04
5.996377e+01	-6.889998e-04
6.031012e+01	-6.969814e-04
6.065847e+01	-7.050555e-04
6.100883e+01	-7.132231e-04
6.136121e+01	-7.214853e-04
6.171563e+01	-7.298432e-04
6.207210e+01	-7.382979e-04
6.243063e+01	-7.468506e-04
6.279122e+01	-7.555023e-04
6.315390e+01	-7.642542e-04
6.351868e+01	-7.731075e-04
6.388556e+01	-7.820634e-04
6.425456e+01	-7.911230e-04
6.462569e+01	-8.002875e-04
6.499897e+01	-8.095582e-04
6.537440e+01	-8.189363e-04
6.575200e+01	-8.284229e-04
6.613178e+01	-8.380195e-04
6.651375e+01	-8.477273e-04
6.689793e+01	-8.575475e-04
6.728433e+01	-8.674814e-04
6.767297e+01	-8.775304e-04
6.806384e+01	-8.876958e-04
6.845698e+01	-8.979789e-04
6.885238e+01	-9.083811e-04
6.925007e+01	-9.189039e-04
6.965005e+01	-9.295485e-04
7.005235e+01	-9.403164e-04
7.045697e+01	-9.512090e-04
7.086393e+01	-9.622278e-04
7.127323e+01	-9.733742e-04
7.168490e+01	-9.846498e-04
7.209895e+01	-9.960559e-04
7.251539e+01	-1.007594e-03
7.293424e+01	-1.019266e-03
7.335551e+01	-1.031073e-03
7.377920e+01	-1.043017e-03
7.420535e+01	-1.055099e-03
7.463396e+01	-1.067321e-03
7.506504e+01	-1.079685e-03
7.549861e+01	-1.092192e-03
7.593469e+01	-1.104843e-03
7.637328e+01	-1.117642e-03
7.681441e+01	-1.130588e-03
7.725809e+01	-1.143685e-03
7.770433e+01	-1.156933e-03
7.815315e+01	-1.170334e-03
7.860456e+01	-1.183891e-03
7.905857e+01	-1.197605e-03
7.951521e+01	-1.211478e-03
7.997449e+01	-1.225511e-03
8.043642e+01	-1.239707e-03
8.090102e+01	-1.254067e-03
8.136830e+01	-1.268594e-03
8.183828e+01	-1.283288e-03
8.231097e+01	-1.298154e-03
8.278640e+01	-1.313191e-03
8.326457e+01	-1.328402e-03
8.374550e+01	-1.343790e-03
8.422921e+01	-1.359355e-03
8.471572e+01	-1.375101e-03
8.520503e+01	-1.391030e-03
8.569717e+01	-1.407143e-03
8.619215e+01	-1.423442e-03
8.669000e+01	-1.439930e-03
8.719071e+01	-1.456609e-03
8.769432e+01	-1.473482e-03
8.820084e+01	-1.490549e-03
8.871029e+01	-1.507815e-03
8.922267e+01	-1.525280e-03
8.973802e+01	-1.542948e-03
9.025634e+01	-1.560820e-03
9.077766e+01	-1.578899e-03
9.130199e+01	-1.597188e-03
9.182935e+01	-1.615688e-03
9.235975e+01	-1.634403e-03
9.289321e+01	-1.653334e-03
9.342976e+01	-1.672485e-03
9.396941e+01	-1.691858e-03
9.451217e+01	-1.711454e-03
9.505807e+01	-1.731278e-03
9.560712e+01	-1.751331e-03
9.615934e+01	-1.771617e-03
9.671476e+01	-1.792137e-03
9.727338e+01	-1.812895e-03
9.783522e+01	-1.833894e-03
9.840032e+01	-1.855135e-03
9.896867e+01	-1.876623e-03
9.954031e+01	-1.898359e-03
1.001153e+02	-1.920347e-03
1.006935e+02	-1.942590e-03
1.012751e+02	-1.965091e-03
1.018601e+02	-1.987851e-03
1.024484e+02	-2.010876e-03
1.030402e+02	-2.034167e-03
1.036353e+02	-2.057728e-03
1.042339e+02	-2.081561e-03
1.048360e+02	-2.105671e-03
1.054415e+02	-2.130060e-03
1.060505e+02	-2.154731e-03
1.066631e+02	-2.179688e-03
1.072791e+02	-2.204934e-03
1.078988e+02	-2.230472e-03
1.085220e+02	-2.256306e-03
1.091488e+02	-2.282439e-03
1.097793e+02	-2.308874e-03
1.104133e+02	-2.335616e-03
1.110511e+02	-2.362667e-03
1.116925e+02	-2.390032e-03
1.123376e+02	-2.417714e-03
1.129865e+02	-2.445715e-03
1.136391e+02	-2.474042e-03
1.142955e+02	-2.502696e-03
1.149556e+02	-2.531682e-03
1.156196e+02	-2.561003e-03
1.162874e+02	-2.590664e-03
1.169591e+02	-2.620669e-03
1.176347e+02	-2.651021e-03
1.183141e+02	-2.681724e-03
1.189975e+02	-2.712783e-03
1.196848e+02	-2.744201e-03
1.203761e+02	-2.775983e-03
1.210714e+02	-2.808133e-03
1.217707e+02	-2.840656e-03
1.224740e+02	-2.873555e-03
1.231814e+02	-2.906834e-03
1.238929e+02	-2.940499e-03
1.246085e+02	-2.974554e-03
1.253283e+02	-3.009003e-03
1.260522e+02	-3.043851e-03
1.267802e+02	-3.079102e-03
1.275125e+02	-3.114762e-03
1.282490e+02	-3.150834e-03
1.289898e+02	-3.187324e-03
1.297348e+02	-3.224236e-03
1.304842e+02	-3.261576e-03
1.312378e+02	-3.299347e-03
1.319959e+02	-3.337557e-03
1.327583e+02	-3.376208e-03
1.335251e+02	-3.415307e-03
1.342963e+02	-3.454858e-03
1.350720e+02	-3.494868e-03
1.358522e+02	-3.535340e-03
1.366368e+02	-3.576281e-03
1.374260e+02	-3.617696e-03
1.382198e+02	-3.659590e-03
1.390182e+02	-3.701969e-03
1.398211e+02	-3.744839e-03
1.406287e+02	-3.788205e-03
1.414410e+02	-3.832073e-03
1.422579e+02	-3.876449e-03
1.430796e+02	-3.921338e-03
1.439060e+02	-3.966747e-03
1.447372e+02	-4.012682e-03
1.455732e+02	-4.059148e-03
1.464141e+02	-4.106152e-03
1.472597e+02	-4.153700e-03
1.481103e+02	-4.201798e-03
1.489658e+02	-4.250453e-03
1.498262e+02	-4.299672e-03
1.506916e+02	-4.349459e-03
1.515620e+02	-4.399824e-03
1.524374e+02	-4.450770e-03
1.533179e+02	-4.502307e-03
1.542034e+02	-4.554440e-03
1.550941e+02	-4.607176e-03
1.559899e+02	-4.660523e-03
1.568909e+02	-4.714487e-03
1.577971e+02	-4.769076e-03
1.587085e+02	-4.824296e-03
1.596252e+02	-4.880155e-03
1.605472e+02	-4.936661e-03
1.614745e+02	-4.993820e-03
1.624072e+02	-5.051641e-03
1.633453e+02	-5.110131e-03
1.642887e+02	-5.169298e-03
1.652377e+02	-5.229150e-03
1.661921e+02	-5.289694e-03
1.671520e+02	-5.350938e-03
1.681175e+02	-5.412892e-03
1.690885e+02	-5.475562e-03
1.700651e+02	-5.538957e-03
1.710474e+02	-5.603086e-03
1.720354e+02	-5.667957e-03
1.730291e+02	-5.733578e-03
1.740285e+02	-5.799959e-03
1.750337e+02	-5.867107e-03
1.760446e+02	-5.935033e-03
1.770615e+02	-6.003744e-03
1.780842e+02	-6.073250e-03
1.791128e+02	-6.143560e-03
1.801473e+02	-6.214684e-03
1.811878e+02	-6.286630e-03
1.822344e+02	-6.359409e-03
1.832870e+02	-6.433030e-03
1.843456e+02	-6.507502e-03
1.854104e+02	-6.582836e-03
1.864813e+02	-6.659041e-03
1.875584e+02	-6.736128e-03
1.886418e+02	-6.814107e-03
1.897313e+02	-6.892987e-03
1.908272e+02	-6.972780e-03
1.919294e+02	-7.053495e-03
1.930380e+02	-7.135145e-03
1.941530e+02	-7.217738e-03
1.952744e+02	-7.301287e-03
1.964023e+02	-7.385802e-03
1.975367e+02	-7.471295e-03
1.986777e+02	-7.557776e-03
1.998252e+02	-7.645258e-03
2.009794e+02	-7.733751e-03
2.021403e+02	-7.823268e-03
2.033078e+02	-7.913819e-03
2.044821e+02	-8.005418e-03
2.056632e+02	-8.098077e-03
2.068511e+02	-8.191806e-03
2.080459e+02	-8.286619e-03
2.092475e+02	-8.382529e-03
2.104561e+02	-8.479548e-03
2.116717e+02	-8.577688e-03
2.128943e+02	-8.676964e-03
2.141240e+02	-8.777387e-03
2.153608e+02	-8.878971e-03
2.166047e+02	-8.981729e-03
2.178558e+02	-9.085676e-03
2.191141e+02	-9.190824e-03
2.203797e+02	-9.297188e-03
2.216526e+02	-9.404781e-03
2.229329e+02	-9.513618e-03
2.242205e+02	-9.623713e-03
2.255156e+02	-9.735081e-03
2.268182e+02	-9.847736e-03
2.281283e+02	-9.961694e-03
2.294459e+02	-1.007697e-02
2.307712e+02	-1.019358e-02
2.321041e+02	-1.031153e-02
2.334447e+02	-1.043085e-02
2.347931e+02	-1.055154e-02
2.361493e+02	-1.067364e-02
2.375133e+02	-1.079714e-02
2.388851e+02	-1.092207e-02
2.402649e+02	-1.104844e-02
2.416527e+02	-1.117628e-02
2.430484e+02	-1.130559e-02
2.444523e+02	-1.143639e-02
2.458642e+02	-1.156871e-02
2.472843e+02	-1.170255e-02
2.487126e+02	-1.183795e-02
2.501492e+02	-1.197490e-02
2.515940e+02	-1.211344e-02
2.530472e+02	-1.225358e-02
2.545088e+02	-1.239534e-02
2.559789e+02	-1.253873e-02
2.574574e+02	-1.268378e-02
2.589444e+02	-1.283051e-02
2.604401e+02	-1.297893e-02
2.619444e+02	-1.312907e-02
2.634574e+02	-1.328094e-02
2.649791e+02	-1.343456e-02
2.665096e+02	-1.358996e-02
2.680489e+02	-1.374716e-02
2.695972e+02	-1.390616e-02
2.711544e+02	-1.406701e-02
2.727205e+02	-1.422971e-02
2.742958e+02	-1.439429e-02
2.758801e+02	-1.456077e-02
2.774736e+02	-1.472918e-02
2.790762e+02	-1.489952e-02
2.806882e+02	-1.507184e-02
2.823094e+02	-1.524614e-02
2.839400e+02	-1.542246e-02
2.855800e+02	-1.560081e-02
2.872295e+02	-1.578122e-02
2.888886e+02	-1.596371e-02
2.905572e+02	-1.614831e-02
2.922354e+02	-1.633504e-02
2.939234e+02	-1.652392e-02
2.956211e+02	-1.671499e-02
2.973286e+02	-1.690826e-02
2.990459e+02	-1.710376e-02
3.007732e+02	-1.730151e-02
3.025104e+02	-1.750155e-02
3.042577e+02	-1.770390e-02
3.060151e+02	-1.790858e-02
3.077826e+02	-1.811562e-02
3.095604e+02	-1.832505e-02
3.113484e+02	-1.853689e-02
3.131467e+02	-1.875118e-02
3.149554e+02	-1.896794e-02
3.167746e+02	-1.918721e-02
3.186043e+02	-1.940900e-02
3.204445e+02	-1.963335e-02
3.222954e+02	-1.986028e-02
3.241570e+02	-2.008983e-02
3.260293e+02	-2.032203e-02
3.279124e+02	-2.055691e-02
3.298064e+02	-2.079450e-02
3.317114e+02	-2.103482e-02
3.336273e+02	-2.127792e-02
3.355544e+02	-2.152381e-02
3.374925e+02	-2.177254e-02
3.394418e+02	-2.202414e-02
3.414024e+02	-2.227864e-02
3.433744e+02	-2.253608e-02
3.453577e+02	-2.279647e-02
3.473525e+02	-2.305987e-02
3.493588e+02	-2.332631e-02
3.513766e+02	-2.359581e-02
3.534062e+02	-2.386842e-02
3.554474e+02	-2.414418e-02
3.575005e+02	-2.442310e-02
3.595654e+02	-2.470524e-02
3.616422e+02	-2.499064e-02
3.637311e+02	-2.527931e-02
3.658320e+02	-2.557132e-02
3.679450e+02	-2.586668e-02
3.700702e+02	-2.616545e-02
3.722077e+02	-2.646766e-02
3.743576e+02	-2.677334e-02
3.765199e+02	-2.708255e-02
3.786946e+02	-2.739532e-02
3.808820e+02	-2.771168e-02
3.830819e+02	-2.803169e-02
3.852946e+02	-2.835538e-02
3.875200e+02	-2.868280e-02
3.897583e+02	-2.901398e-02
3.920096e+02	-2.934898e-02
3.942738e+02	-2.968783e-02
3.965511e+02	-3.003058e-02
3.988416e+02	-3.037727e-02
4.011452e+02	-3.072795e-02
4.034622e+02	-3.108267e-02
4.057926e+02	-3.144146e-02
4.081365e+02	-3.180438e-02
4.104938e+02	-3.217147e-02
4.128648e+02	-3.254279e-02
4.152495e+02	-3.291837e-02
4.176480e+02	-3.329828e-02
4.200603e+02	-3.368255e-02
4.224866e+02	-3.407123e-02
4.249268e+02	-3.446439e-02
4.273812e+02	-3.486206e-02
4.298497e+02	-3.526430e-02
4.323325e+02	-3.567117e-02
4.348297e+02	-3.608271e-02
4.373412e+02	-3.649897e-02
4.398673e+02	-3.692002e-02
4.424079e+02	-3.734591e-02
4.449633e+02	-3.777668e-02
4.475334e+02	-3.821241e-02
4.501183e+02	-3.865313e-02
4.527182e+02	-3.909892e-02
4.553330e+02	-3.954982e-02
4.579630e+02	-4.000590e-02
4.606082e+02	-4.046722e-02
4.632687e+02	-4.093383e-02
4.659445e+02	-4.140579e-02
4.686358e+02	-4.188317e-02
4.713426e+02	-4.236603e-02
4.740650e+02	-4.285443e-02
4.768032e+02	-4.334842e-02
4.795572e+02	-4.384809e-02
4.823271e+02	-4.435348e-02
4.851130e+02	-4.486467e-02
4.879150e+02	-4.538172e-02
4.907332e+02	-4.590469e-02
4.935676e+02	-4.643366e-02
4.964185e+02	-4.696870e-02
4.992858e+02	-4.750986e-02
5.021696e+02	-4.805723e-02
5.050701e+02	-4.861086e-02
5.079874e+02	-4.917084e-02
5.109215e+02	-4.973723e-02
5.138726e+02	-5.031011e-02
5.168407e+02	-5.088954e-02
5.198259e+02	-5.147561e-02
5.228284e+02	-5.206839e-02
5.258482e+02	-5.266796e-02
5.288855e+02	-5.327438e-02
5.319403e+02	-5.388775e-02
5.350128e+02	-5.450813e-02
5.381030e+02	-5.513561e-02
5.412111e+02	-5.577026e-02
5.443371e+02	-5.641218e-02
5.474812e+02	-5.706143e-02
5.506434e+02	-5.771811e-02
5.538239e+02	-5.838229e-02
5.570228e+02	-5.905406e-02
5.602401e+02	-5.973351e-02
5.634760e+02	-6.042072e-02
5.667306e+02	-6.111578e-02
5.700040e+02	-6.181878e-02
5.732964e+02	-6.252981e-02
5.766077e+02	-6.324896e-02
5.799382e+02	-6.397632e-02
5.832879e+02	-6.471198e-02
5.866569e+02	-6.545603e-02
5.900454e+02	-6.620858e-02
5.934535e+02	-6.696971e-02
5.968813e+02	-6.773952e-02
6.003288e+02	-6.851811e-02
6.037963e+02	-6.930557e-02
6.072838e+02	-7.010202e-02
6.107914e+02	-7.090754e-02
6.143194e+02	-7.172224e-02
6.178676e+02	-7.254622e-02
6.214364e+02	-7.337959e-02
6.250258e+02	-7.422245e-02
6.286359e+02	-7.507491e-02
6.322669e+02	-7.593707e-02
6.359189e+02	-7.680905e-02
6.395919e+02	-7.769095e-02
6.432862e+02	-7.858288e-02
6.470017e+02	-7.948496e-02
6.507388e+02	-8.039730e-02
6.544974e+02	-8.132001e-02
6.582778e+02	-8.225322e-02
6.620800e+02	-8.319702e-02
6.659041e+02	-8.415156e-02
6.697504e+02	-8.511693e-02
6.736188e+02	-8.609327e-02
6.775096e+02	-8.708070e-02
6.814229e+02	-8.807934e-02
6.853587e+02	-8.908931e-02
6.893173e+02	-9.011074e-02
6.932988e+02	-9.114376e-02
6.973033e+02	-9.218850e-02
7.013309e+02	-9.324509e-02
