Frequency(Hz)	Magnitude(dB)
1.000000e+01	-1.846755e-05
1.005776e+01	-1.868150e-05
1.011585e+01	-1.889793e-05
1.017428e+01	-1.911687e-05
1.023305e+01	-1.933834e-05
1.029215e+01	-1.956238e-05
1.035160e+01	-1.978902e-05
1.041139e+01	-2.001828e-05
1.047153e+01	-2.025019e-05
1.053201e+01	-2.048480e-05
1.059284e+01	-2.072212e-05
1.065403e+01	-2.096219e-05
1.071556e+01	-2.120504e-05
1.077746e+01	-2.145071e-05
1.083971e+01	-2.169922e-05
1.090232e+01	-2.195061e-05
1.096529e+01	-2.220491e-05
1.102862e+01	-2.246216e-05
1.109232e+01	-2.272239e-05
1.115639e+01	-2.298564e-05
1.122083e+01	-2.325193e-05
1.128564e+01	-2.352131e-05
1.135083e+01	-2.379381e-05
1.141639e+01	-2.406947e-05
1.148233e+01	-2.434832e-05
1.154865e+01	-2.463040e-05
1.161536e+01	-2.491575e-05
1.168245e+01	-2.520440e-05
1.174992e+01	-2.549640e-05
1.181779e+01	-2.579179e-05
1.188605e+01	-2.609059e-05
1.195470e+01	-2.639286e-05
1.202375e+01	-2.669862e-05
1.209320e+01	-2.700793e-05
1.216305e+01	-2.732083e-05
1.223330e+01	-2.763735e-05
1.230396e+01	-2.795753e-05
1.237503e+01	-2.828143e-05
1.244651e+01	-2.860907e-05
1.251840e+01	-2.894052e-05
1.259070e+01	-2.927580e-05
1.266343e+01	-2.961497e-05
1.273657e+01	-2.995806e-05
1.281014e+01	-3.030513e-05
1.288413e+01	-3.065623e-05
1.295855e+01	-3.101139e-05
1.303339e+01	-3.137066e-05
1.310867e+01	-3.173410e-05
1.318439e+01	-3.210174e-05
1.326054e+01	-3.247365e-05
1.333713e+01	-3.284987e-05
1.341417e+01	-3.323044e-05
1.349165e+01	-3.361542e-05
1.356958e+01	-3.400486e-05
1.364795e+01	-3.439882e-05
1.372678e+01	-3.479734e-05
1.380607e+01	-3.520047e-05
1.388581e+01	-3.560828e-05
1.396602e+01	-3.602081e-05
1.404668e+01	-3.643812e-05
1.412782e+01	-3.686026e-05
1.420942e+01	-3.728730e-05
1.429149e+01	-3.771928e-05
1.437404e+01	-3.815626e-05
1.445706e+01	-3.859831e-05
1.454057e+01	-3.904548e-05
1.462455e+01	-3.949783e-05
1.470902e+01	-3.995542e-05
1.479398e+01	-4.041832e-05
1.487943e+01	-4.088657e-05
1.496537e+01	-4.136025e-05
1.505181e+01	-4.183942e-05
1.513875e+01	-4.232414e-05
1.522619e+01	-4.281447e-05
1.531414e+01	-4.331049e-05
1.540259e+01	-4.381225e-05
1.549156e+01	-4.431983e-05
1.558103e+01	-4.483328e-05
1.567103e+01	-4.535268e-05
1.576155e+01	-4.587811e-05
1.585258e+01	-4.640961e-05
1.594415e+01	-4.694728e-05
1.603624e+01	-4.749117e-05
1.612886e+01	-4.804137e-05
1.622202e+01	-4.859794e-05
1.631572e+01	-4.916096e-05
1.640996e+01	-4.973050e-05
1.650474e+01	-5.030663e-05
1.660008e+01	-5.088945e-05
1.669596e+01	-5.147901e-05
1.679239e+01	-5.207541e-05
1.688938e+01	-5.267871e-05
1.698694e+01	-5.328901e-05
1.708505e+01	-5.390637e-05
1.718373e+01	-5.453089e-05
1.728299e+01	-5.516264e-05
1.738281e+01	-5.580171e-05
1.748322e+01	-5.644818e-05
1.758420e+01	-5.710215e-05
1.768576e+01	-5.776369e-05
1.778792e+01	-5.843289e-05
1.789066e+01	-5.910985e-05
1.799399e+01	-5.979465e-05
1.809793e+01	-6.048738e-05
1.820246e+01	-6.118814e-05
1.830760e+01	-6.189701e-05
1.841334e+01	-6.261410e-05
1.851969e+01	-6.333950e-05
1.862666e+01	-6.407330e-05
1.873425e+01	-6.481560e-05
1.884246e+01	-6.556650e-05
1.895129e+01	-6.632610e-05
1.906075e+01	-6.709450e-05
1.917085e+01	-6.787181e-05
1.928158e+01	-6.865811e-05
1.939295e+01	-6.945353e-05
1.950496e+01	-7.025816e-05
1.961762e+01	-7.107212e-05
1.973093e+01	-7.189550e-05
1.984490e+01	-7.272842e-05
1.995952e+01	-7.357100e-05
2.007480e+01	-7.442333e-05
2.019076e+01	-7.528554e-05
2.030738e+01	-7.615773e-05
2.042467e+01	-7.704003e-05
2.054264e+01	-7.793256e-05
2.066130e+01	-7.883542e-05
2.078064e+01	-7.974874e-05
2.090066e+01	-8.067264e-05
2.102139e+01	-8.160725e-05
2.114280e+01	-8.255268e-05
2.126492e+01	-8.350907e-05
2.138775e+01	-8.447654e-05
2.151128e+01	-8.545521e-05
2.163553e+01	-8.644522e-05
2.176050e+01	-8.744671e-05
2.188619e+01	-8.845979e-05
2.201260e+01	-8.948461e-05
2.213974e+01	-9.052130e-05
2.226762e+01	-9.157001e-05
2.239624e+01	-9.263086e-05
2.252560e+01	-9.370400e-05
2.265571e+01	-9.478958e-05
2.278656e+01	-9.588773e-05
2.291818e+01	-9.699860e-05
2.305055e+01	-9.812235e-05
2.318369e+01	-9.925911e-05
2.331760e+01	-1.004090e-04
2.345228e+01	-1.015723e-04
2.358774e+01	-1.027490e-04
2.372398e+01	-1.039394e-04
2.386101e+01	-1.051435e-04
2.399883e+01	-1.063616e-04
2.413745e+01	-1.075939e-04
2.427686e+01	-1.088403e-04
2.441709e+01	-1.101013e-04
2.455812e+01	-1.113768e-04
2.469997e+01	-1.126671e-04
2.484263e+01	-1.139724e-04
2.498612e+01	-1.152928e-04
2.513044e+01	-1.166285e-04
2.527559e+01	-1.179796e-04
2.542158e+01	-1.193464e-04
2.556842e+01	-1.207291e-04
2.571610e+01	-1.221277e-04
2.586463e+01	-1.235426e-04
2.601403e+01	-1.249738e-04
2.616428e+01	-1.264217e-04
2.631541e+01	-1.278863e-04
2.646740e+01	-1.293679e-04
2.662028e+01	-1.308666e-04
2.677404e+01	-1.323827e-04
2.692868e+01	-1.339164e-04
2.708422e+01	-1.354678e-04
2.724066e+01	-1.370372e-04
2.739800e+01	-1.386248e-04
2.755625e+01	-1.402308e-04
2.771541e+01	-1.418554e-04
2.787550e+01	-1.434988e-04
2.803650e+01	-1.451612e-04
2.819844e+01	-1.468429e-04
2.836131e+01	-1.485441e-04
2.852513e+01	-1.502650e-04
2.868989e+01	-1.520058e-04
2.885560e+01	-1.537668e-04
2.902227e+01	-1.555482e-04
2.918990e+01	-1.573503e-04
2.935850e+01	-1.591732e-04
2.952807e+01	-1.610172e-04
2.969863e+01	-1.628826e-04
2.987016e+01	-1.647696e-04
3.004269e+01	-1.666785e-04
3.021622e+01	-1.686095e-04
3.039075e+01	-1.705628e-04
3.056628e+01	-1.725388e-04
3.074283e+01	-1.745377e-04
3.092040e+01	-1.765597e-04
3.109900e+01	-1.786051e-04
3.127862e+01	-1.806743e-04
3.145929e+01	-1.827674e-04
3.164099e+01	-1.848848e-04
3.182375e+01	-1.870267e-04
3.200756e+01	-1.891934e-04
3.219244e+01	-1.913852e-04
3.237838e+01	-1.936024e-04
3.256540e+01	-1.958453e-04
3.275349e+01	-1.981141e-04
3.294268e+01	-2.004093e-04
3.313295e+01	-2.027310e-04
3.332433e+01	-2.050797e-04
3.351681e+01	-2.074555e-04
3.371040e+01	-2.098589e-04
3.390511e+01	-2.122901e-04
3.410094e+01	-2.147495e-04
3.429791e+01	-2.172374e-04
3.449601e+01	-2.197541e-04
3.469526e+01	-2.222999e-04
3.489566e+01	-2.248752e-04
3.509721e+01	-2.274804e-04
3.529993e+01	-2.301158e-04
3.550382e+01	-2.327817e-04
3.570889e+01	-2.354784e-04
3.591515e+01	-2.382064e-04
3.612259e+01	-2.409660e-04
3.633123e+01	-2.437576e-04
3.654108e+01	-2.465815e-04
3.675214e+01	-2.494382e-04
3.696442e+01	-2.523279e-04
3.717792e+01	-2.552511e-04
3.739266e+01	-2.582082e-04
3.760864e+01	-2.611995e-04
3.782587e+01	-2.642255e-04
3.804435e+01	-2.672865e-04
3.826409e+01	-2.703830e-04
3.848510e+01	-2.735154e-04
3.870739e+01	-2.766840e-04
3.893096e+01	-2.798894e-04
3.915583e+01	-2.831319e-04
3.938199e+01	-2.864119e-04
3.960946e+01	-2.897300e-04
3.983824e+01	-2.930864e-04
4.006834e+01	-2.964818e-04
4.029978e+01	-2.999165e-04
4.053255e+01	-3.033910e-04
4.076666e+01	-3.069058e-04
4.100213e+01	-3.104612e-04
4.123896e+01	-3.140579e-04
4.147715e+01	-3.176962e-04
4.171672e+01	-3.213767e-04
4.195767e+01	-3.250997e-04
4.220002e+01	-3.288660e-04
4.244377e+01	-3.326758e-04
4.268892e+01	-3.365298e-04
4.293549e+01	-3.404285e-04
4.318348e+01	-3.443723e-04
4.343291e+01	-3.483618e-04
4.368377e+01	-3.523975e-04
4.393609e+01	-3.564799e-04
4.418986e+01	-3.606097e-04
4.444510e+01	-3.647872e-04
4.470182e+01	-3.690132e-04
4.496001e+01	-3.732882e-04
4.521970e+01	-3.776126e-04
4.548089e+01	-3.819872e-04
4.574358e+01	-3.864124e-04
4.600779e+01	-3.908889e-04
4.627353e+01	-3.954173e-04
4.654081e+01	-3.999981e-04
4.680963e+01	-4.046319e-04
4.708000e+01	-4.093195e-04
4.735193e+01	-4.140613e-04
4.762543e+01	-4.188581e-04
4.790051e+01	-4.237105e-04
4.817719e+01	-4.286190e-04
4.845545e+01	-4.335845e-04
4.873533e+01	-4.386074e-04
4.901682e+01	-4.436885e-04
4.929994e+01	-4.488285e-04
4.958470e+01	-4.540280e-04
4.987110e+01	-4.592878e-04
5.015915e+01	-4.646085e-04
5.044887e+01	-4.699908e-04
5.074026e+01	-4.754355e-04
5.103333e+01	-4.809432e-04
5.132810e+01	-4.865148e-04
5.162457e+01	-4.921509e-04
5.192275e+01	-4.978523e-04
5.222265e+01	-5.036197e-04
5.252429e+01	-5.094539e-04
5.282767e+01	-5.153557e-04
5.313280e+01	-5.213259e-04
5.343969e+01	-5.273652e-04
5.374836e+01	-5.334745e-04
5.405880e+01	-5.396546e-04
5.437105e+01	-5.459063e-04
5.468509e+01	-5.522303e-04
5.500095e+01	-5.586277e-04
5.531863e+01	-5.650991e-04
5.563815e+01	-5.716455e-04
5.595951e+01	-5.782677e-04
5.628273e+01	-5.849667e-04
5.660782e+01	-5.917432e-04
5.693479e+01	-5.985982e-04
5.726364e+01	-6.055327e-04
5.759439e+01	-6.125475e-04
5.792705e+01	-6.196435e-04
5.826164e+01	-6.268217e-04
5.859815e+01	-6.340831e-04
5.893662e+01	-6.414286e-04
5.927703e+01	-6.488591e-04
5.961941e+01	-6.563758e-04
5.996377e+01	-6.639795e-04
6.031012e+01	-6.716713e-04
6.065847e+01	-6.794522e-04
6.100883e+01	-6.873232e-04
6.136121e+01	-6.952854e-04
6.171563e+01	-7.033398e-04
6.207210e+01	-7.114875e-04
6.243063e+01	-7.197296e-04
6.279122e+01	-7.280672e-04
6.315390e+01	-7.365013e-04
6.351868e+01	-7.450331e-04
6.388556e+01	-7.536638e-04
6.425456e+01	-7.623944e-04
6.462569e+01	-7.712262e-04
6.499897e+01	-7.801603e-04
6.537440e+01	-7.891978e-04
6.575200e+01	-7.983400e-04
6.613178e+01	-8.075882e-04
6.651375e+01	-8.169434e-04
6.689793e+01	-8.264070e-04
6.728433e+01	-8.359803e-04
6.767297e+01	-8.456644e-04
6.806384e+01	-8.554607e-04
6.845698e+01	-8.653704e-04
6.885238e+01	-8.753950e-04
6.925007e+01	-8.855356e-04
6.965005e+01	-8.957937e-04
7.005235e+01	-9.061707e-04
7.045697e+01	-9.166678e-04
7.086393e+01	-9.272865e-04
7.127323e+01	-9.380282e-04
7.168490e+01	-9.488943e-04
7.209895e+01	-9.598863e-04
7.251539e+01	-9.710056e-04
7.293424e+01	-9.822537e-04
7.335551e+01	-9.936321e-04
7.377920e+01	-1.005142e-03
7.420535e+01	-1.016786e-03
7.463396e+01	-1.028564e-03
7.506504e+01	-1.040479e-03
7.549861e+01	-1.052532e-03
7.593469e+01	-1.064724e-03
7.637328e+01	-1.077058e-03
7.681441e+01	-1.089534e-03
7.725809e+01	-1.102155e-03
7.770433e+01	-1.114922e-03
7.815315e+01	-1.127837e-03
7.860456e+01	-1.140902e-03
7.905857e+01	-1.154118e-03
7.951521e+01	-1.167487e-03
7.997449e+01	-1.181010e-03
8.043642e+01	-1.194691e-03
8.090102e+01	-1.208530e-03
8.136830e+01	-1.222529e-03
8.183828e+01	-1.236690e-03
8.231097e+01	-1.251015e-03
8.278640e+01	-1.265507e-03
8.326457e+01	-1.280166e-03
8.374550e+01	-1.294995e-03
8.422921e+01	-1.309995e-03
8.471572e+01	-1.325170e-03
8.520503e+01	-1.340520e-03
8.569717e+01	-1.356048e-03
8.619215e+01	-1.371755e-03
8.669000e+01	-1.387645e-03
8.719071e+01	-1.403718e-03
8.769432e+01	-1.419978e-03
8.820084e+01	-1.436426e-03
8.871029e+01	-1.453065e-03
8.922267e+01	-1.469896e-03
8.973802e+01	-1.486922e-03
9.025634e+01	-1.504146e-03
9.077766e+01	-1.521569e-03
9.130199e+01	-1.539193e-03
9.182935e+01	-1.557022e-03
9.235975e+01	-1.575057e-03
9.289321e+01	-1.593302e-03
9.342976e+01	-1.611757e-03
9.396941e+01	-1.630426e-03
9.451217e+01	-1.649311e-03
9.505807e+01	-1.668415e-03
9.560712e+01	-1.687741e-03
9.615934e+01	-1.707290e-03
9.671476e+01	-1.727065e-03
9.727338e+01	-1.747070e-03
9.783522e+01	-1.767306e-03
9.840032e+01	-1.787776e-03
9.896867e+01	-1.808484e-03
9.954031e+01	-1.829431e-03
1.001153e+02	-1.850621e-03
1.006935e+02	-1.872057e-03
1.012751e+02	-1.893740e-03
1.018601e+02	-1.915675e-03
1.024484e+02	-1.937863e-03
1.030402e+02	-1.960309e-03
1.036353e+02	-1.983015e-03
1.042339e+02	-2.005983e-03
1.048360e+02	-2.029217e-03
1.054415e+02	-2.052721e-03
1.060505e+02	-2.076496e-03
1.066631e+02	-2.100547e-03
1.072791e+02	-2.124877e-03
1.078988e+02	-2.149488e-03
1.085220e+02	-2.174384e-03
1.091488e+02	-2.199569e-03
1.097793e+02	-2.225045e-03
1.104133e+02	-2.250816e-03
1.110511e+02	-2.276885e-03
1.116925e+02	-2.303256e-03
1.123376e+02	-2.329933e-03
1.129865e+02	-2.356919e-03
1.136391e+02	-2.384217e-03
1.142955e+02	-2.411831e-03
1.149556e+02	-2.439765e-03
1.156196e+02	-2.468022e-03
1.162874e+02	-2.496606e-03
1.169591e+02	-2.525522e-03
1.176347e+02	-2.554772e-03
1.183141e+02	-2.584361e-03
1.189975e+02	-2.614292e-03
1.196848e+02	-2.644570e-03
1.203761e+02	-2.675199e-03
1.210714e+02	-2.706182e-03
1.217707e+02	-2.737524e-03
1.224740e+02	-2.769229e-03
1.231814e+02	-2.801301e-03
1.238929e+02	-2.833744e-03
1.246085e+02	-2.866563e-03
1.253283e+02	-2.899762e-03
1.260522e+02	-2.933345e-03
1.267802e+02	-2.967317e-03
1.275125e+02	-3.001682e-03
1.282490e+02	-3.036445e-03
1.289898e+02	-3.071611e-03
1.297348e+02	-3.107183e-03
1.304842e+02	-3.143168e-03
1.312378e+02	-3.179569e-03
1.319959e+02	-3.216391e-03
1.327583e+02	-3.253640e-03
1.335251e+02	-3.291320e-03
1.342963e+02	-3.329436e-03
1.350720e+02	-3.367994e-03
1.358522e+02	-3.406997e-03
1.366368e+02	-3.446453e-03
1.374260e+02	-3.486365e-03
1.382198e+02	-3.526739e-03
1.390182e+02	-3.567580e-03
1.398211e+02	-3.608894e-03
1.406287e+02	-3.650686e-03
1.414410e+02	-3.692963e-03
1.422579e+02	-3.735728e-03
1.430796e+02	-3.778989e-03
1.439060e+02	-3.822750e-03
1.447372e+02	-3.867018e-03
1.455732e+02	-3.911798e-03
1.464141e+02	-3.957096e-03
1.472597e+02	-4.002919e-03
1.481103e+02	-4.049272e-03
1.489658e+02	-4.096162e-03
1.498262e+02	-4.143594e-03
1.506916e+02	-4.191576e-03
1.515620e+02	-4.240112e-03
1.524374e+02	-4.289211e-03
1.533179e+02	-4.338878e-03
1.542034e+02	-4.389119e-03
1.550941e+02	-4.439942e-03
1.559899e+02	-4.491353e-03
1.568909e+02	-4.543360e-03
1.577971e+02	-4.595968e-03
1.587085e+02	-4.649185e-03
1.596252e+02	-4.703017e-03
1.605472e+02	-4.757473e-03
1.614745e+02	-4.812559e-03
1.624072e+02	-4.868283e-03
1.633453e+02	-4.924651e-03
1.642887e+02	-4.981671e-03
1.652377e+02	-5.039352e-03
1.661921e+02	-5.097700e-03
1.671520e+02	-5.156723e-03
1.681175e+02	-5.216428e-03
1.690885e+02	-5.276825e-03
1.700651e+02	-5.337921e-03
1.710474e+02	-5.399724e-03
1.720354e+02	-5.462241e-03
1.730291e+02	-5.525483e-03
1.740285e+02	-5.589455e-03
1.750337e+02	-5.654168e-03
1.760446e+02	-5.719630e-03
1.770615e+02	-5.785849e-03
1.780842e+02	-5.852834e-03
1.791128e+02	-5.920595e-03
1.801473e+02	-5.989139e-03
1.811878e+02	-6.058476e-03
1.822344e+02	-6.128615e-03
1.832870e+02	-6.199566e-03
1.843456e+02	-6.271338e-03
1.854104e+02	-6.343939e-03
1.864813e+02	-6.417381e-03
1.875584e+02	-6.491672e-03
1.886418e+02	-6.566823e-03
1.897313e+02	-6.642843e-03
1.908272e+02	-6.719742e-03
1.919294e+02	-6.797531e-03
1.930380e+02	-6.876220e-03
1.941530e+02	-6.955818e-03
1.952744e+02	-7.036338e-03
1.964023e+02	-7.117789e-03
1.975367e+02	-7.200181e-03
1.986777e+02	-7.283527e-03
1.998252e+02	-7.367837e-03
2.009794e+02	-7.453122e-03
2.021403e+02	-7.539393e-03
2.033078e+02	-7.626662e-03
2.044821e+02	-7.714940e-03
2.056632e+02	-7.804239e-03
2.068511e+02	-7.894570e-03
2.080459e+02	-7.985946e-03
2.092475e+02	-8.078379e-03
2.104561e+02	-8.171881e-03
2.116717e+02	-8.266464e-03
2.128943e+02	-8.362141e-03
2.141240e+02	-8.458923e-03
2.153608e+02	-8.556825e-03
2.166047e+02	-8.655859e-03
2.178558e+02	-8.756038e-03
2.191141e+02	-8.857375e-03
2.203797e+02	-8.959884e-03
2.216526e+02	-9.063578e-03
2.229329e+02	-9.168470e-03
2.242205e+02	-9.274576e-03
2.255156e+02	-9.381907e-03
2.268182e+02	-9.490480e-03
2.281283e+02	-9.600308e-03
2.294459e+02	-9.711405e-03
2.307712e+02	-9.823786e-03
2.321041e+02	-9.937466e-03
2.334447e+02	-1.005246e-02
2.347931e+02	-1.016878e-02
2.361493e+02	-1.028645e-02
2.375133e+02	-1.040548e-02
2.388851e+02	-1.052588e-02
2.402649e+02	-1.064768e-02
2.416527e+02	-1.077088e-02
2.430484e+02	-1.089551e-02
2.444523e+02	-1.102157e-02
2.458642e+02	-1.114910e-02
2.472843e+02	-1.127809e-02
2.487126e+02	-1.140858e-02
2.501492e+02	-1.154058e-02
2.515940e+02	-1.167410e-02
2.530472e+02	-1.180916e-02
2.545088e+02	-1.194578e-02
2.559789e+02	-1.208398e-02
2.574574e+02	-1.222378e-02
2.589444e+02	-1.236520e-02
2.604401e+02	-1.250824e-02
2.619444e+02	-1.265294e-02
2.634574e+02	-1.279931e-02
2.649791e+02	-1.294737e-02
2.665096e+02	-1.309714e-02
2.680489e+02	-1.324865e-02
2.695972e+02	-1.340190e-02
2.711544e+02	-1.355692e-02
2.727205e+02	-1.371373e-02
2.742958e+02	-1.387235e-02
2.758801e+02	-1.403281e-02
2.774736e+02	-1.419511e-02
2.790762e+02	-1.435929e-02
2.806882e+02	-1.452537e-02
2.823094e+02	-1.469337e-02
2.839400e+02	-1.486330e-02
2.855800e+02	-1.503519e-02
2.872295e+02	-1.520908e-02
2.888886e+02	-1.538496e-02
2.905572e+02	-1.556288e-02
2.922354e+02	-1.574285e-02
2.939234e+02	-1.592490e-02
2.956211e+02	-1.610905e-02
2.973286e+02	-1.629533e-02
2.990459e+02	-1.648375e-02
3.007732e+02	-1.667435e-02
3.025104e+02	-1.686715e-02
3.042577e+02	-1.706218e-02
3.060151e+02	-1.725945e-02
3.077826e+02	-1.745901e-02
3.095604e+02	-1.766086e-02
3.113484e+02	-1.786504e-02
3.131467e+02	-1.807158e-02
3.149554e+02	-1.828050e-02
3.167746e+02	-1.849184e-02
3.186043e+02	-1.870560e-02
3.204445e+02	-1.892184e-02
3.222954e+02	-1.914057e-02
3.241570e+02	-1.936182e-02
3.260293e+02	-1.958563e-02
3.279124e+02	-1.981201e-02
3.298064e+02	-2.004101e-02
3.317114e+02	-2.027264e-02
3.336273e+02	-2.050695e-02
3.355544e+02	-2.074396e-02
3.374925e+02	-2.098370e-02
3.394418e+02	-2.122620e-02
3.414024e+02	-2.147150e-02
3.433744e+02	-2.171963e-02
3.453577e+02	-2.197062e-02
3.473525e+02	-2.222450e-02
3.493588e+02	-2.248131e-02
3.513766e+02	-2.274108e-02
3.534062e+02	-2.300384e-02
3.554474e+02	-2.326963e-02
3.575005e+02	-2.353848e-02
3.595654e+02	-2.381043e-02
3.616422e+02	-2.408551e-02
3.637311e+02	-2.436376e-02
3.658320e+02	-2.464522e-02
3.679450e+02	-2.492991e-02
3.700702e+02	-2.521789e-02
3.722077e+02	-2.550919e-02
3.743576e+02	-2.580384e-02
3.765199e+02	-2.610188e-02
3.786946e+02	-2.640335e-02
3.808820e+02	-2.670830e-02
3.830819e+02	-2.701675e-02
3.852946e+02	-2.732876e-02
3.875200e+02	-2.764436e-02
3.897583e+02	-2.796359e-02
3.920096e+02	-2.828650e-02
3.942738e+02	-2.861312e-02
3.965511e+02	-2.894350e-02
3.988416e+02	-2.927769e-02
4.011452e+02	-2.961572e-02
4.034622e+02	-2.995763e-02
4.057926e+02	-3.030349e-02
4.081365e+02	-3.065332e-02
4.104938e+02	-3.100717e-02
4.128648e+02	-3.136509e-02
4.152495e+02	-3.172714e-02
4.176480e+02	-3.209334e-02
4.200603e+02	-3.246375e-02
4.224866e+02	-3.283843e-02
4.249268e+02	-3.321741e-02
4.273812e+02	-3.360075e-02
4.298497e+02	-3.398849e-02
4.323325e+02	-3.438070e-02
4.348297e+02	-3.477740e-02
4.373412e+02	-3.517867e-02
4.398673e+02	-3.558455e-02
4.424079e+02	-3.599509e-02
4.449633e+02	-3.641035e-02
4.475334e+02	-3.683038e-02
4.501183e+02	-3.725523e-02
4.527182e+02	-3.768497e-02
4.553330e+02	-3.811964e-02
4.579630e+02	-3.855929e-02
4.606082e+02	-3.900400e-02
4.632687e+02	-3.945381e-02
4.659445e+02	-3.990879e-02
4.686358e+02	-4.036899e-02
4.713426e+02	-4.083447e-02
4.740650e+02	-4.130529e-02
4.768032e+02	-4.178151e-02
4.795572e+02	-4.226320e-02
4.823271e+02	-4.275042e-02
4.851130e+02	-4.324322e-02
4.879150e+02	-4.374167e-02
4.907332e+02	-4.424584e-02
4.935676e+02	-4.475579e-02
4.964185e+02	-4.527159e-02
4.992858e+02	-4.579330e-02
5.021696e+02	-4.632099e-02
5.050701e+02	-4.685473e-02
5.079874e+02	-4.739459e-02
5.109215e+02	-4.794063e-02
5.138726e+02	-4.849292e-02
5.168407e+02	-4.905154e-02
5.198259e+02	-4.961657e-02
5.228284e+02	-5.018806e-02
5.258482e+02	-5.076609e-02
5.288855e+02	-5.135075e-02
5.319403e+02	-5.194209e-02
5.350128e+02	-5.254021e-02
5.381030e+02	-5.314517e-02
5.412111e+02	-5.375705e-02
5.443371e+02	-5.437593e-02
5.474812e+02	-5.500189e-02
5.506434e+02	-5.563501e-02
5.538239e+02	-5.627538e-02
5.570228e+02	-5.692306e-02
5.602401e+02	-5.757815e-02
5.634760e+02	-5.824073e-02
5.667306e+02	-5.891088e-02
5.700040e+02	-5.958868e-02
5.732964e+02	-6.027424e-02
5.766077e+02	-6.096762e-02
5.799382e+02	-6.166892e-02
5.832879e+02	-6.237823e-02
5.866569e+02	-6.309565e-02
5.900454e+02	-6.382125e-02
5.934535e+02	-6.455513e-02
5.968813e+02	-6.529739e-02
6.003288e+02	-6.604812e-02
6.037963e+02	-6.680741e-02
6.072838e+02	-6.757536e-02
6.107914e+02	-6.835207e-02
6.143194e+02	-6.913764e-02
6.178676e+02	-6.993216e-02
6.214364e+02	-7.073574e-02
6.250258e+02	-7.154848e-02
6.286359e+02	-7.237047e-02
6.322669e+02	-7.320183e-02
6.359189e+02	-7.404266e-02
6.395919e+02	-7.489306e-02
6.432862e+02	-7.575315e-02
6.470017e+02	-7.662302e-02
6.507388e+02	-7.750280e-02
6.544974e+02	-7.839258e-02
6.582778e+02	-7.929249e-02
6.620800e+02	-8.020263e-02
6.659041e+02	-8.112311e-02
6.697504e+02	-8.205407e-02
6.736188e+02	-8.299560e-02
6.775096e+02	-8.394784e-02
6.814229e+02	-8.491089e-02
6.853587e+02	-8.588488e-02
6.893173e+02	-8.686993e-02
6.932988e+02	-8.786616e-02
6.973033e+02	-8.887370e-02
7.013309e+02	-8.989268e-02
