Frequency(Hz)	Magnitude(dB)
1.000000e+01	-2.255965e+00
1.005776e+01	-2.276352e+00
1.011585e+01	-2.296626e+00
1.017428e+01	-2.317150e+00
1.023305e+01	-2.338179e+00
1.029215e+01	-2.358963e+00
1.035160e+01	-2.380080e+00
1.041139e+01	-2.401226e+00
1.047153e+01	-2.422605e+00
1.053201e+01	-2.443948e+00
1.059284e+01	-2.465645e+00
1.065403e+01	-2.487258e+00
1.071556e+01	-2.509039e+00
1.077746e+01	-2.531302e+00
1.083971e+01	-2.553460e+00
1.090232e+01	-2.575812e+00
1.096529e+01	-2.598114e+00
1.102862e+01	-2.620974e+00
1.109232e+01	-2.643383e+00
1.115639e+01	-2.666236e+00
1.122083e+01	-2.689525e+00
1.128564e+01	-2.712449e+00
1.135083e+01	-2.735960e+00
1.141639e+01	-2.759210e+00
1.148233e+01	-2.782941e+00
1.154865e+01	-2.806668e+00
1.161536e+01	-2.830673e+00
1.168245e+01	-2.854677e+00
1.174992e+01	-2.878527e+00
1.181779e+01	-2.903008e+00
1.188605e+01	-2.927402e+00
1.195470e+01	-2.952030e+00
1.202375e+01	-2.976732e+00
1.209320e+01	-3.001824e+00
1.216305e+01	-3.026613e+00
1.223330e+01	-3.051841e+00
1.230396e+01	-3.077244e+00
1.237503e+01	-3.102797e+00
1.244651e+01	-3.128356e+00
1.251840e+01	-3.153957e+00
1.259070e+01	-3.180157e+00
1.266343e+01	-3.206297e+00
1.273657e+01	-3.232322e+00
1.281014e+01	-3.258181e+00
1.288413e+01	-3.285095e+00
1.295855e+01	-3.311686e+00
1.303339e+01	-3.338210e+00
1.310867e+01	-3.365175e+00
1.318439e+01	-3.392469e+00
1.326054e+01	-3.419479e+00
1.333713e+01	-3.446829e+00
1.341417e+01	-3.474245e+00
1.349165e+01	-3.501926e+00
1.356958e+01	-3.529886e+00
1.364795e+01	-3.557682e+00
1.372678e+01	-3.585671e+00
1.380607e+01	-3.613964e+00
1.388581e+01	-3.642512e+00
1.396602e+01	-3.670712e+00
1.404668e+01	-3.699289e+00
1.412782e+01	-3.728015e+00
1.420942e+01	-3.756915e+00
1.429149e+01	-3.785922e+00
1.437404e+01	-3.815103e+00
1.445706e+01	-3.844370e+00
1.454057e+01	-3.874053e+00
1.462455e+01	-3.903594e+00
1.470902e+01	-3.933375e+00
1.479398e+01	-3.963071e+00
1.487943e+01	-3.993159e+00
1.496537e+01	-4.023265e+00
1.505181e+01	-4.053572e+00
1.513875e+01	-4.083999e+00
1.522619e+01	-4.114661e+00
1.531414e+01	-4.145221e+00
1.540259e+01	-4.176043e+00
1.549156e+01	-4.207048e+00
1.558103e+01	-4.238116e+00
1.567103e+01	-4.269526e+00
1.576155e+01	-4.300727e+00
1.585258e+01	-4.332260e+00
1.594415e+01	-4.363875e+00
1.603624e+01	-4.395787e+00
1.612886e+01	-4.427536e+00
1.622202e+01	-4.459400e+00
1.631572e+01	-4.491970e+00
1.640996e+01	-4.524297e+00
1.650474e+01	-4.556728e+00
1.660008e+01	-4.589305e+00
1.669596e+01	-4.621683e+00
1.679239e+01	-4.654744e+00
1.688938e+01	-4.687657e+00
1.698694e+01	-4.720833e+00
1.708505e+01	-4.753781e+00
1.718373e+01	-4.787604e+00
1.728299e+01	-4.820871e+00
1.738281e+01	-4.854321e+00
1.748322e+01	-4.888133e+00
1.758420e+01	-4.921970e+00
1.768576e+01	-4.955865e+00
1.778792e+01	-4.990330e+00
1.789066e+01	-5.024053e+00
1.799399e+01	-5.058704e+00
1.809793e+01	-5.093240e+00
1.820246e+01	-5.127757e+00
1.830760e+01	-5.162602e+00
1.841334e+01	-5.197300e+00
1.851969e+01	-5.232219e+00
1.862666e+01	-5.267380e+00
1.873425e+01	-5.302444e+00
1.884246e+01	-5.337608e+00
1.895129e+01	-5.373455e+00
1.906075e+01	-5.408855e+00
1.917085e+01	-5.444796e+00
1.928158e+01	-5.480620e+00
1.939295e+01	-5.516250e+00
1.950496e+01	-5.552471e+00
1.961762e+01	-5.588777e+00
1.973093e+01	-5.624981e+00
1.984490e+01	-5.661313e+00
1.995952e+01	-5.697851e+00
2.007480e+01	-5.734377e+00
2.019076e+01	-5.770836e+00
2.030738e+01	-5.807967e+00
2.042467e+01	-5.844556e+00
2.054264e+01	-5.881540e+00
2.066130e+01	-5.918904e+00
2.078064e+01	-5.956125e+00
2.090066e+01	-5.993424e+00
2.102139e+01	-6.031028e+00
2.114280e+01	-6.068893e+00
2.126492e+01	-6.106347e+00
2.138775e+01	-6.144130e+00
2.151128e+01	-6.182057e+00
2.163553e+01	-6.220243e+00
2.176050e+01	-6.258653e+00
2.188619e+01	-6.296786e+00
2.201260e+01	-6.334716e+00
2.213974e+01	-6.373066e+00
2.226762e+01	-6.412199e+00
2.239624e+01	-6.450313e+00
2.252560e+01	-6.489444e+00
2.265571e+01	-6.528255e+00
2.278656e+01	-6.567099e+00
2.291818e+01	-6.606362e+00
2.305055e+01	-6.645433e+00
2.318369e+01	-6.684563e+00
2.331760e+01	-6.724057e+00
2.345228e+01	-6.763026e+00
2.358774e+01	-6.802930e+00
2.372398e+01	-6.842465e+00
2.386101e+01	-6.882247e+00
2.399883e+01	-6.921916e+00
2.413745e+01	-6.961861e+00
2.427686e+01	-7.002149e+00
2.441709e+01	-7.042578e+00
2.455812e+01	-7.082368e+00
2.469997e+01	-7.122504e+00
2.484263e+01	-7.163017e+00
2.498612e+01	-7.203138e+00
2.513044e+01	-7.243996e+00
2.527559e+01	-7.284597e+00
2.542158e+01	-7.325031e+00
2.556842e+01	-7.365886e+00
2.571610e+01	-7.407230e+00
2.586463e+01	-7.448084e+00
2.601403e+01	-7.489050e+00
2.616428e+01	-7.530187e+00
2.631541e+01	-7.571470e+00
2.646740e+01	-7.612905e+00
2.662028e+01	-7.654053e+00
2.677404e+01	-7.695993e+00
2.692868e+01	-7.737137e+00
2.708422e+01	-7.779016e+00
2.724066e+01	-7.820356e+00
2.739800e+01	-7.862401e+00
2.755625e+01	-7.904698e+00
2.771541e+01	-7.946284e+00
2.787550e+01	-7.988208e+00
2.803650e+01	-8.030219e+00
2.819844e+01	-8.072787e+00
2.836131e+01	-8.115030e+00
2.852513e+01	-8.157239e+00
2.868989e+01	-8.199444e+00
2.885560e+01	-8.242100e+00
2.902227e+01	-8.284719e+00
2.918990e+01	-8.326858e+00
2.935850e+01	-8.369706e+00
2.952807e+01	-8.412937e+00
2.969863e+01	-8.455527e+00
2.987016e+01	-8.498503e+00
3.004269e+01	-8.541802e+00
3.021622e+01	-8.584367e+00
3.039075e+01	-8.627756e+00
3.056628e+01	-8.670393e+00
3.074283e+01	-8.713980e+00
3.092040e+01	-8.757956e+00
3.109900e+01	-8.800931e+00
3.127862e+01	-8.844454e+00
3.145929e+01	-8.887862e+00
3.164099e+01	-8.931463e+00
3.182375e+01	-8.975102e+00
3.200756e+01	-9.018872e+00
3.219244e+01	-9.062478e+00
3.237838e+01	-9.106876e+00
3.256540e+01	-9.149795e+00
3.275349e+01	-9.194195e+00
3.294268e+01	-9.238404e+00
3.313295e+01	-9.282588e+00
3.332433e+01	-9.327291e+00
3.351681e+01	-9.370617e+00
3.371040e+01	-9.415066e+00
3.390511e+01	-9.459160e+00
3.410094e+01	-9.503599e+00
3.429791e+01	-9.548361e+00
3.449601e+01	-9.592280e+00
3.469526e+01	-9.637202e+00
3.489566e+01	-9.682328e+00
3.509721e+01	-9.726378e+00
3.529993e+01	-9.771518e+00
3.550382e+01	-9.815692e+00
3.570889e+01	-9.860814e+00
3.591515e+01	-9.905681e+00
3.612259e+01	-9.950583e+00
3.633123e+01	-9.996039e+00
3.654108e+01	-1.004064e+01
3.675214e+01	-1.008565e+01
3.696442e+01	-1.013106e+01
3.717792e+01	-1.017647e+01
3.739266e+01	-1.022132e+01
3.760864e+01	-1.026712e+01
3.782587e+01	-1.031163e+01
3.804435e+01	-1.035726e+01
3.826409e+01	-1.040285e+01
3.848510e+01	-1.044845e+01
3.870739e+01	-1.049401e+01
3.893096e+01	-1.053949e+01
3.915583e+01	-1.058576e+01
3.938199e+01	-1.063072e+01
3.960946e+01	-1.067621e+01
3.983824e+01	-1.072177e+01
4.006834e+01	-1.076793e+01
4.029978e+01	-1.081340e+01
4.053255e+01	-1.085965e+01
4.076666e+01	-1.090629e+01
4.100213e+01	-1.095163e+01
4.123896e+01	-1.099759e+01
4.147715e+01	-1.104351e+01
4.171672e+01	-1.109020e+01
4.195767e+01	-1.113630e+01
4.220002e+01	-1.118238e+01
4.244377e+01	-1.122895e+01
4.268892e+01	-1.127458e+01
4.293549e+01	-1.132161e+01
4.318348e+01	-1.136776e+01
4.343291e+01	-1.141398e+01
4.368377e+01	-1.146011e+01
4.393609e+01	-1.150739e+01
4.418986e+01	-1.155370e+01
4.444510e+01	-1.159953e+01
4.470182e+01	-1.164694e+01
4.496001e+01	-1.169282e+01
4.521970e+01	-1.173983e+01
4.548089e+01	-1.178669e+01
4.574358e+01	-1.183383e+01
4.600779e+01	-1.187992e+01
4.627353e+01	-1.192693e+01
4.654081e+01	-1.197373e+01
4.680963e+01	-1.202047e+01
4.708000e+01	-1.206726e+01
4.735193e+01	-1.211475e+01
4.762543e+01	-1.216086e+01
4.790051e+01	-1.220839e+01
4.817719e+01	-1.225534e+01
4.845545e+01	-1.230242e+01
4.873533e+01	-1.234991e+01
4.901682e+01	-1.239715e+01
4.929994e+01	-1.244413e+01
4.958470e+01	-1.249127e+01
4.987110e+01	-1.253862e+01
5.015915e+01	-1.258554e+01
5.044887e+01	-1.263340e+01
5.074026e+01	-1.268049e+01
5.103333e+01	-1.272717e+01
5.132810e+01	-1.277476e+01
5.162457e+01	-1.282232e+01
5.192275e+01	-1.287043e+01
5.222265e+01	-1.291706e+01
5.252429e+01	-1.296462e+01
5.282767e+01	-1.301201e+01
5.313280e+01	-1.305945e+01
5.343969e+01	-1.310700e+01
5.374836e+01	-1.315429e+01
5.405880e+01	-1.320279e+01
5.437105e+01	-1.324998e+01
5.468509e+01	-1.329813e+01
5.500095e+01	-1.334616e+01
5.531863e+01	-1.339326e+01
5.563815e+01	-1.344084e+01
5.595951e+01	-1.348834e+01
5.628273e+01	-1.353629e+01
5.660782e+01	-1.358423e+01
5.693479e+01	-1.363231e+01
5.726364e+01	-1.368024e+01
5.759439e+01	-1.372795e+01
5.792705e+01	-1.377581e+01
5.826164e+01	-1.382444e+01
5.859815e+01	-1.387165e+01
5.893662e+01	-1.391998e+01
5.927703e+01	-1.396736e+01
5.961941e+01	-1.401569e+01
5.996377e+01	-1.406393e+01
6.031012e+01	-1.411224e+01
6.065847e+01	-1.415919e+01
6.100883e+01	-1.420732e+01
6.136121e+01	-1.425606e+01
6.171563e+01	-1.430522e+01
6.207210e+01	-1.435236e+01
6.243063e+01	-1.440090e+01
6.279122e+01	-1.444918e+01
6.315390e+01	-1.449735e+01
6.351868e+01	-1.454600e+01
6.388556e+01	-1.459373e+01
6.425456e+01	-1.464168e+01
6.462569e+01	-1.469040e+01
6.499897e+01	-1.473922e+01
6.537440e+01	-1.478648e+01
6.575200e+01	-1.483586e+01
6.613178e+01	-1.488322e+01
6.651375e+01	-1.493273e+01
6.689793e+01	-1.497999e+01
6.728433e+01	-1.502921e+01
6.767297e+01	-1.507732e+01
6.806384e+01	-1.512588e+01
6.845698e+01	-1.517453e+01
6.885238e+01	-1.522260e+01
6.925007e+01	-1.527233e+01
6.965005e+01	-1.532012e+01
7.005235e+01	-1.536840e+01
7.045697e+01	-1.541707e+01
7.086393e+01	-1.546605e+01
7.127323e+01	-1.551500e+01
7.168490e+01	-1.556333e+01
7.209895e+01	-1.561203e+01
7.251539e+01	-1.566096e+01
7.293424e+01	-1.570967e+01
7.335551e+01	-1.575725e+01
7.377920e+01	-1.580660e+01
7.420535e+01	-1.585456e+01
7.463396e+01	-1.590450e+01
7.506504e+01	-1.595330e+01
7.549861e+01	-1.600254e+01
7.593469e+01	-1.604945e+01
7.637328e+01	-1.609945e+01
7.681441e+01	-1.614810e+01
7.725809e+01	-1.619689e+01
7.770433e+01	-1.624568e+01
7.815315e+01	-1.629519e+01
7.860456e+01	-1.634353e+01
7.905857e+01	-1.639204e+01
7.951521e+01	-1.644100e+01
7.997449e+01	-1.649020e+01
8.043642e+01	-1.653848e+01
8.090102e+01	-1.658819e+01
8.136830e+01	-1.663695e+01
8.183828e+01	-1.668698e+01
8.231097e+01	-1.673501e+01
8.278640e+01	-1.678413e+01
8.326457e+01	-1.683317e+01
8.374550e+01	-1.688253e+01
8.422921e+01	-1.693030e+01
8.471572e+01	-1.697942e+01
8.520503e+01	-1.702978e+01
8.569717e+01	-1.707706e+01
8.619215e+01	-1.712669e+01
8.669000e+01	-1.717614e+01
8.719071e+01	-1.722510e+01
8.769432e+01	-1.727444e+01
8.820084e+01	-1.732239e+01
8.871029e+01	-1.737318e+01
8.922267e+01	-1.742198e+01
8.973802e+01	-1.747047e+01
9.025634e+01	-1.752020e+01
9.077766e+01	-1.756907e+01
9.130199e+01	-1.761775e+01
9.182935e+01	-1.766598e+01
9.235975e+01	-1.771548e+01
9.289321e+01	-1.776627e+01
9.342976e+01	-1.781385e+01
9.396941e+01	-1.786402e+01
9.451217e+01	-1.791387e+01
9.505807e+01	-1.796256e+01
9.560712e+01	-1.801141e+01
9.615934e+01	-1.806184e+01
9.671476e+01	-1.810987e+01
9.727338e+01	-1.816000e+01
9.783522e+01	-1.820937e+01
9.840032e+01	-1.825832e+01
9.896867e+01	-1.830845e+01
9.954031e+01	-1.835772e+01
1.001153e+02	-1.840448e+01
1.006935e+02	-1.845495e+01
1.012751e+02	-1.850362e+01
1.018601e+02	-1.855376e+01
1.024484e+02	-1.860307e+01
1.030402e+02	-1.865187e+01
1.036353e+02	-1.870080e+01
1.042339e+02	-1.875103e+01
1.048360e+02	-1.880083e+01
1.054415e+02	-1.884944e+01
1.060505e+02	-1.889819e+01
1.066631e+02	-1.894780e+01
1.072791e+02	-1.899753e+01
1.078988e+02	-1.904707e+01
1.085220e+02	-1.909619e+01
1.091488e+02	-1.914551e+01
1.097793e+02	-1.919465e+01
1.104133e+02	-1.924432e+01
1.110511e+02	-1.929532e+01
1.116925e+02	-1.934493e+01
1.123376e+02	-1.939506e+01
1.129865e+02	-1.944237e+01
1.136391e+02	-1.949442e+01
1.142955e+02	-1.954243e+01
1.149556e+02	-1.959375e+01
1.156196e+02	-1.964029e+01
1.162874e+02	-1.969036e+01
1.169591e+02	-1.974110e+01
1.176347e+02	-1.978937e+01
1.183141e+02	-1.983913e+01
1.189975e+02	-1.989054e+01
1.196848e+02	-1.993820e+01
1.203761e+02	-1.998892e+01
1.210714e+02	-2.003806e+01
1.217707e+02	-2.008848e+01
1.224740e+02	-2.013635e+01
1.231814e+02	-2.018712e+01
1.238929e+02	-2.023393e+01
1.246085e+02	-2.028531e+01
1.253283e+02	-2.033423e+01
1.260522e+02	-2.038485e+01
1.267802e+02	-2.043373e+01
1.275125e+02	-2.048275e+01
1.282490e+02	-2.053359e+01
1.289898e+02	-2.058403e+01
1.297348e+02	-2.063115e+01
1.304842e+02	-2.068109e+01
1.312378e+02	-2.073148e+01
1.319959e+02	-2.078044e+01
1.327583e+02	-2.082954e+01
1.335251e+02	-2.088049e+01
1.342963e+02	-2.092954e+01
1.350720e+02	-2.097836e+01
1.358522e+02	-2.102957e+01
1.366368e+02	-2.107915e+01
1.374260e+02	-2.113007e+01
1.382198e+02	-2.117946e+01
1.390182e+02	-2.122613e+01
1.398211e+02	-2.127866e+01
1.406287e+02	-2.132842e+01
1.414410e+02	-2.137736e+01
1.422579e+02	-2.142568e+01
1.430796e+02	-2.147566e+01
1.439060e+02	-2.152621e+01
1.447372e+02	-2.157384e+01
1.455732e+02	-2.162628e+01
1.464141e+02	-2.167452e+01
1.472597e+02	-2.172332e+01
1.481103e+02	-2.177277e+01
1.489658e+02	-2.182371e+01
1.498262e+02	-2.187198e+01
1.506916e+02	-2.192253e+01
1.515620e+02	-2.197337e+01
1.524374e+02	-2.202141e+01
1.533179e+02	-2.207277e+01
1.542034e+02	-2.212274e+01
1.550941e+02	-2.217333e+01
1.559899e+02	-2.222176e+01
1.568909e+02	-2.227100e+01
1.577971e+02	-2.232353e+01
1.587085e+02	-2.237182e+01
1.596252e+02	-2.242108e+01
1.605472e+02	-2.246932e+01
1.614745e+02	-2.252154e+01
1.624072e+02	-2.256992e+01
1.633453e+02	-2.261848e+01
1.642887e+02	-2.267024e+01
1.652377e+02	-2.272045e+01
1.661921e+02	-2.276925e+01
1.671520e+02	-2.281894e+01
1.681175e+02	-2.286836e+01
1.690885e+02	-2.291960e+01
1.700651e+02	-2.296805e+01
1.710474e+02	-2.301807e+01
1.720354e+02	-2.307119e+01
1.730291e+02	-2.311937e+01
1.740285e+02	-2.316766e+01
1.750337e+02	-2.321698e+01
1.760446e+02	-2.326648e+01
1.770615e+02	-2.331489e+01
1.780842e+02	-2.336762e+01
1.791128e+02	-2.341570e+01
1.801473e+02	-2.346600e+01
1.811878e+02	-2.351733e+01
1.822344e+02	-2.356462e+01
1.832870e+02	-2.361700e+01
1.843456e+02	-2.366916e+01
1.854104e+02	-2.371504e+01
1.864813e+02	-2.376560e+01
1.875584e+02	-2.381367e+01
1.886418e+02	-2.386697e+01
1.897313e+02	-2.391468e+01
1.908272e+02	-2.396395e+01
1.919294e+02	-2.401678e+01
1.930380e+02	-2.406320e+01
1.941530e+02	-2.411555e+01
1.952744e+02	-2.416452e+01
1.964023e+02	-2.421570e+01
1.975367e+02	-2.426522e+01
1.986777e+02	-2.431448e+01
1.998252e+02	-2.436336e+01
2.009794e+02	-2.441398e+01
2.021403e+02	-2.446388e+01
2.033078e+02	-2.451078e+01
2.044821e+02	-2.456517e+01
2.056632e+02	-2.461521e+01
2.068511e+02	-2.466271e+01
2.080459e+02	-2.471126e+01
2.092475e+02	-2.476542e+01
2.104561e+02	-2.481344e+01
2.116717e+02	-2.486100e+01
2.128943e+02	-2.491284e+01
2.141240e+02	-2.496038e+01
2.153608e+02	-2.501170e+01
2.166047e+02	-2.505834e+01
2.178558e+02	-2.511136e+01
2.191141e+02	-2.516036e+01
2.203797e+02	-2.520980e+01
2.216526e+02	-2.526215e+01
2.229329e+02	-2.531432e+01
2.242205e+02	-2.536050e+01
2.255156e+02	-2.541028e+01
2.268182e+02	-2.546114e+01
2.281283e+02	-2.551422e+01
2.294459e+02	-2.556250e+01
2.307712e+02	-2.561098e+01
2.321041e+02	-2.566136e+01
2.334447e+02	-2.571129e+01
2.347931e+02	-2.576122e+01
2.361493e+02	-2.580978e+01
2.375133e+02	-2.586385e+01
2.388851e+02	-2.590874e+01
2.402649e+02	-2.596153e+01
2.416527e+02	-2.601329e+01
2.430484e+02	-2.605969e+01
2.444523e+02	-2.610935e+01
2.458642e+02	-2.616149e+01
2.472843e+02	-2.621162e+01
2.487126e+02	-2.626210e+01
2.501492e+02	-2.630890e+01
2.515940e+02	-2.636141e+01
2.530472e+02	-2.640831e+01
2.545088e+02	-2.646148e+01
2.559789e+02	-2.651242e+01
2.574574e+02	-2.655965e+01
2.589444e+02	-2.661282e+01
2.604401e+02	-2.666122e+01
2.619444e+02	-2.670855e+01
2.634574e+02	-2.676072e+01
2.649791e+02	-2.681096e+01
2.665096e+02	-2.686039e+01
2.680489e+02	-2.690700e+01
2.695972e+02	-2.695983e+01
2.711544e+02	-2.700889e+01
2.727205e+02	-2.705985e+01
2.742958e+02	-2.710835e+01
2.758801e+02	-2.715834e+01
2.774736e+02	-2.720833e+01
2.790762e+02	-2.725912e+01
2.806882e+02	-2.731014e+01
2.823094e+02	-2.736242e+01
2.839400e+02	-2.741043e+01
2.855800e+02	-2.745974e+01
2.872295e+02	-2.751347e+01
2.888886e+02	-2.755958e+01
2.905572e+02	-2.761354e+01
2.922354e+02	-2.765701e+01
2.939234e+02	-2.770929e+01
2.956211e+02	-2.775559e+01
2.973286e+02	-2.781323e+01
2.990459e+02	-2.785942e+01
3.007732e+02	-2.790714e+01
3.025104e+02	-2.795948e+01
3.042577e+02	-2.801098e+01
3.060151e+02	-2.805663e+01
3.077826e+02	-2.810976e+01
3.095604e+02	-2.815881e+01
3.113484e+02	-2.821116e+01
3.131467e+02	-2.825256e+01
3.149554e+02	-2.830846e+01
3.167746e+02	-2.835737e+01
3.186043e+02	-2.841057e+01
3.204445e+02	-2.845479e+01
3.222954e+02	-2.851114e+01
3.241570e+02	-2.855724e+01
3.260293e+02	-2.861142e+01
3.279124e+02	-2.866060e+01
3.298064e+02	-2.870683e+01
3.317114e+02	-2.875979e+01
3.336273e+02	-2.880643e+01
3.355544e+02	-2.886017e+01
3.374925e+02	-2.891089e+01
3.394418e+02	-2.895859e+01
3.414024e+02	-2.900899e+01
3.433744e+02	-2.905664e+01
3.453577e+02	-2.911285e+01
3.473525e+02	-2.915903e+01
3.493588e+02	-2.921250e+01
3.513766e+02	-2.926321e+01
3.534062e+02	-2.931358e+01
3.554474e+02	-2.935992e+01
3.575005e+02	-2.941242e+01
3.595654e+02	-2.946217e+01
3.616422e+02	-2.951241e+01
3.637311e+02	-2.956337e+01
3.658320e+02	-2.961279e+01
3.679450e+02	-2.966404e+01
3.700702e+02	-2.970965e+01
3.722077e+02	-2.976415e+01
3.743576e+02	-2.981210e+01
3.765199e+02	-2.986013e+01
3.786946e+02	-2.991037e+01
3.808820e+02	-2.996005e+01
3.830819e+02	-3.001247e+01
3.852946e+02	-3.005958e+01
3.875200e+02	-3.011175e+01
3.897583e+02	-3.016440e+01
3.920096e+02	-3.020943e+01
3.942738e+02	-3.026340e+01
3.965511e+02	-3.030850e+01
3.988416e+02	-3.035984e+01
4.011452e+02	-3.040620e+01
4.034622e+02	-3.046007e+01
4.057926e+02	-3.050997e+01
4.081365e+02	-3.056142e+01
4.104938e+02	-3.060952e+01
4.128648e+02	-3.065919e+01
4.152495e+02	-3.071974e+01
4.176480e+02	-3.076718e+01
4.200603e+02	-3.081336e+01
4.224866e+02	-3.086460e+01
4.249268e+02	-3.091606e+01
4.273812e+02	-3.096619e+01
4.298497e+02	-3.101405e+01
4.323325e+02	-3.105988e+01
4.348297e+02	-3.111460e+01
4.373412e+02	-3.115579e+01
4.398673e+02	-3.121246e+01
4.424079e+02	-3.126532e+01
4.449633e+02	-3.131977e+01
4.475334e+02	-3.136371e+01
4.501183e+02	-3.141494e+01
4.527182e+02	-3.146855e+01
4.553330e+02	-3.151720e+01
4.579630e+02	-3.156700e+01
4.606082e+02	-3.161751e+01
4.632687e+02	-3.166957e+01
4.659445e+02	-3.171555e+01
4.686358e+02	-3.176469e+01
4.713426e+02	-3.181839e+01
4.740650e+02	-3.186483e+01
4.768032e+02	-3.191369e+01
4.795572e+02	-3.196937e+01
4.823271e+02	-3.201827e+01
4.851130e+02	-3.206501e+01
4.879150e+02	-3.212287e+01
4.907332e+02	-3.216429e+01
4.935676e+02	-3.221320e+01
4.964185e+02	-3.227111e+01
4.992858e+02	-3.231447e+01
5.021696e+02	-3.236999e+01
5.050701e+02	-3.242066e+01
5.079874e+02	-3.246468e+01
5.109215e+02	-3.251850e+01
5.138726e+02	-3.257023e+01
5.168407e+02	-3.261701e+01
5.198259e+02	-3.267479e+01
5.228284e+02	-3.271510e+01
5.258482e+02	-3.276838e+01
5.288855e+02	-3.281620e+01
5.319403e+02	-3.287350e+01
5.350128e+02	-3.291716e+01
5.381030e+02	-3.297088e+01
5.412111e+02	-3.302482e+01
5.443371e+02	-3.307553e+01
5.474812e+02	-3.312022e+01
5.506434e+02	-3.317200e+01
5.538239e+02	-3.321930e+01
5.570228e+02	-3.326733e+01
5.602401e+02	-3.332307e+01
5.634760e+02	-3.337398e+01
5.667306e+02	-3.342261e+01
5.700040e+02	-3.347250e+01
5.732964e+02	-3.351492e+01
5.766077e+02	-3.357720e+01
5.799382e+02	-3.362375e+01
5.832879e+02	-3.367827e+01
5.866569e+02	-3.371891e+01
5.900454e+02	-3.378016e+01
5.934535e+02	-3.382568e+01
5.968813e+02	-3.387196e+01
6.003288e+02	-3.392886e+01
6.037963e+02	-3.397382e+01
6.072838e+02	-3.401778e+01
6.107914e+02	-3.407569e+01
6.143194e+02	-3.412030e+01
6.178676e+02	-3.416986e+01
6.214364e+02	-3.423515e+01
6.250258e+02	-3.428920e+01
6.286359e+02	-3.432138e+01
6.322669e+02	-3.437494e+01
6.359189e+02	-3.442936e+01
6.395919e+02	-3.448017e+01
6.432862e+02	-3.452968e+01
6.470017e+02	-3.457299e+01
6.507388e+02	-3.463364e+01
6.544974e+02	-3.468260e+01
6.582778e+02	-3.473439e+01
6.620800e+02	-3.477908e+01
6.659041e+02	-3.482815e+01
6.697504e+02	-3.488274e+01
6.736188e+02	-3.492810e+01
6.775096e+02	-3.497173e+01
6.814229e+02	-3.503439e+01
6.853587e+02	-3.507876e+01
6.893173e+02	-3.512953e+01
6.932988e+02	-3.518259e+01
6.973033e+02	-3.523482e+01
7.013309e+02	-3.527935e+01
