Frequency(Hz)	Magnitude(dB)
1.000000e+01	-2.257919e+00
1.005776e+01	-2.278082e+00
1.011585e+01	-2.298863e+00
1.017428e+01	-2.319340e+00
1.023305e+01	-2.340268e+00
1.029215e+01	-2.361171e+00
1.035160e+01	-2.382102e+00
1.041139e+01	-2.403421e+00
1.047153e+01	-2.424633e+00
1.053201e+01	-2.445999e+00
1.059284e+01	-2.467641e+00
1.065403e+01	-2.489549e+00
1.071556e+01	-2.511331e+00
1.077746e+01	-2.533396e+00
1.083971e+01	-2.555460e+00
1.090232e+01	-2.578120e+00
1.096529e+01	-2.600375e+00
1.102862e+01	-2.623069e+00
1.109232e+01	-2.645438e+00
1.115639e+01	-2.668564e+00
1.122083e+01	-2.691832e+00
1.128564e+01	-2.714740e+00
1.135083e+01	-2.738084e+00
1.141639e+01	-2.761860e+00
1.148233e+01	-2.785294e+00
1.154865e+01	-2.808823e+00
1.161536e+01	-2.832875e+00
1.168245e+01	-2.856835e+00
1.174992e+01	-2.881149e+00
1.181779e+01	-2.905483e+00
1.188605e+01	-2.930055e+00
1.195470e+01	-2.954525e+00
1.202375e+01	-2.979459e+00
1.209320e+01	-3.004205e+00
1.216305e+01	-3.029134e+00
1.223330e+01	-3.054487e+00
1.230396e+01	-3.079687e+00
1.237503e+01	-3.105234e+00
1.244651e+01	-3.130790e+00
1.251840e+01	-3.156819e+00
1.259070e+01	-3.182475e+00
1.266343e+01	-3.208463e+00
1.273657e+01	-3.234917e+00
1.281014e+01	-3.261353e+00
1.288413e+01	-3.287703e+00
1.295855e+01	-3.314168e+00
1.303339e+01	-3.340973e+00
1.310867e+01	-3.368249e+00
1.318439e+01	-3.395170e+00
1.326054e+01	-3.422231e+00
1.333713e+01	-3.449676e+00
1.341417e+01	-3.477034e+00
1.349165e+01	-3.504685e+00
1.356958e+01	-3.532587e+00
1.364795e+01	-3.560287e+00
1.372678e+01	-3.588581e+00
1.380607e+01	-3.616562e+00
1.388581e+01	-3.644966e+00
1.396602e+01	-3.673507e+00
1.404668e+01	-3.702216e+00
1.412782e+01	-3.730786e+00
1.420942e+01	-3.759681e+00
1.429149e+01	-3.788856e+00
1.437404e+01	-3.818227e+00
1.445706e+01	-3.847350e+00
1.454057e+01	-3.876989e+00
1.462455e+01	-3.906490e+00
1.470902e+01	-3.936302e+00
1.479398e+01	-3.966180e+00
1.487943e+01	-3.996012e+00
1.496537e+01	-4.026130e+00
1.505181e+01	-4.056864e+00
1.513875e+01	-4.086968e+00
1.522619e+01	-4.117640e+00
1.531414e+01	-4.148497e+00
1.540259e+01	-4.179073e+00
1.549156e+01	-4.210137e+00
1.558103e+01	-4.241209e+00
1.567103e+01	-4.272451e+00
1.576155e+01	-4.304127e+00
1.585258e+01	-4.335514e+00
1.594415e+01	-4.367207e+00
1.603624e+01	-4.398897e+00
1.612886e+01	-4.430507e+00
1.622202e+01	-4.462831e+00
1.631572e+01	-4.495085e+00
1.640996e+01	-4.527362e+00
1.650474e+01	-4.559734e+00
1.660008e+01	-4.592314e+00
1.669596e+01	-4.625127e+00
1.679239e+01	-4.657867e+00
1.688938e+01	-4.690941e+00
1.698694e+01	-4.724089e+00
1.708505e+01	-4.757238e+00
1.718373e+01	-4.790778e+00
1.728299e+01	-4.824166e+00
1.738281e+01	-4.857933e+00
1.748322e+01	-4.891516e+00
1.758420e+01	-4.925324e+00
1.768576e+01	-4.959472e+00
1.778792e+01	-4.993296e+00
1.789066e+01	-5.027611e+00
1.799399e+01	-5.062082e+00
1.809793e+01	-5.096573e+00
1.820246e+01	-5.131084e+00
1.830760e+01	-5.166021e+00
1.841334e+01	-5.200795e+00
1.851969e+01	-5.235876e+00
1.862666e+01	-5.270733e+00
1.873425e+01	-5.305942e+00
1.884246e+01	-5.341188e+00
1.895129e+01	-5.376960e+00
1.906075e+01	-5.412397e+00
1.917085e+01	-5.448363e+00
1.928158e+01	-5.483803e+00
1.939295e+01	-5.520193e+00
1.950496e+01	-5.556134e+00
1.961762e+01	-5.592215e+00
1.973093e+01	-5.628345e+00
1.984490e+01	-5.664981e+00
1.995952e+01	-5.701369e+00
2.007480e+01	-5.737855e+00
2.019076e+01	-5.774515e+00
2.030738e+01	-5.811719e+00
2.042467e+01	-5.848039e+00
2.054264e+01	-5.885586e+00
2.066130e+01	-5.922712e+00
2.078064e+01	-5.959817e+00
2.090066e+01	-5.997627e+00
2.102139e+01	-6.034839e+00
2.114280e+01	-6.072516e+00
2.126492e+01	-6.110256e+00
2.138775e+01	-6.147887e+00
2.151128e+01	-6.186007e+00
2.163553e+01	-6.223762e+00
2.176050e+01	-6.262179e+00
2.188619e+01	-6.300587e+00
2.201260e+01	-6.338685e+00
2.213974e+01	-6.377256e+00
2.226762e+01	-6.415956e+00
2.239624e+01	-6.454502e+00
2.252560e+01	-6.493304e+00
2.265571e+01	-6.532074e+00
2.278656e+01	-6.570803e+00
2.291818e+01	-6.609996e+00
2.305055e+01	-6.649413e+00
2.318369e+01	-6.688494e+00
2.331760e+01	-6.727891e+00
2.345228e+01	-6.766848e+00
2.358774e+01	-6.806874e+00
2.372398e+01	-6.846974e+00
2.386101e+01	-6.886182e+00
2.399883e+01	-6.926044e+00
2.413745e+01	-6.966198e+00
2.427686e+01	-7.005607e+00
2.441709e+01	-7.045775e+00
2.455812e+01	-7.085958e+00
2.469997e+01	-7.126565e+00
2.484263e+01	-7.166938e+00
2.498612e+01	-7.207297e+00
2.513044e+01	-7.247382e+00
2.527559e+01	-7.288635e+00
2.542158e+01	-7.329292e+00
2.556842e+01	-7.370567e+00
2.571610e+01	-7.410595e+00
2.586463e+01	-7.452365e+00
2.601403e+01	-7.493227e+00
2.616428e+01	-7.533862e+00
2.631541e+01	-7.575256e+00
2.646740e+01	-7.616769e+00
2.662028e+01	-7.658061e+00
2.677404e+01	-7.698990e+00
2.692868e+01	-7.741267e+00
2.708422e+01	-7.782642e+00
2.724066e+01	-7.824205e+00
2.739800e+01	-7.866327e+00
2.755625e+01	-7.908538e+00
2.771541e+01	-7.950281e+00
2.787550e+01	-7.992328e+00
2.803650e+01	-8.034476e+00
2.819844e+01	-8.076801e+00
2.836131e+01	-8.118589e+00
2.852513e+01	-8.161486e+00
2.868989e+01	-8.203430e+00
2.885560e+01	-8.246238e+00
2.902227e+01	-8.288621e+00
2.918990e+01	-8.331722e+00
2.935850e+01	-8.374468e+00
2.952807e+01	-8.417060e+00
2.969863e+01	-8.459879e+00
2.987016e+01	-8.502448e+00
3.004269e+01	-8.545956e+00
3.021622e+01	-8.588868e+00
3.039075e+01	-8.631721e+00
3.056628e+01	-8.675095e+00
3.074283e+01	-8.718707e+00
3.092040e+01	-8.761590e+00
3.109900e+01	-8.804759e+00
3.127862e+01	-8.848432e+00
3.145929e+01	-8.892450e+00
3.164099e+01	-8.935696e+00
3.182375e+01	-8.979208e+00
3.200756e+01	-9.023709e+00
3.219244e+01	-9.066769e+00
3.237838e+01	-9.110416e+00
3.256540e+01	-9.154986e+00
3.275349e+01	-9.198840e+00
3.294268e+01	-9.242822e+00
3.313295e+01	-9.286597e+00
3.332433e+01	-9.331128e+00
3.351681e+01	-9.374925e+00
3.371040e+01	-9.419758e+00
3.390511e+01	-9.463685e+00
3.410094e+01	-9.508056e+00
3.429791e+01	-9.552399e+00
3.449601e+01	-9.597517e+00
3.469526e+01	-9.641321e+00
3.489566e+01	-9.686479e+00
3.509721e+01	-9.730944e+00
3.529993e+01	-9.775469e+00
3.550382e+01	-9.820261e+00
3.570889e+01	-9.865601e+00
3.591515e+01	-9.910431e+00
3.612259e+01	-9.955328e+00
3.633123e+01	-1.000027e+01
3.654108e+01	-1.004521e+01
3.675214e+01	-1.009035e+01
3.696442e+01	-1.013512e+01
3.717792e+01	-1.018072e+01
3.739266e+01	-1.022606e+01
3.760864e+01	-1.027171e+01
3.782587e+01	-1.031668e+01
3.804435e+01	-1.036275e+01
3.826409e+01	-1.040703e+01
3.848510e+01	-1.045310e+01
3.870739e+01	-1.049864e+01
3.893096e+01	-1.054417e+01
3.915583e+01	-1.059021e+01
3.938199e+01	-1.063576e+01
3.960946e+01	-1.068095e+01
3.983824e+01	-1.072676e+01
4.006834e+01	-1.077262e+01
4.029978e+01	-1.081876e+01
4.053255e+01	-1.086459e+01
4.076666e+01	-1.091001e+01
4.100213e+01	-1.095579e+01
4.123896e+01	-1.100271e+01
4.147715e+01	-1.104868e+01
4.171672e+01	-1.109487e+01
4.195767e+01	-1.114062e+01
4.220002e+01	-1.118696e+01
4.244377e+01	-1.123331e+01
4.268892e+01	-1.127953e+01
4.293549e+01	-1.132558e+01
4.318348e+01	-1.137262e+01
4.343291e+01	-1.141844e+01
4.368377e+01	-1.146495e+01
4.393609e+01	-1.151202e+01
4.418986e+01	-1.155824e+01
4.444510e+01	-1.160442e+01
4.470182e+01	-1.165207e+01
4.496001e+01	-1.169817e+01
4.521970e+01	-1.174402e+01
4.548089e+01	-1.179079e+01
4.574358e+01	-1.183750e+01
4.600779e+01	-1.188495e+01
4.627353e+01	-1.193213e+01
4.654081e+01	-1.197835e+01
4.680963e+01	-1.202575e+01
4.708000e+01	-1.207218e+01
4.735193e+01	-1.211912e+01
4.762543e+01	-1.216622e+01
4.790051e+01	-1.221334e+01
4.817719e+01	-1.225958e+01
4.845545e+01	-1.230721e+01
4.873533e+01	-1.235423e+01
4.901682e+01	-1.240083e+01
4.929994e+01	-1.244812e+01
4.958470e+01	-1.249534e+01
4.987110e+01	-1.254284e+01
5.015915e+01	-1.259042e+01
5.044887e+01	-1.263727e+01
5.074026e+01	-1.268452e+01
5.103333e+01	-1.273192e+01
5.132810e+01	-1.277957e+01
5.162457e+01	-1.282627e+01
5.192275e+01	-1.287463e+01
5.222265e+01	-1.292229e+01
5.252429e+01	-1.296935e+01
5.282767e+01	-1.301675e+01
5.313280e+01	-1.306457e+01
5.343969e+01	-1.311220e+01
5.374836e+01	-1.315964e+01
5.405880e+01	-1.320673e+01
5.437105e+01	-1.325524e+01
5.468509e+01	-1.330214e+01
5.500095e+01	-1.334921e+01
5.531863e+01	-1.339743e+01
5.563815e+01	-1.344538e+01
5.595951e+01	-1.349372e+01
5.628273e+01	-1.354152e+01
5.660782e+01	-1.358845e+01
5.693479e+01	-1.363636e+01
5.726364e+01	-1.368498e+01
5.759439e+01	-1.373370e+01
5.792705e+01	-1.378007e+01
5.826164e+01	-1.382863e+01
5.859815e+01	-1.387582e+01
5.893662e+01	-1.392420e+01
5.927703e+01	-1.397199e+01
5.961941e+01	-1.402041e+01
5.996377e+01	-1.406920e+01
6.031012e+01	-1.411636e+01
6.065847e+01	-1.416472e+01
6.100883e+01	-1.421294e+01
6.136121e+01	-1.426147e+01
6.171563e+01	-1.430976e+01
6.207210e+01	-1.435621e+01
6.243063e+01	-1.440507e+01
6.279122e+01	-1.445365e+01
6.315390e+01	-1.450219e+01
6.351868e+01	-1.454994e+01
6.388556e+01	-1.459823e+01
6.425456e+01	-1.464749e+01
6.462569e+01	-1.469540e+01
6.499897e+01	-1.474335e+01
6.537440e+01	-1.479227e+01
6.575200e+01	-1.483945e+01
6.613178e+01	-1.488930e+01
6.651375e+01	-1.493742e+01
6.689793e+01	-1.498499e+01
6.728433e+01	-1.503412e+01
6.767297e+01	-1.508246e+01
6.806384e+01	-1.513054e+01
6.845698e+01	-1.517987e+01
6.885238e+01	-1.522779e+01
6.925007e+01	-1.527686e+01
6.965005e+01	-1.532554e+01
7.005235e+01	-1.537383e+01
7.045697e+01	-1.542242e+01
7.086393e+01	-1.547061e+01
7.127323e+01	-1.552044e+01
7.168490e+01	-1.556793e+01
7.209895e+01	-1.561653e+01
7.251539e+01	-1.566472e+01
7.293424e+01	-1.571429e+01
7.335551e+01	-1.576292e+01
7.377920e+01	-1.581159e+01
7.420535e+01	-1.586020e+01
7.463396e+01	-1.590885e+01
7.506504e+01	-1.595875e+01
7.549861e+01	-1.600548e+01
7.593469e+01	-1.605441e+01
7.637328e+01	-1.610375e+01
7.681441e+01	-1.615345e+01
7.725809e+01	-1.620201e+01
7.770433e+01	-1.625179e+01
7.815315e+01	-1.630089e+01
7.860456e+01	-1.634847e+01
7.905857e+01	-1.639695e+01
7.951521e+01	-1.644671e+01
7.997449e+01	-1.649490e+01
8.043642e+01	-1.654369e+01
8.090102e+01	-1.659291e+01
8.136830e+01	-1.664137e+01
8.183828e+01	-1.669071e+01
8.231097e+01	-1.673940e+01
8.278640e+01	-1.678853e+01
8.326457e+01	-1.683826e+01
8.374550e+01	-1.688671e+01
8.422921e+01	-1.693533e+01
8.471572e+01	-1.698414e+01
8.520503e+01	-1.703225e+01
8.569717e+01	-1.708258e+01
8.619215e+01	-1.713169e+01
8.669000e+01	-1.718139e+01
8.719071e+01	-1.722910e+01
8.769432e+01	-1.727811e+01
8.820084e+01	-1.732843e+01
8.871029e+01	-1.737754e+01
8.922267e+01	-1.742691e+01
8.973802e+01	-1.747532e+01
9.025634e+01	-1.752553e+01
9.077766e+01	-1.757333e+01
9.130199e+01	-1.762290e+01
9.182935e+01	-1.767216e+01
9.235975e+01	-1.771921e+01
9.289321e+01	-1.777017e+01
9.342976e+01	-1.781953e+01
9.396941e+01	-1.786794e+01
9.451217e+01	-1.791671e+01
9.505807e+01	-1.796816e+01
9.560712e+01	-1.801779e+01
9.615934e+01	-1.806618e+01
9.671476e+01	-1.811428e+01
9.727338e+01	-1.816443e+01
9.783522e+01	-1.821291e+01
9.840032e+01	-1.826281e+01
9.896867e+01	-1.831276e+01
9.954031e+01	-1.836162e+01
1.001153e+02	-1.840968e+01
1.006935e+02	-1.845999e+01
1.012751e+02	-1.850958e+01
1.018601e+02	-1.855895e+01
1.024484e+02	-1.860823e+01
1.030402e+02	-1.865594e+01
1.036353e+02	-1.870623e+01
1.042339e+02	-1.875608e+01
1.048360e+02	-1.880614e+01
1.054415e+02	-1.885563e+01
1.060505e+02	-1.890410e+01
1.066631e+02	-1.895344e+01
1.072791e+02	-1.900299e+01
1.078988e+02	-1.905113e+01
1.085220e+02	-1.910108e+01
1.091488e+02	-1.914981e+01
1.097793e+02	-1.920080e+01
1.104133e+02	-1.925129e+01
1.110511e+02	-1.929928e+01
1.116925e+02	-1.934852e+01
1.123376e+02	-1.939795e+01
1.129865e+02	-1.944889e+01
1.136391e+02	-1.949727e+01
1.142955e+02	-1.954709e+01
1.149556e+02	-1.959793e+01
1.156196e+02	-1.964554e+01
1.162874e+02	-1.969542e+01
1.169591e+02	-1.974444e+01
1.176347e+02	-1.979424e+01
1.183141e+02	-1.984375e+01
1.189975e+02	-1.989472e+01
1.196848e+02	-1.994210e+01
1.203761e+02	-1.999230e+01
1.210714e+02	-2.004073e+01
1.217707e+02	-2.009164e+01
1.224740e+02	-2.014221e+01
1.231814e+02	-2.018965e+01
1.238929e+02	-2.024051e+01
1.246085e+02	-2.028957e+01
1.253283e+02	-2.033959e+01
1.260522e+02	-2.038878e+01
1.267802e+02	-2.043797e+01
1.275125e+02	-2.048853e+01
1.282490e+02	-2.053826e+01
1.289898e+02	-2.058816e+01
1.297348e+02	-2.063626e+01
1.304842e+02	-2.068688e+01
1.312378e+02	-2.073618e+01
1.319959e+02	-2.078451e+01
1.327583e+02	-2.083596e+01
1.335251e+02	-2.088352e+01
1.342963e+02	-2.093546e+01
1.350720e+02	-2.098589e+01
1.358522e+02	-2.103306e+01
1.366368e+02	-2.108373e+01
1.374260e+02	-2.113426e+01
1.382198e+02	-2.118435e+01
1.390182e+02	-2.123217e+01
1.398211e+02	-2.128431e+01
1.406287e+02	-2.133440e+01
1.414410e+02	-2.138193e+01
1.422579e+02	-2.142955e+01
1.430796e+02	-2.148136e+01
1.439060e+02	-2.153093e+01
1.447372e+02	-2.158092e+01
1.455732e+02	-2.162993e+01
1.464141e+02	-2.168112e+01
1.472597e+02	-2.173130e+01
1.481103e+02	-2.177932e+01
1.489658e+02	-2.182907e+01
1.498262e+02	-2.187770e+01
1.506916e+02	-2.192952e+01
1.515620e+02	-2.197679e+01
1.524374e+02	-2.202911e+01
1.533179e+02	-2.207783e+01
1.542034e+02	-2.212699e+01
1.550941e+02	-2.217784e+01
1.559899e+02	-2.222714e+01
1.568909e+02	-2.227501e+01
1.577971e+02	-2.232675e+01
1.587085e+02	-2.237654e+01
1.596252e+02	-2.242467e+01
1.605472e+02	-2.247600e+01
1.614745e+02	-2.252613e+01
1.624072e+02	-2.257673e+01
1.633453e+02	-2.262391e+01
1.642887e+02	-2.267294e+01
1.652377e+02	-2.272443e+01
1.661921e+02	-2.277295e+01
1.671520e+02	-2.282464e+01
1.681175e+02	-2.287388e+01
1.690885e+02	-2.292502e+01
1.700651e+02	-2.297331e+01
1.710474e+02	-2.302191e+01
1.720354e+02	-2.307306e+01
1.730291e+02	-2.312204e+01
1.740285e+02	-2.317371e+01
1.750337e+02	-2.322109e+01
1.760446e+02	-2.327264e+01
1.770615e+02	-2.332026e+01
1.780842e+02	-2.337302e+01
1.791128e+02	-2.342120e+01
1.801473e+02	-2.347199e+01
1.811878e+02	-2.351925e+01
1.822344e+02	-2.357098e+01
1.832870e+02	-2.362395e+01
1.843456e+02	-2.367019e+01
1.854104e+02	-2.372052e+01
1.864813e+02	-2.377243e+01
1.875584e+02	-2.382117e+01
1.886418e+02	-2.387107e+01
1.897313e+02	-2.391978e+01
1.908272e+02	-2.396854e+01
1.919294e+02	-2.401887e+01
1.930380e+02	-2.407087e+01
1.941530e+02	-2.411907e+01
1.952744e+02	-2.417024e+01
1.964023e+02	-2.421932e+01
1.975367e+02	-2.426616e+01
1.986777e+02	-2.431819e+01
1.998252e+02	-2.436893e+01
2.009794e+02	-2.441874e+01
2.021403e+02	-2.446656e+01
2.033078e+02	-2.451936e+01
2.044821e+02	-2.456673e+01
2.056632e+02	-2.461600e+01
2.068511e+02	-2.466702e+01
2.080459e+02	-2.471856e+01
2.092475e+02	-2.476869e+01
2.104561e+02	-2.481555e+01
2.116717e+02	-2.486620e+01
2.128943e+02	-2.491868e+01
2.141240e+02	-2.496894e+01
2.153608e+02	-2.501723e+01
2.166047e+02	-2.506987e+01
2.178558e+02	-2.511829e+01
2.191141e+02	-2.516667e+01
2.203797e+02	-2.521746e+01
2.216526e+02	-2.526601e+01
2.229329e+02	-2.531703e+01
2.242205e+02	-2.536509e+01
2.255156e+02	-2.541624e+01
2.268182e+02	-2.547111e+01
2.281283e+02	-2.551485e+01
2.294459e+02	-2.556573e+01
2.307712e+02	-2.561574e+01
2.321041e+02	-2.566460e+01
2.334447e+02	-2.571519e+01
2.347931e+02	-2.576846e+01
2.361493e+02	-2.581239e+01
2.375133e+02	-2.586567e+01
2.388851e+02	-2.591236e+01
2.402649e+02	-2.596514e+01
2.416527e+02	-2.601701e+01
2.430484e+02	-2.606832e+01
2.444523e+02	-2.611411e+01
2.458642e+02	-2.616453e+01
2.472843e+02	-2.621400e+01
2.487126e+02	-2.626449e+01
2.501492e+02	-2.631628e+01
2.515940e+02	-2.636502e+01
2.530472e+02	-2.641639e+01
2.545088e+02	-2.646507e+01
2.559789e+02	-2.651397e+01
2.574574e+02	-2.656187e+01
2.589444e+02	-2.661665e+01
2.604401e+02	-2.666317e+01
2.619444e+02	-2.671735e+01
2.634574e+02	-2.676702e+01
2.649791e+02	-2.681406e+01
2.665096e+02	-2.686363e+01
2.680489e+02	-2.691542e+01
2.695972e+02	-2.696679e+01
2.711544e+02	-2.701652e+01
2.727205e+02	-2.706260e+01
2.742958e+02	-2.711740e+01
2.758801e+02	-2.716383e+01
2.774736e+02	-2.721667e+01
2.790762e+02	-2.726346e+01
2.806882e+02	-2.731478e+01
2.823094e+02	-2.736816e+01
2.839400e+02	-2.741383e+01
2.855800e+02	-2.746414e+01
2.872295e+02	-2.751381e+01
2.888886e+02	-2.756737e+01
2.905572e+02	-2.761368e+01
2.922354e+02	-2.766782e+01
2.939234e+02	-2.771771e+01
2.956211e+02	-2.776737e+01
2.973286e+02	-2.781434e+01
2.990459e+02	-2.786674e+01
3.007732e+02	-2.791500e+01
3.025104e+02	-2.796625e+01
3.042577e+02	-2.801480e+01
3.060151e+02	-2.807029e+01
3.077826e+02	-2.811374e+01
3.095604e+02	-2.816492e+01
3.113484e+02	-2.821386e+01
3.131467e+02	-2.826346e+01
3.149554e+02	-2.831195e+01
3.167746e+02	-2.836162e+01
3.186043e+02	-2.841405e+01
3.204445e+02	-2.846754e+01
3.222954e+02	-2.851622e+01
3.241570e+02	-2.856871e+01
3.260293e+02	-2.861478e+01
3.279124e+02	-2.866110e+01
3.298064e+02	-2.871693e+01
3.317114e+02	-2.877093e+01
3.336273e+02	-2.881766e+01
3.355544e+02	-2.886732e+01
3.374925e+02	-2.891729e+01
3.394418e+02	-2.896542e+01
3.414024e+02	-2.901581e+01
3.433744e+02	-2.906488e+01
3.453577e+02	-2.911405e+01
3.473525e+02	-2.916319e+01
3.493588e+02	-2.921781e+01
3.513766e+02	-2.926316e+01
3.534062e+02	-2.931571e+01
3.554474e+02	-2.936585e+01
3.575005e+02	-2.941613e+01
3.595654e+02	-2.946622e+01
3.616422e+02	-2.951443e+01
3.637311e+02	-2.957004e+01
3.658320e+02	-2.961501e+01
3.679450e+02	-2.966825e+01
3.700702e+02	-2.971496e+01
3.722077e+02	-2.976894e+01
3.743576e+02	-2.981492e+01
3.765199e+02	-2.986734e+01
3.786946e+02	-2.991877e+01
3.808820e+02	-2.996867e+01
3.830819e+02	-3.001527e+01
3.852946e+02	-3.006650e+01
3.875200e+02	-3.011843e+01
3.897583e+02	-3.016706e+01
3.920096e+02	-3.022241e+01
3.942738e+02	-3.027186e+01
3.965511e+02	-3.032068e+01
3.988416e+02	-3.036255e+01
4.011452e+02	-3.042052e+01
4.034622e+02	-3.046865e+01
4.057926e+02	-3.051598e+01
4.081365e+02	-3.056502e+01
4.104938e+02	-3.061767e+01
4.128648e+02	-3.066662e+01
4.152495e+02	-3.071829e+01
4.176480e+02	-3.077143e+01
4.200603e+02	-3.081977e+01
4.224866e+02	-3.086666e+01
4.249268e+02	-3.092125e+01
4.273812e+02	-3.096911e+01
4.298497e+02	-3.101806e+01
4.323325e+02	-3.107177e+01
4.348297e+02	-3.111766e+01
4.373412e+02	-3.117031e+01
4.398673e+02	-3.121982e+01
4.424079e+02	-3.127433e+01
4.449633e+02	-3.131820e+01
4.475334e+02	-3.137106e+01
4.501183e+02	-3.142482e+01
4.527182e+02	-3.146750e+01
4.553330e+02	-3.152683e+01
4.579630e+02	-3.156904e+01
4.606082e+02	-3.161674e+01
4.632687e+02	-3.167163e+01
4.659445e+02	-3.171728e+01
4.686358e+02	-3.177245e+01
4.713426e+02	-3.181991e+01
4.740650e+02	-3.186759e+01
4.768032e+02	-3.192157e+01
4.795572e+02	-3.197765e+01
4.823271e+02	-3.202274e+01
4.851130e+02	-3.207132e+01
4.879150e+02	-3.212606e+01
4.907332e+02	-3.216965e+01
4.935676e+02	-3.222522e+01
4.964185e+02	-3.226831e+01
4.992858e+02	-3.232201e+01
5.021696e+02	-3.237599e+01
5.050701e+02	-3.242689e+01
5.079874e+02	-3.247452e+01
5.109215e+02	-3.252359e+01
5.138726e+02	-3.257436e+01
5.168407e+02	-3.261708e+01
5.198259e+02	-3.267822e+01
5.228284e+02	-3.272756e+01
5.258482e+02	-3.277306e+01
5.288855e+02	-3.282501e+01
5.319403e+02	-3.286980e+01
5.350128e+02	-3.292806e+01
5.381030e+02	-3.297561e+01
5.412111e+02	-3.302430e+01
5.443371e+02	-3.307112e+01
5.474812e+02	-3.312782e+01
5.506434e+02	-3.317459e+01
5.538239e+02	-3.322741e+01
5.570228e+02	-3.327766e+01
5.602401e+02	-3.333458e+01
5.634760e+02	-3.338571e+01
5.667306e+02	-3.343008e+01
5.700040e+02	-3.348244e+01
5.732964e+02	-3.353063e+01
5.766077e+02	-3.357835e+01
5.799382e+02	-3.363001e+01
5.832879e+02	-3.368044e+01
5.866569e+02	-3.372801e+01
5.900454e+02	-3.377617e+01
5.934535e+02	-3.382971e+01
5.968813e+02	-3.388148e+01
6.003288e+02	-3.392603e+01
6.037963e+02	-3.397883e+01
6.072838e+02	-3.402166e+01
6.107914e+02	-3.409024e+01
6.143194e+02	-3.414015e+01
6.178676e+02	-3.418276e+01
6.214364e+02	-3.423393e+01
6.250258e+02	-3.428109e+01
6.286359e+02	-3.433514e+01
6.322669e+02	-3.438619e+01
6.359189e+02	-3.443270e+01
6.395919e+02	-3.448056e+01
6.432862e+02	-3.454271e+01
6.470017e+02	-3.458196e+01
6.507388e+02	-3.462610e+01
6.544974e+02	-3.468123e+01
6.582778e+02	-3.474087e+01
6.620800e+02	-3.478270e+01
6.659041e+02	-3.484289e+01
6.697504e+02	-3.489077e+01
6.736188e+02	-3.494199e+01
6.775096e+02	-3.498409e+01
6.814229e+02	-3.503965e+01
6.853587e+02	-3.508746e+01
6.893173e+02	-3.514070e+01
6.932988e+02	-3.518433e+01
6.973033e+02	-3.523459e+01
7.013309e+02	-3.529727e+01
