Frequency(Hz)	Magnitude(dB)
1.000000e+01	-2.301593e+00
1.005776e+01	-2.322031e+00
1.011585e+01	-2.342877e+00
1.017428e+01	-2.363768e+00
1.023305e+01	-2.384944e+00
1.029215e+01	-2.406038e+00
1.035160e+01	-2.427514e+00
1.041139e+01	-2.448948e+00
1.047153e+01	-2.470570e+00
1.053201e+01	-2.492343e+00
1.059284e+01	-2.514060e+00
1.065403e+01	-2.536572e+00
1.071556e+01	-2.558545e+00
1.077746e+01	-2.580976e+00
1.083971e+01	-2.603244e+00
1.090232e+01	-2.626085e+00
1.096529e+01	-2.648783e+00
1.102862e+01	-2.671554e+00
1.109232e+01	-2.694855e+00
1.115639e+01	-2.717844e+00
1.122083e+01	-2.741397e+00
1.128564e+01	-2.764895e+00
1.135083e+01	-2.788618e+00
1.141639e+01	-2.812092e+00
1.148233e+01	-2.836033e+00
1.154865e+01	-2.860242e+00
1.161536e+01	-2.884268e+00
1.168245e+01	-2.908702e+00
1.174992e+01	-2.932977e+00
1.181779e+01	-2.957977e+00
1.188605e+01	-2.982560e+00
1.195470e+01	-3.007362e+00
1.202375e+01	-3.032643e+00
1.209320e+01	-3.057849e+00
1.216305e+01	-3.083115e+00
1.223330e+01	-3.108583e+00
1.230396e+01	-3.134195e+00
1.237503e+01	-3.160225e+00
1.244651e+01	-3.185837e+00
1.251840e+01	-3.212027e+00
1.259070e+01	-3.238294e+00
1.266343e+01	-3.264517e+00
1.273657e+01	-3.291189e+00
1.281014e+01	-3.317935e+00
1.288413e+01	-3.344465e+00
1.295855e+01	-3.371463e+00
1.303339e+01	-3.398555e+00
1.310867e+01	-3.425524e+00
1.318439e+01	-3.453218e+00
1.326054e+01	-3.480908e+00
1.333713e+01	-3.508437e+00
1.341417e+01	-3.536113e+00
1.349165e+01	-3.564295e+00
1.356958e+01	-3.592102e+00
1.364795e+01	-3.620545e+00
1.372678e+01	-3.648864e+00
1.380607e+01	-3.677367e+00
1.388581e+01	-3.705974e+00
1.396602e+01	-3.734706e+00
1.404668e+01	-3.763538e+00
1.412782e+01	-3.792722e+00
1.420942e+01	-3.821935e+00
1.429149e+01	-3.851387e+00
1.437404e+01	-3.880910e+00
1.445706e+01	-3.910404e+00
1.454057e+01	-3.940030e+00
1.462455e+01	-3.970116e+00
1.470902e+01	-4.000148e+00
1.479398e+01	-4.030424e+00
1.487943e+01	-4.060470e+00
1.496537e+01	-4.090968e+00
1.505181e+01	-4.121528e+00
1.513875e+01	-4.152263e+00
1.522619e+01	-4.183123e+00
1.531414e+01	-4.214272e+00
1.540259e+01	-4.245357e+00
1.549156e+01	-4.276474e+00
1.558103e+01	-4.308059e+00
1.567103e+01	-4.339502e+00
1.576155e+01	-4.371445e+00
1.585258e+01	-4.402992e+00
1.594415e+01	-4.435229e+00
1.603624e+01	-4.467278e+00
1.612886e+01	-4.499246e+00
1.622202e+01	-4.531552e+00
1.631572e+01	-4.563878e+00
1.640996e+01	-4.596677e+00
1.650474e+01	-4.629389e+00
1.660008e+01	-4.662184e+00
1.669596e+01	-4.695339e+00
1.679239e+01	-4.728239e+00
1.688938e+01	-4.761603e+00
1.698694e+01	-4.795216e+00
1.708505e+01	-4.828220e+00
1.718373e+01	-4.862289e+00
1.728299e+01	-4.895817e+00
1.738281e+01	-4.930185e+00
1.748322e+01	-4.963788e+00
1.758420e+01	-4.997653e+00
1.768576e+01	-5.032014e+00
1.778792e+01	-5.066776e+00
1.789066e+01	-5.100787e+00
1.799399e+01	-5.135742e+00
1.809793e+01	-5.170338e+00
1.820246e+01	-5.205486e+00
1.830760e+01	-5.240312e+00
1.841334e+01	-5.275189e+00
1.851969e+01	-5.310701e+00
1.862666e+01	-5.346155e+00
1.873425e+01	-5.381400e+00
1.884246e+01	-5.417413e+00
1.895129e+01	-5.452585e+00
1.906075e+01	-5.488517e+00
1.917085e+01	-5.524790e+00
1.928158e+01	-5.560992e+00
1.939295e+01	-5.596440e+00
1.950496e+01	-5.632974e+00
1.961762e+01	-5.669688e+00
1.973093e+01	-5.705900e+00
1.984490e+01	-5.742478e+00
1.995952e+01	-5.779585e+00
2.007480e+01	-5.816445e+00
2.019076e+01	-5.853277e+00
2.030738e+01	-5.890475e+00
2.042467e+01	-5.927819e+00
2.054264e+01	-5.964597e+00
2.066130e+01	-6.002288e+00
2.078064e+01	-6.039785e+00
2.090066e+01	-6.077824e+00
2.102139e+01	-6.115434e+00
2.114280e+01	-6.152972e+00
2.126492e+01	-6.191095e+00
2.138775e+01	-6.229137e+00
2.151128e+01	-6.267154e+00
2.163553e+01	-6.305380e+00
2.176050e+01	-6.343825e+00
2.188619e+01	-6.382368e+00
2.201260e+01	-6.420651e+00
2.213974e+01	-6.459928e+00
2.226762e+01	-6.498178e+00
2.239624e+01	-6.536968e+00
2.252560e+01	-6.576287e+00
2.265571e+01	-6.615020e+00
2.278656e+01	-6.654234e+00
2.291818e+01	-6.693812e+00
2.305055e+01	-6.733370e+00
2.318369e+01	-6.772627e+00
2.331760e+01	-6.812081e+00
2.345228e+01	-6.852096e+00
2.358774e+01	-6.891245e+00
2.372398e+01	-6.931521e+00
2.386101e+01	-6.971198e+00
2.399883e+01	-7.011009e+00
2.413745e+01	-7.051297e+00
2.427686e+01	-7.091581e+00
2.441709e+01	-7.131809e+00
2.455812e+01	-7.172612e+00
2.469997e+01	-7.212794e+00
2.484263e+01	-7.253177e+00
2.498612e+01	-7.293702e+00
2.513044e+01	-7.334540e+00
2.527559e+01	-7.375559e+00
2.542158e+01	-7.416362e+00
2.556842e+01	-7.457455e+00
2.571610e+01	-7.498797e+00
2.586463e+01	-7.539570e+00
2.601403e+01	-7.580953e+00
2.616428e+01	-7.622531e+00
2.631541e+01	-7.663865e+00
2.646740e+01	-7.704944e+00
2.662028e+01	-7.746461e+00
2.677404e+01	-7.788569e+00
2.692868e+01	-7.830103e+00
2.708422e+01	-7.872011e+00
2.724066e+01	-7.913947e+00
2.739800e+01	-7.955632e+00
2.755625e+01	-7.997934e+00
2.771541e+01	-8.040387e+00
2.787550e+01	-8.082429e+00
2.803650e+01	-8.124470e+00
2.819844e+01	-8.166743e+00
2.836131e+01	-8.209510e+00
2.852513e+01	-8.251860e+00
2.868989e+01	-8.294581e+00
2.885560e+01	-8.337021e+00
2.902227e+01	-8.379830e+00
2.918990e+01	-8.422802e+00
2.935850e+01	-8.465080e+00
2.952807e+01	-8.508406e+00
2.969863e+01	-8.551426e+00
2.987016e+01	-8.594495e+00
3.004269e+01	-8.637816e+00
3.021622e+01	-8.680924e+00
3.039075e+01	-8.724148e+00
3.056628e+01	-8.767702e+00
3.074283e+01	-8.811409e+00
3.092040e+01	-8.854258e+00
3.109900e+01	-8.897872e+00
3.127862e+01	-8.941208e+00
3.145929e+01	-8.984921e+00
3.164099e+01	-9.029075e+00
3.182375e+01	-9.072841e+00
3.200756e+01	-9.116714e+00
3.219244e+01	-9.160465e+00
3.237838e+01	-9.204559e+00
3.256540e+01	-9.248763e+00
3.275349e+01	-9.292196e+00
3.294268e+01	-9.337250e+00
3.313295e+01	-9.381205e+00
3.332433e+01	-9.425391e+00
3.351681e+01	-9.469542e+00
3.371040e+01	-9.514171e+00
3.390511e+01	-9.558483e+00
3.410094e+01	-9.602860e+00
3.429791e+01	-9.647128e+00
3.449601e+01	-9.692562e+00
3.469526e+01	-9.736889e+00
3.489566e+01	-9.781127e+00
3.509721e+01	-9.826402e+00
3.529993e+01	-9.871354e+00
3.550382e+01	-9.915750e+00
3.570889e+01	-9.960963e+00
3.591515e+01	-1.000601e+01
3.612259e+01	-1.005099e+01
3.633123e+01	-1.009591e+01
3.654108e+01	-1.014123e+01
3.675214e+01	-1.018696e+01
3.696442e+01	-1.023181e+01
3.717792e+01	-1.027714e+01
3.739266e+01	-1.032233e+01
3.760864e+01	-1.036771e+01
3.782587e+01	-1.041302e+01
3.804435e+01	-1.045890e+01
3.826409e+01	-1.050438e+01
3.848510e+01	-1.055010e+01
3.870739e+01	-1.059553e+01
3.893096e+01	-1.064142e+01
3.915583e+01	-1.068753e+01
3.938199e+01	-1.073323e+01
3.960946e+01	-1.077853e+01
3.983824e+01	-1.082471e+01
4.006834e+01	-1.087053e+01
4.029978e+01	-1.091601e+01
4.053255e+01	-1.096292e+01
4.076666e+01	-1.100824e+01
4.100213e+01	-1.105419e+01
4.123896e+01	-1.110082e+01
4.147715e+01	-1.114649e+01
4.171672e+01	-1.119335e+01
4.195767e+01	-1.123938e+01
4.220002e+01	-1.128562e+01
4.244377e+01	-1.133198e+01
4.268892e+01	-1.137836e+01
4.293549e+01	-1.142512e+01
4.318348e+01	-1.147054e+01
4.343291e+01	-1.151728e+01
4.368377e+01	-1.156433e+01
4.393609e+01	-1.161105e+01
4.418986e+01	-1.165725e+01
4.444510e+01	-1.170388e+01
4.470182e+01	-1.175046e+01
4.496001e+01	-1.179773e+01
4.521970e+01	-1.184384e+01
4.548089e+01	-1.189094e+01
4.574358e+01	-1.193816e+01
4.600779e+01	-1.198478e+01
4.627353e+01	-1.203111e+01
4.654081e+01	-1.207883e+01
4.680963e+01	-1.212511e+01
4.708000e+01	-1.217218e+01
4.735193e+01	-1.221921e+01
4.762543e+01	-1.226614e+01
4.790051e+01	-1.231350e+01
4.817719e+01	-1.236058e+01
4.845545e+01	-1.240792e+01
4.873533e+01	-1.245491e+01
4.901682e+01	-1.250179e+01
4.929994e+01	-1.254863e+01
4.958470e+01	-1.259602e+01
4.987110e+01	-1.264314e+01
5.015915e+01	-1.269104e+01
5.044887e+01	-1.273818e+01
5.074026e+01	-1.278577e+01
5.103333e+01	-1.283255e+01
5.132810e+01	-1.288038e+01
5.162457e+01	-1.292803e+01
5.192275e+01	-1.297586e+01
5.222265e+01	-1.302345e+01
5.252429e+01	-1.307039e+01
5.282767e+01	-1.311766e+01
5.313280e+01	-1.316573e+01
5.343969e+01	-1.321347e+01
5.374836e+01	-1.326062e+01
5.405880e+01	-1.330848e+01
5.437105e+01	-1.335595e+01
5.468509e+01	-1.340412e+01
5.500095e+01	-1.345144e+01
5.531863e+01	-1.349953e+01
5.563815e+01	-1.354726e+01
5.595951e+01	-1.359573e+01
5.628273e+01	-1.364363e+01
5.660782e+01	-1.369040e+01
5.693479e+01	-1.373836e+01
5.726364e+01	-1.378830e+01
5.759439e+01	-1.383430e+01
5.792705e+01	-1.388216e+01
5.826164e+01	-1.393079e+01
5.859815e+01	-1.397881e+01
5.893662e+01	-1.402744e+01
5.927703e+01	-1.407459e+01
5.961941e+01	-1.412351e+01
5.996377e+01	-1.417088e+01
6.031012e+01	-1.421935e+01
6.065847e+01	-1.426728e+01
6.100883e+01	-1.431578e+01
6.136121e+01	-1.436366e+01
6.171563e+01	-1.441171e+01
6.207210e+01	-1.446038e+01
6.243063e+01	-1.450847e+01
6.279122e+01	-1.455697e+01
6.315390e+01	-1.460510e+01
6.351868e+01	-1.465323e+01
6.388556e+01	-1.470226e+01
6.425456e+01	-1.474923e+01
6.462569e+01	-1.479809e+01
6.499897e+01	-1.484735e+01
6.537440e+01	-1.489492e+01
6.575200e+01	-1.494324e+01
6.613178e+01	-1.499203e+01
6.651375e+01	-1.504039e+01
6.689793e+01	-1.508816e+01
6.728433e+01	-1.513679e+01
6.767297e+01	-1.518556e+01
6.806384e+01	-1.523511e+01
6.845698e+01	-1.528283e+01
6.885238e+01	-1.533145e+01
6.925007e+01	-1.538141e+01
6.965005e+01	-1.542864e+01
7.005235e+01	-1.547705e+01
7.045697e+01	-1.552553e+01
7.086393e+01	-1.557483e+01
7.127323e+01	-1.562302e+01
7.168490e+01	-1.567284e+01
7.209895e+01	-1.572027e+01
7.251539e+01	-1.576873e+01
7.293424e+01	-1.581830e+01
7.335551e+01	-1.586680e+01
7.377920e+01	-1.591500e+01
7.420535e+01	-1.596492e+01
7.463396e+01	-1.601275e+01
7.506504e+01	-1.606147e+01
7.549861e+01	-1.611178e+01
7.593469e+01	-1.615868e+01
7.637328e+01	-1.620795e+01
7.681441e+01	-1.625737e+01
7.725809e+01	-1.630628e+01
7.770433e+01	-1.635523e+01
7.815315e+01	-1.640371e+01
7.860456e+01	-1.645228e+01
7.905857e+01	-1.650048e+01
7.951521e+01	-1.655089e+01
7.997449e+01	-1.659922e+01
8.043642e+01	-1.664833e+01
8.090102e+01	-1.669608e+01
8.136830e+01	-1.674632e+01
8.183828e+01	-1.679506e+01
8.231097e+01	-1.684363e+01
8.278640e+01	-1.689366e+01
8.326457e+01	-1.694068e+01
8.374550e+01	-1.699138e+01
8.422921e+01	-1.704055e+01
8.471572e+01	-1.708872e+01
8.520503e+01	-1.713822e+01
8.569717e+01	-1.718718e+01
8.619215e+01	-1.723626e+01
8.669000e+01	-1.728534e+01
8.719071e+01	-1.733388e+01
8.769432e+01	-1.738170e+01
8.820084e+01	-1.743366e+01
8.871029e+01	-1.748085e+01
8.922267e+01	-1.753066e+01
8.973802e+01	-1.758106e+01
9.025634e+01	-1.762975e+01
9.077766e+01	-1.767903e+01
9.130199e+01	-1.772809e+01
9.182935e+01	-1.777719e+01
9.235975e+01	-1.782602e+01
9.289321e+01	-1.787460e+01
9.342976e+01	-1.792362e+01
9.396941e+01	-1.797308e+01
9.451217e+01	-1.802286e+01
9.505807e+01	-1.807272e+01
9.560712e+01	-1.812067e+01
9.615934e+01	-1.817127e+01
9.671476e+01	-1.821828e+01
9.727338e+01	-1.827086e+01
9.783522e+01	-1.831891e+01
9.840032e+01	-1.836831e+01
9.896867e+01	-1.841707e+01
9.954031e+01	-1.846757e+01
1.001153e+02	-1.851565e+01
1.006935e+02	-1.856429e+01
1.012751e+02	-1.861533e+01
1.018601e+02	-1.866489e+01
1.024484e+02	-1.871338e+01
1.030402e+02	-1.876134e+01
1.036353e+02	-1.881174e+01
1.042339e+02	-1.886113e+01
1.048360e+02	-1.891074e+01
1.054415e+02	-1.896130e+01
1.060505e+02	-1.901044e+01
1.066631e+02	-1.905971e+01
1.072791e+02	-1.910809e+01
1.078988e+02	-1.915882e+01
1.085220e+02	-1.920775e+01
1.091488e+02	-1.925709e+01
1.097793e+02	-1.930583e+01
1.104133e+02	-1.935585e+01
1.110511e+02	-1.940618e+01
1.116925e+02	-1.945394e+01
1.123376e+02	-1.950437e+01
1.129865e+02	-1.955315e+01
1.136391e+02	-1.960331e+01
1.142955e+02	-1.965048e+01
1.149556e+02	-1.970279e+01
1.156196e+02	-1.975191e+01
1.162874e+02	-1.980144e+01
1.169591e+02	-1.984904e+01
1.176347e+02	-1.990057e+01
1.183141e+02	-1.994983e+01
1.189975e+02	-1.999871e+01
1.196848e+02	-2.004739e+01
1.203761e+02	-2.009793e+01
1.210714e+02	-2.014843e+01
1.217707e+02	-2.019682e+01
1.224740e+02	-2.024789e+01
1.231814e+02	-2.029611e+01
1.238929e+02	-2.034542e+01
1.246085e+02	-2.039613e+01
1.253283e+02	-2.044609e+01
1.260522e+02	-2.049416e+01
1.267802e+02	-2.054427e+01
1.275125e+02	-2.059255e+01
1.282490e+02	-2.064252e+01
1.289898e+02	-2.069180e+01
1.297348e+02	-2.074332e+01
1.304842e+02	-2.079253e+01
1.312378e+02	-2.084089e+01
1.319959e+02	-2.089213e+01
1.327583e+02	-2.094253e+01
1.335251e+02	-2.099039e+01
1.342963e+02	-2.103835e+01
1.350720e+02	-2.108999e+01
1.358522e+02	-2.114109e+01
1.366368e+02	-2.118818e+01
1.374260e+02	-2.123915e+01
1.382198e+02	-2.128836e+01
1.390182e+02	-2.133802e+01
1.398211e+02	-2.138909e+01
1.406287e+02	-2.143813e+01
1.414410e+02	-2.148711e+01
1.422579e+02	-2.153889e+01
1.430796e+02	-2.158656e+01
1.439060e+02	-2.163607e+01
1.447372e+02	-2.168604e+01
1.455732e+02	-2.173425e+01
1.464141e+02	-2.178774e+01
1.472597e+02	-2.183505e+01
1.481103e+02	-2.188453e+01
1.489658e+02	-2.193420e+01
1.498262e+02	-2.198648e+01
1.506916e+02	-2.203450e+01
1.515620e+02	-2.208457e+01
1.524374e+02	-2.213307e+01
1.533179e+02	-2.218342e+01
1.542034e+02	-2.223286e+01
1.550941e+02	-2.228247e+01
1.559899e+02	-2.233071e+01
1.568909e+02	-2.238509e+01
1.577971e+02	-2.243305e+01
1.587085e+02	-2.248178e+01
1.596252e+02	-2.253306e+01
1.605472e+02	-2.258315e+01
1.614745e+02	-2.263321e+01
1.624072e+02	-2.267980e+01
1.633453e+02	-2.273131e+01
1.642887e+02	-2.278053e+01
1.652377e+02	-2.283351e+01
1.661921e+02	-2.288035e+01
1.671520e+02	-2.293138e+01
1.681175e+02	-2.297898e+01
1.690885e+02	-2.302652e+01
1.700651e+02	-2.307862e+01
1.710474e+02	-2.312719e+01
1.720354e+02	-2.317964e+01
1.730291e+02	-2.323031e+01
1.740285e+02	-2.327774e+01
1.750337e+02	-2.332802e+01
1.760446e+02	-2.337778e+01
1.770615e+02	-2.342708e+01
1.780842e+02	-2.347850e+01
1.791128e+02	-2.352867e+01
1.801473e+02	-2.357890e+01
1.811878e+02	-2.362636e+01
1.822344e+02	-2.367599e+01
1.832870e+02	-2.372888e+01
1.843456e+02	-2.377554e+01
1.854104e+02	-2.382730e+01
1.864813e+02	-2.387738e+01
1.875584e+02	-2.392724e+01
1.886418e+02	-2.397724e+01
1.897313e+02	-2.402614e+01
1.908272e+02	-2.407425e+01
1.919294e+02	-2.412711e+01
1.930380e+02	-2.417567e+01
1.941530e+02	-2.422306e+01
1.952744e+02	-2.427436e+01
1.964023e+02	-2.432356e+01
1.975367e+02	-2.437545e+01
1.986777e+02	-2.442456e+01
1.998252e+02	-2.447591e+01
2.009794e+02	-2.452446e+01
2.021403e+02	-2.457225e+01
2.033078e+02	-2.462153e+01
2.044821e+02	-2.467513e+01
2.056632e+02	-2.472579e+01
2.068511e+02	-2.477745e+01
2.080459e+02	-2.482453e+01
2.092475e+02	-2.487355e+01
2.104561e+02	-2.492426e+01
2.116717e+02	-2.496916e+01
2.128943e+02	-2.502320e+01
2.141240e+02	-2.507051e+01
2.153608e+02	-2.512357e+01
2.166047e+02	-2.517456e+01
2.178558e+02	-2.522386e+01
2.191141e+02	-2.527195e+01
2.203797e+02	-2.532430e+01
2.216526e+02	-2.537208e+01
2.229329e+02	-2.542562e+01
2.242205e+02	-2.547047e+01
2.255156e+02	-2.552429e+01
2.268182e+02	-2.557026e+01
2.281283e+02	-2.562255e+01
2.294459e+02	-2.567211e+01
2.307712e+02	-2.572274e+01
2.321041e+02	-2.577200e+01
2.334447e+02	-2.581862e+01
2.347931e+02	-2.587109e+01
2.361493e+02	-2.591918e+01
2.375133e+02	-2.596941e+01
2.388851e+02	-2.602102e+01
2.402649e+02	-2.607147e+01
2.416527e+02	-2.612405e+01
2.430484e+02	-2.617341e+01
2.444523e+02	-2.622163e+01
2.458642e+02	-2.627144e+01
2.472843e+02	-2.632284e+01
2.487126e+02	-2.637214e+01
2.501492e+02	-2.641910e+01
2.515940e+02	-2.647212e+01
2.530472e+02	-2.651955e+01
2.545088e+02	-2.656900e+01
2.559789e+02	-2.662432e+01
2.574574e+02	-2.667119e+01
2.589444e+02	-2.672042e+01
2.604401e+02	-2.677168e+01
2.619444e+02	-2.682166e+01
2.634574e+02	-2.686820e+01
2.649791e+02	-2.692219e+01
2.665096e+02	-2.697186e+01
2.680489e+02	-2.702174e+01
2.695972e+02	-2.707078e+01
2.711544e+02	-2.712317e+01
2.727205e+02	-2.717192e+01
2.742958e+02	-2.721775e+01
2.758801e+02	-2.727053e+01
2.774736e+02	-2.732412e+01
2.790762e+02	-2.736951e+01
2.806882e+02	-2.741937e+01
2.823094e+02	-2.747188e+01
2.839400e+02	-2.751882e+01
2.855800e+02	-2.757493e+01
2.872295e+02	-2.762073e+01
2.888886e+02	-2.766782e+01
2.905572e+02	-2.772048e+01
2.922354e+02	-2.777082e+01
2.939234e+02	-2.782433e+01
2.956211e+02	-2.787034e+01
2.973286e+02	-2.791681e+01
2.990459e+02	-2.797072e+01
3.007732e+02	-2.802174e+01
3.025104e+02	-2.806600e+01
3.042577e+02	-2.812395e+01
3.060151e+02	-2.817112e+01
3.077826e+02	-2.822266e+01
3.095604e+02	-2.827147e+01
3.113484e+02	-2.832109e+01
3.131467e+02	-2.836937e+01
3.149554e+02	-2.841898e+01
3.167746e+02	-2.846766e+01
3.186043e+02	-2.851943e+01
3.204445e+02	-2.857172e+01
3.222954e+02	-2.862479e+01
3.241570e+02	-2.866830e+01
3.260293e+02	-2.871767e+01
3.279124e+02	-2.877230e+01
3.298064e+02	-2.881952e+01
3.317114e+02	-2.887118e+01
3.336273e+02	-2.892315e+01
3.355544e+02	-2.896870e+01
3.374925e+02	-2.901287e+01
3.394418e+02	-2.907345e+01
3.414024e+02	-2.911854e+01
3.433744e+02	-2.917179e+01
3.453577e+02	-2.922292e+01
3.473525e+02	-2.927615e+01
3.493588e+02	-2.932410e+01
3.513766e+02	-2.937611e+01
3.534062e+02	-2.941947e+01
3.554474e+02	-2.946912e+01
3.575005e+02	-2.951322e+01
3.595654e+02	-2.956928e+01
3.616422e+02	-2.962029e+01
3.637311e+02	-2.966897e+01
3.658320e+02	-2.972365e+01
3.679450e+02	-2.977679e+01
3.700702e+02	-2.982468e+01
3.722077e+02	-2.987541e+01
3.743576e+02	-2.992311e+01
3.765199e+02	-2.997297e+01
3.786946e+02	-3.002703e+01
3.808820e+02	-3.007223e+01
3.830819e+02	-3.012519e+01
3.852946e+02	-3.017452e+01
3.875200e+02	-3.022234e+01
3.897583e+02	-3.027399e+01
3.920096e+02	-3.032138e+01
3.942738e+02	-3.037046e+01
3.965511e+02	-3.042571e+01
3.988416e+02	-3.047134e+01
4.011452e+02	-3.052547e+01
4.034622e+02	-3.056880e+01
4.057926e+02	-3.062248e+01
4.081365e+02	-3.067598e+01
4.104938e+02	-3.072842e+01
4.128648e+02	-3.077506e+01
4.152495e+02	-3.081935e+01
4.176480e+02	-3.088070e+01
4.200603e+02	-3.092559e+01
4.224866e+02	-3.097562e+01
4.249268e+02	-3.102803e+01
4.273812e+02	-3.107747e+01
4.298497e+02	-3.112610e+01
4.323325e+02	-3.117135e+01
4.348297e+02	-3.122478e+01
4.373412e+02	-3.127374e+01
4.398673e+02	-3.132355e+01
4.424079e+02	-3.137491e+01
4.449633e+02	-3.142694e+01
4.475334e+02	-3.147817e+01
4.501183e+02	-3.152009e+01
4.527182e+02	-3.157786e+01
4.553330e+02	-3.162589e+01
4.579630e+02	-3.167867e+01
4.606082e+02	-3.172364e+01
4.632687e+02	-3.177471e+01
4.659445e+02	-3.182587e+01
4.686358e+02	-3.187763e+01
4.713426e+02	-3.192064e+01
4.740650e+02	-3.197438e+01
4.768032e+02	-3.202746e+01
4.795572e+02	-3.207752e+01
4.823271e+02	-3.213256e+01
4.851130e+02	-3.217774e+01
4.879150e+02	-3.222841e+01
4.907332e+02	-3.227506e+01
4.935676e+02	-3.232382e+01
4.964185e+02	-3.237366e+01
4.992858e+02	-3.242938e+01
5.021696e+02	-3.248035e+01
5.050701e+02	-3.253396e+01
5.079874e+02	-3.257461e+01
5.109215e+02	-3.262764e+01
5.138726e+02	-3.268175e+01
5.168407e+02	-3.273063e+01
5.198259e+02	-3.278021e+01
5.228284e+02	-3.283373e+01
5.258482e+02	-3.288117e+01
5.288855e+02	-3.293264e+01
5.319403e+02	-3.297578e+01
5.350128e+02	-3.302931e+01
5.381030e+02	-3.308326e+01
5.412111e+02	-3.312864e+01
5.443371e+02	-3.318299e+01
5.474812e+02	-3.323587e+01
5.506434e+02	-3.328133e+01
5.538239e+02	-3.332891e+01
5.570228e+02	-3.337857e+01
5.602401e+02	-3.343669e+01
5.634760e+02	-3.348577e+01
5.667306e+02	-3.353629e+01
5.700040e+02	-3.358131e+01
5.732964e+02	-3.363068e+01
5.766077e+02	-3.368197e+01
5.799382e+02	-3.373107e+01
5.832879e+02	-3.378852e+01
5.866569e+02	-3.382526e+01
5.900454e+02	-3.388528e+01
5.934535e+02	-3.393912e+01
5.968813e+02	-3.398792e+01
6.003288e+02	-3.403340e+01
6.037963e+02	-3.408750e+01
6.072838e+02	-3.413917e+01
6.107914e+02	-3.418131e+01
6.143194e+02	-3.424545e+01
6.178676e+02	-3.429016e+01
6.214364e+02	-3.433605e+01
6.250258e+02	-3.439085e+01
6.286359e+02	-3.443746e+01
6.322669e+02	-3.448248e+01
6.359189e+02	-3.453677e+01
6.395919e+02	-3.459622e+01
6.432862e+02	-3.463821e+01
6.470017e+02	-3.468739e+01
6.507388e+02	-3.474497e+01
6.544974e+02	-3.478854e+01
6.582778e+02	-3.482633e+01
6.620800e+02	-3.488689e+01
6.659041e+02	-3.493881e+01
6.697504e+02	-3.498615e+01
6.736188e+02	-3.504565e+01
6.775096e+02	-3.509376e+01
6.814229e+02	-3.513340e+01
6.853587e+02	-3.519317e+01
6.893173e+02	-3.523543e+01
6.932988e+02	-3.529807e+01
6.973033e+02	-3.535015e+01
7.013309e+02	-3.538231e+01
