Frequency(Hz)	Magnitude(dB)
1.000000e+01	-2.168861e+00
1.005776e+01	-2.188578e+00
1.011585e+01	-2.208550e+00
1.017428e+01	-2.228491e+00
1.023305e+01	-2.248707e+00
1.029215e+01	-2.268950e+00
1.035160e+01	-2.289192e+00
1.041139e+01	-2.309761e+00
1.047153e+01	-2.330604e+00
1.053201e+01	-2.351614e+00
1.059284e+01	-2.372513e+00
1.065403e+01	-2.393317e+00
1.071556e+01	-2.414926e+00
1.077746e+01	-2.436099e+00
1.083971e+01	-2.458067e+00
1.090232e+01	-2.479595e+00
1.096529e+01	-2.501273e+00
1.102862e+01	-2.523236e+00
1.109232e+01	-2.545484e+00
1.115639e+01	-2.567615e+00
1.122083e+01	-2.589861e+00
1.128564e+01	-2.612683e+00
1.135083e+01	-2.635366e+00
1.141639e+01	-2.658165e+00
1.148233e+01	-2.680811e+00
1.154865e+01	-2.704080e+00
1.161536e+01	-2.727609e+00
1.168245e+01	-2.750983e+00
1.174992e+01	-2.774441e+00
1.181779e+01	-2.798113e+00
1.188605e+01	-2.821816e+00
1.195470e+01	-2.845853e+00
1.202375e+01	-2.869986e+00
1.209320e+01	-2.894124e+00
1.216305e+01	-2.918671e+00
1.223330e+01	-2.943122e+00
1.230396e+01	-2.968026e+00
1.237503e+01	-2.992677e+00
1.244651e+01	-3.017749e+00
1.251840e+01	-3.042931e+00
1.259070e+01	-3.068109e+00
1.266343e+01	-3.093694e+00
1.273657e+01	-3.118963e+00
1.281014e+01	-3.144692e+00
1.288413e+01	-3.170668e+00
1.295855e+01	-3.196722e+00
1.303339e+01	-3.222949e+00
1.310867e+01	-3.249100e+00
1.318439e+01	-3.275434e+00
1.326054e+01	-3.302035e+00
1.333713e+01	-3.328851e+00
1.341417e+01	-3.355601e+00
1.349165e+01	-3.382796e+00
1.356958e+01	-3.409874e+00
1.364795e+01	-3.436956e+00
1.372678e+01	-3.464532e+00
1.380607e+01	-3.491977e+00
1.388581e+01	-3.519683e+00
1.396602e+01	-3.547515e+00
1.404668e+01	-3.575838e+00
1.412782e+01	-3.603561e+00
1.420942e+01	-3.631983e+00
1.429149e+01	-3.660799e+00
1.437404e+01	-3.688912e+00
1.445706e+01	-3.717837e+00
1.454057e+01	-3.746639e+00
1.462455e+01	-3.775492e+00
1.470902e+01	-3.804569e+00
1.479398e+01	-3.833963e+00
1.487943e+01	-3.863283e+00
1.496537e+01	-3.892756e+00
1.505181e+01	-3.922475e+00
1.513875e+01	-3.952375e+00
1.522619e+01	-3.982157e+00
1.531414e+01	-4.012681e+00
1.540259e+01	-4.042574e+00
1.549156e+01	-4.073154e+00
1.558103e+01	-4.103729e+00
1.567103e+01	-4.134229e+00
1.576155e+01	-4.164928e+00
1.585258e+01	-4.195962e+00
1.594415e+01	-4.226694e+00
1.603624e+01	-4.258283e+00
1.612886e+01	-4.289368e+00
1.622202e+01	-4.320932e+00
1.631572e+01	-4.352641e+00
1.640996e+01	-4.384101e+00
1.650474e+01	-4.416149e+00
1.660008e+01	-4.448165e+00
1.669596e+01	-4.479982e+00
1.679239e+01	-4.512473e+00
1.688938e+01	-4.544703e+00
1.698694e+01	-4.577630e+00
1.708505e+01	-4.609790e+00
1.718373e+01	-4.642905e+00
1.728299e+01	-4.675886e+00
1.738281e+01	-4.708580e+00
1.748322e+01	-4.742229e+00
1.758420e+01	-4.775407e+00
1.768576e+01	-4.808550e+00
1.778792e+01	-4.842110e+00
1.789066e+01	-4.875942e+00
1.799399e+01	-4.909898e+00
1.809793e+01	-4.943621e+00
1.820246e+01	-4.977952e+00
1.830760e+01	-5.011751e+00
1.841334e+01	-5.046357e+00
1.851969e+01	-5.080726e+00
1.862666e+01	-5.115340e+00
1.873425e+01	-5.149989e+00
1.884246e+01	-5.184779e+00
1.895129e+01	-5.219604e+00
1.906075e+01	-5.254565e+00
1.917085e+01	-5.289872e+00
1.928158e+01	-5.325137e+00
1.939295e+01	-5.360843e+00
1.950496e+01	-5.396069e+00
1.961762e+01	-5.431746e+00
1.973093e+01	-5.467443e+00
1.984490e+01	-5.503281e+00
1.995952e+01	-5.539162e+00
2.007480e+01	-5.575456e+00
2.019076e+01	-5.611608e+00
2.030738e+01	-5.647723e+00
2.042467e+01	-5.684624e+00
2.054264e+01	-5.721006e+00
2.066130e+01	-5.757590e+00
2.078064e+01	-5.794351e+00
2.090066e+01	-5.831442e+00
2.102139e+01	-5.868323e+00
2.114280e+01	-5.905935e+00
2.126492e+01	-5.943088e+00
2.138775e+01	-5.979944e+00
2.151128e+01	-6.017797e+00
2.163553e+01	-6.055053e+00
2.176050e+01	-6.092678e+00
2.188619e+01	-6.130590e+00
2.201260e+01	-6.168338e+00
2.213974e+01	-6.206687e+00
2.226762e+01	-6.244520e+00
2.239624e+01	-6.282555e+00
2.252560e+01	-6.321062e+00
2.265571e+01	-6.359659e+00
2.278656e+01	-6.398024e+00
2.291818e+01	-6.436605e+00
2.305055e+01	-6.475499e+00
2.318369e+01	-6.513987e+00
2.331760e+01	-6.553234e+00
2.345228e+01	-6.592094e+00
2.358774e+01	-6.631551e+00
2.372398e+01	-6.670188e+00
2.386101e+01	-6.709654e+00
2.399883e+01	-6.748993e+00
2.413745e+01	-6.788601e+00
2.427686e+01	-6.828163e+00
2.441709e+01	-6.867950e+00
2.455812e+01	-6.907886e+00
2.469997e+01	-6.947580e+00
2.484263e+01	-6.987192e+00
2.498612e+01	-7.027707e+00
2.513044e+01	-7.067453e+00
2.527559e+01	-7.108133e+00
2.542158e+01	-7.148162e+00
2.556842e+01	-7.188508e+00
2.571610e+01	-7.229117e+00
2.586463e+01	-7.270136e+00
2.601403e+01	-7.310414e+00
2.616428e+01	-7.351217e+00
2.631541e+01	-7.392115e+00
2.646740e+01	-7.433339e+00
2.662028e+01	-7.474194e+00
2.677404e+01	-7.515253e+00
2.692868e+01	-7.556413e+00
2.708422e+01	-7.597728e+00
2.724066e+01	-7.639389e+00
2.739800e+01	-7.680798e+00
2.755625e+01	-7.721881e+00
2.771541e+01	-7.764059e+00
2.787550e+01	-7.805719e+00
2.803650e+01	-7.847288e+00
2.819844e+01	-7.889142e+00
2.836131e+01	-7.931081e+00
2.852513e+01	-7.973167e+00
2.868989e+01	-8.015103e+00
2.885560e+01	-8.057233e+00
2.902227e+01	-8.099345e+00
2.918990e+01	-8.141900e+00
2.935850e+01	-8.184390e+00
2.952807e+01	-8.226809e+00
2.969863e+01	-8.269307e+00
2.987016e+01	-8.312179e+00
3.004269e+01	-8.354667e+00
3.021622e+01	-8.397697e+00
3.039075e+01	-8.440110e+00
3.056628e+01	-8.483159e+00
3.074283e+01	-8.525937e+00
3.092040e+01	-8.569129e+00
3.109900e+01	-8.611981e+00
3.127862e+01	-8.655152e+00
3.145929e+01	-8.698390e+00
3.164099e+01	-8.742075e+00
3.182375e+01	-8.785379e+00
3.200756e+01	-8.828610e+00
3.219244e+01	-8.872152e+00
3.237838e+01	-8.915758e+00
3.256540e+01	-8.959701e+00
3.275349e+01	-9.002901e+00
3.294268e+01	-9.046712e+00
3.313295e+01	-9.090351e+00
3.332433e+01	-9.134399e+00
3.351681e+01	-9.178569e+00
3.371040e+01	-9.222687e+00
3.390511e+01	-9.266365e+00
3.410094e+01	-9.311133e+00
3.429791e+01	-9.354472e+00
3.449601e+01	-9.398931e+00
3.469526e+01	-9.443668e+00
3.489566e+01	-9.487781e+00
3.509721e+01	-9.532586e+00
3.529993e+01	-9.577026e+00
3.550382e+01	-9.621364e+00
3.570889e+01	-9.665475e+00
3.591515e+01	-9.710227e+00
3.612259e+01	-9.755562e+00
3.633123e+01	-9.799906e+00
3.654108e+01	-9.844613e+00
3.675214e+01	-9.889487e+00
3.696442e+01	-9.934878e+00
3.717792e+01	-9.979923e+00
3.739266e+01	-1.002492e+01
3.760864e+01	-1.006996e+01
3.782587e+01	-1.011493e+01
3.804435e+01	-1.016003e+01
3.826409e+01	-1.020500e+01
3.848510e+01	-1.025063e+01
3.870739e+01	-1.029635e+01
3.893096e+01	-1.034119e+01
3.915583e+01	-1.038659e+01
3.938199e+01	-1.043232e+01
3.960946e+01	-1.047798e+01
3.983824e+01	-1.052310e+01
4.006834e+01	-1.056935e+01
4.029978e+01	-1.061466e+01
4.053255e+01	-1.066042e+01
4.076666e+01	-1.070575e+01
4.100213e+01	-1.075168e+01
4.123896e+01	-1.079764e+01
4.147715e+01	-1.084325e+01
4.171672e+01	-1.088899e+01
4.195767e+01	-1.093502e+01
4.220002e+01	-1.098151e+01
4.244377e+01	-1.102744e+01
4.268892e+01	-1.107370e+01
4.293549e+01	-1.112009e+01
4.318348e+01	-1.116532e+01
4.343291e+01	-1.121224e+01
4.368377e+01	-1.125771e+01
4.393609e+01	-1.130459e+01
4.418986e+01	-1.135094e+01
4.444510e+01	-1.139743e+01
4.470182e+01	-1.144429e+01
4.496001e+01	-1.149009e+01
4.521970e+01	-1.153642e+01
4.548089e+01	-1.158215e+01
4.574358e+01	-1.162928e+01
4.600779e+01	-1.167626e+01
4.627353e+01	-1.172285e+01
4.654081e+01	-1.176992e+01
4.680963e+01	-1.181696e+01
4.708000e+01	-1.186283e+01
4.735193e+01	-1.191003e+01
4.762543e+01	-1.195646e+01
4.790051e+01	-1.200400e+01
4.817719e+01	-1.205099e+01
4.845545e+01	-1.209777e+01
4.873533e+01	-1.214440e+01
4.901682e+01	-1.219154e+01
4.929994e+01	-1.223747e+01
4.958470e+01	-1.228562e+01
4.987110e+01	-1.233259e+01
5.015915e+01	-1.237957e+01
5.044887e+01	-1.242704e+01
5.074026e+01	-1.247409e+01
5.103333e+01	-1.252139e+01
5.132810e+01	-1.256899e+01
5.162457e+01	-1.261598e+01
5.192275e+01	-1.266349e+01
5.222265e+01	-1.270994e+01
5.252429e+01	-1.275779e+01
5.282767e+01	-1.280555e+01
5.313280e+01	-1.285249e+01
5.343969e+01	-1.290061e+01
5.374836e+01	-1.294730e+01
5.405880e+01	-1.299513e+01
5.437105e+01	-1.304222e+01
5.468509e+01	-1.309021e+01
5.500095e+01	-1.313786e+01
5.531863e+01	-1.318529e+01
5.563815e+01	-1.323236e+01
5.595951e+01	-1.328101e+01
5.628273e+01	-1.332851e+01
5.660782e+01	-1.337617e+01
5.693479e+01	-1.342444e+01
5.726364e+01	-1.347227e+01
5.759439e+01	-1.351958e+01
5.792705e+01	-1.356717e+01
5.826164e+01	-1.361534e+01
5.859815e+01	-1.366326e+01
5.893662e+01	-1.371058e+01
5.927703e+01	-1.375887e+01
5.961941e+01	-1.380647e+01
5.996377e+01	-1.385327e+01
6.031012e+01	-1.390272e+01
6.065847e+01	-1.395137e+01
6.100883e+01	-1.399842e+01
6.136121e+01	-1.404660e+01
6.171563e+01	-1.409428e+01
6.207210e+01	-1.414312e+01
6.243063e+01	-1.419052e+01
6.279122e+01	-1.423848e+01
6.315390e+01	-1.428808e+01
6.351868e+01	-1.433530e+01
6.388556e+01	-1.438384e+01
6.425456e+01	-1.443140e+01
6.462569e+01	-1.448021e+01
6.499897e+01	-1.452775e+01
6.537440e+01	-1.457755e+01
6.575200e+01	-1.462316e+01
6.613178e+01	-1.467174e+01
6.651375e+01	-1.472209e+01
6.689793e+01	-1.477071e+01
6.728433e+01	-1.481769e+01
6.767297e+01	-1.486661e+01
6.806384e+01	-1.491485e+01
6.845698e+01	-1.496424e+01
6.885238e+01	-1.501172e+01
6.925007e+01	-1.506068e+01
6.965005e+01	-1.510946e+01
7.005235e+01	-1.515828e+01
7.045697e+01	-1.520551e+01
7.086393e+01	-1.525464e+01
7.127323e+01	-1.530214e+01
7.168490e+01	-1.535150e+01
7.209895e+01	-1.539944e+01
7.251539e+01	-1.544902e+01
7.293424e+01	-1.549769e+01
7.335551e+01	-1.554566e+01
7.377920e+01	-1.559421e+01
7.420535e+01	-1.564287e+01
7.463396e+01	-1.569204e+01
7.506504e+01	-1.574170e+01
7.549861e+01	-1.578836e+01
7.593469e+01	-1.583886e+01
7.637328e+01	-1.588606e+01
7.681441e+01	-1.593475e+01
7.725809e+01	-1.598400e+01
7.770433e+01	-1.603186e+01
7.815315e+01	-1.608152e+01
7.860456e+01	-1.612996e+01
7.905857e+01	-1.617942e+01
7.951521e+01	-1.622871e+01
7.997449e+01	-1.627699e+01
8.043642e+01	-1.632737e+01
8.090102e+01	-1.637452e+01
8.136830e+01	-1.642366e+01
8.183828e+01	-1.647280e+01
8.231097e+01	-1.652113e+01
8.278640e+01	-1.657223e+01
8.326457e+01	-1.661948e+01
8.374550e+01	-1.666770e+01
8.422921e+01	-1.671747e+01
8.471572e+01	-1.676524e+01
8.520503e+01	-1.681523e+01
8.569717e+01	-1.686339e+01
8.619215e+01	-1.691316e+01
8.669000e+01	-1.696226e+01
8.719071e+01	-1.701168e+01
8.769432e+01	-1.706123e+01
8.820084e+01	-1.710941e+01
8.871029e+01	-1.715821e+01
8.922267e+01	-1.720744e+01
8.973802e+01	-1.725590e+01
9.025634e+01	-1.730530e+01
9.077766e+01	-1.735499e+01
9.130199e+01	-1.740472e+01
9.182935e+01	-1.745364e+01
9.235975e+01	-1.750179e+01
9.289321e+01	-1.755106e+01
9.342976e+01	-1.760037e+01
9.396941e+01	-1.764961e+01
9.451217e+01	-1.769843e+01
9.505807e+01	-1.774695e+01
9.560712e+01	-1.779753e+01
9.615934e+01	-1.784609e+01
9.671476e+01	-1.789441e+01
9.727338e+01	-1.794369e+01
9.783522e+01	-1.799523e+01
9.840032e+01	-1.804329e+01
9.896867e+01	-1.809132e+01
9.954031e+01	-1.814164e+01
1.001153e+02	-1.819040e+01
1.006935e+02	-1.824009e+01
1.012751e+02	-1.828926e+01
1.018601e+02	-1.833836e+01
1.024484e+02	-1.838648e+01
1.030402e+02	-1.843886e+01
1.036353e+02	-1.848679e+01
1.042339e+02	-1.853661e+01
1.048360e+02	-1.858486e+01
1.054415e+02	-1.863459e+01
1.060505e+02	-1.868412e+01
1.066631e+02	-1.873372e+01
1.072791e+02	-1.878290e+01
1.078988e+02	-1.883113e+01
1.085220e+02	-1.888137e+01
1.091488e+02	-1.893129e+01
1.097793e+02	-1.897934e+01
1.104133e+02	-1.903039e+01
1.110511e+02	-1.907881e+01
1.116925e+02	-1.912825e+01
1.123376e+02	-1.917795e+01
1.129865e+02	-1.922699e+01
1.136391e+02	-1.927631e+01
1.142955e+02	-1.932724e+01
1.149556e+02	-1.937606e+01
1.156196e+02	-1.942524e+01
1.162874e+02	-1.947447e+01
1.169591e+02	-1.952451e+01
1.176347e+02	-1.957259e+01
1.183141e+02	-1.962343e+01
1.189975e+02	-1.967410e+01
1.196848e+02	-1.972145e+01
1.203761e+02	-1.977143e+01
1.210714e+02	-1.982149e+01
1.217707e+02	-1.987052e+01
1.224740e+02	-1.992026e+01
1.231814e+02	-1.996801e+01
1.238929e+02	-2.002091e+01
1.246085e+02	-2.006938e+01
1.253283e+02	-2.011669e+01
1.260522e+02	-2.016698e+01
1.267802e+02	-2.021703e+01
1.275125e+02	-2.026637e+01
1.282490e+02	-2.031552e+01
1.289898e+02	-2.036639e+01
1.297348e+02	-2.041579e+01
1.304842e+02	-2.046559e+01
1.312378e+02	-2.051581e+01
1.319959e+02	-2.056299e+01
1.327583e+02	-2.061260e+01
1.335251e+02	-2.066367e+01
1.342963e+02	-2.071374e+01
1.350720e+02	-2.076167e+01
1.358522e+02	-2.081081e+01
1.366368e+02	-2.086166e+01
1.374260e+02	-2.091085e+01
1.382198e+02	-2.096062e+01
1.390182e+02	-2.101063e+01
1.398211e+02	-2.106083e+01
1.406287e+02	-2.110736e+01
1.414410e+02	-2.116027e+01
1.422579e+02	-2.120867e+01
1.430796e+02	-2.125850e+01
1.439060e+02	-2.130879e+01
1.447372e+02	-2.135809e+01
1.455732e+02	-2.140719e+01
1.464141e+02	-2.145772e+01
1.472597e+02	-2.150594e+01
1.481103e+02	-2.155943e+01
1.489658e+02	-2.160501e+01
1.498262e+02	-2.165769e+01
1.506916e+02	-2.170663e+01
1.515620e+02	-2.175839e+01
1.524374e+02	-2.180660e+01
1.533179e+02	-2.185517e+01
1.542034e+02	-2.190568e+01
1.550941e+02	-2.195566e+01
1.559899e+02	-2.200504e+01
1.568909e+02	-2.205527e+01
1.577971e+02	-2.210419e+01
1.587085e+02	-2.215388e+01
1.596252e+02	-2.220250e+01
1.605472e+02	-2.225377e+01
1.614745e+02	-2.230120e+01
1.624072e+02	-2.235263e+01
1.633453e+02	-2.240051e+01
1.642887e+02	-2.245088e+01
1.652377e+02	-2.250570e+01
1.661921e+02	-2.255430e+01
1.671520e+02	-2.260122e+01
1.681175e+02	-2.265154e+01
1.690885e+02	-2.270188e+01
1.700651e+02	-2.274847e+01
1.710474e+02	-2.280029e+01
1.720354e+02	-2.284903e+01
1.730291e+02	-2.289979e+01
1.740285e+02	-2.294968e+01
1.750337e+02	-2.299959e+01
1.760446e+02	-2.304790e+01
1.770615e+02	-2.310146e+01
1.780842e+02	-2.314851e+01
1.791128e+02	-2.320074e+01
1.801473e+02	-2.324988e+01
1.811878e+02	-2.329894e+01
1.822344e+02	-2.334886e+01
1.832870e+02	-2.339704e+01
1.843456e+02	-2.344857e+01
1.854104e+02	-2.349707e+01
1.864813e+02	-2.354865e+01
1.875584e+02	-2.359675e+01
1.886418e+02	-2.364908e+01
1.897313e+02	-2.369896e+01
1.908272e+02	-2.374896e+01
1.919294e+02	-2.379631e+01
1.930380e+02	-2.384754e+01
1.941530e+02	-2.389983e+01
1.952744e+02	-2.394638e+01
1.964023e+02	-2.399515e+01
1.975367e+02	-2.404682e+01
1.986777e+02	-2.409676e+01
1.998252e+02	-2.414726e+01
2.009794e+02	-2.419331e+01
2.021403e+02	-2.424687e+01
2.033078e+02	-2.429376e+01
2.044821e+02	-2.434630e+01
2.056632e+02	-2.439304e+01
2.068511e+02	-2.444514e+01
2.080459e+02	-2.449577e+01
2.092475e+02	-2.454479e+01
2.104561e+02	-2.459510e+01
2.116717e+02	-2.464506e+01
2.128943e+02	-2.469414e+01
2.141240e+02	-2.474451e+01
2.153608e+02	-2.479286e+01
2.166047e+02	-2.484629e+01
2.178558e+02	-2.489334e+01
2.191141e+02	-2.494658e+01
2.203797e+02	-2.499355e+01
2.216526e+02	-2.504612e+01
2.229329e+02	-2.509480e+01
2.242205e+02	-2.514402e+01
2.255156e+02	-2.519399e+01
2.268182e+02	-2.524326e+01
2.281283e+02	-2.529380e+01
2.294459e+02	-2.534629e+01
2.307712e+02	-2.539441e+01
2.321041e+02	-2.544525e+01
2.334447e+02	-2.549129e+01
2.347931e+02	-2.554271e+01
2.361493e+02	-2.559502e+01
2.375133e+02	-2.564323e+01
2.388851e+02	-2.569261e+01
2.402649e+02	-2.574362e+01
2.416527e+02	-2.579360e+01
2.430484e+02	-2.584464e+01
2.444523e+02	-2.589234e+01
2.458642e+02	-2.593879e+01
2.472843e+02	-2.599210e+01
2.487126e+02	-2.603895e+01
2.501492e+02	-2.609495e+01
2.515940e+02	-2.614498e+01
2.530472e+02	-2.619319e+01
2.545088e+02	-2.624198e+01
2.559789e+02	-2.629208e+01
2.574574e+02	-2.634163e+01
2.589444e+02	-2.639272e+01
2.604401e+02	-2.644142e+01
2.619444e+02	-2.649013e+01
2.634574e+02	-2.654309e+01
2.649791e+02	-2.659181e+01
2.665096e+02	-2.664074e+01
2.680489e+02	-2.669456e+01
2.695972e+02	-2.674185e+01
2.711544e+02	-2.679171e+01
2.727205e+02	-2.684121e+01
2.742958e+02	-2.688965e+01
2.758801e+02	-2.693882e+01
2.774736e+02	-2.698940e+01
2.790762e+02	-2.703961e+01
2.806882e+02	-2.709468e+01
2.823094e+02	-2.714154e+01
2.839400e+02	-2.719123e+01
2.855800e+02	-2.724075e+01
2.872295e+02	-2.728866e+01
2.888886e+02	-2.733855e+01
2.905572e+02	-2.739308e+01
2.922354e+02	-2.744473e+01
2.939234e+02	-2.749378e+01
2.956211e+02	-2.753886e+01
2.973286e+02	-2.759491e+01
2.990459e+02	-2.764167e+01
3.007732e+02	-2.769363e+01
3.025104e+02	-2.774167e+01
3.042577e+02	-2.779046e+01
3.060151e+02	-2.783873e+01
3.077826e+02	-2.789200e+01
3.095604e+02	-2.794319e+01
3.113484e+02	-2.799325e+01
3.131467e+02	-2.804341e+01
3.149554e+02	-2.809447e+01
3.167746e+02	-2.814347e+01
3.186043e+02	-2.819250e+01
3.204445e+02	-2.824483e+01
3.222954e+02	-2.829480e+01
3.241570e+02	-2.834373e+01
3.260293e+02	-2.839415e+01
3.279124e+02	-2.844137e+01
3.298064e+02	-2.849130e+01
3.317114e+02	-2.854346e+01
3.336273e+02	-2.859120e+01
3.355544e+02	-2.864134e+01
3.374925e+02	-2.869654e+01
3.394418e+02	-2.873812e+01
3.414024e+02	-2.879157e+01
3.433744e+02	-2.883939e+01
3.453577e+02	-2.889324e+01
3.473525e+02	-2.894445e+01
3.493588e+02	-2.899271e+01
3.513766e+02	-2.904307e+01
3.534062e+02	-2.908691e+01
3.554474e+02	-2.914057e+01
3.575005e+02	-2.919123e+01
3.595654e+02	-2.924434e+01
3.616422e+02	-2.929313e+01
3.637311e+02	-2.934604e+01
3.658320e+02	-2.939517e+01
3.679450e+02	-2.944029e+01
3.700702e+02	-2.949605e+01
3.722077e+02	-2.954055e+01
3.743576e+02	-2.959719e+01
3.765199e+02	-2.964554e+01
3.786946e+02	-2.969247e+01
3.808820e+02	-2.974196e+01
3.830819e+02	-2.979223e+01
3.852946e+02	-2.984949e+01
3.875200e+02	-2.989326e+01
3.897583e+02	-2.994494e+01
3.920096e+02	-2.999615e+01
3.942738e+02	-3.004119e+01
3.965511e+02	-3.009666e+01
3.988416e+02	-3.014311e+01
4.011452e+02	-3.019155e+01
4.034622e+02	-3.024297e+01
4.057926e+02	-3.029341e+01
4.081365e+02	-3.034356e+01
4.104938e+02	-3.039856e+01
4.128648e+02	-3.044608e+01
4.152495e+02	-3.049172e+01
4.176480e+02	-3.054837e+01
4.200603e+02	-3.059495e+01
4.224866e+02	-3.064807e+01
4.249268e+02	-3.068833e+01
4.273812e+02	-3.074503e+01
4.298497e+02	-3.079409e+01
4.323325e+02	-3.084680e+01
4.348297e+02	-3.089862e+01
4.373412e+02	-3.094392e+01
4.398673e+02	-3.099294e+01
4.424079e+02	-3.104272e+01
4.449633e+02	-3.109293e+01
4.475334e+02	-3.114446e+01
4.501183e+02	-3.120110e+01
4.527182e+02	-3.124837e+01
4.553330e+02	-3.129928e+01
4.579630e+02	-3.135020e+01
4.606082e+02	-3.139230e+01
4.632687e+02	-3.144795e+01
4.659445e+02	-3.149755e+01
4.686358e+02	-3.154813e+01
4.713426e+02	-3.159196e+01
4.740650e+02	-3.165076e+01
4.768032e+02	-3.169719e+01
4.795572e+02	-3.175808e+01
4.823271e+02	-3.178966e+01
4.851130e+02	-3.185242e+01
4.879150e+02	-3.190309e+01
4.907332e+02	-3.194498e+01
4.935676e+02	-3.199767e+01
4.964185e+02	-3.205041e+01
4.992858e+02	-3.210442e+01
5.021696e+02	-3.215070e+01
5.050701e+02	-3.220163e+01
5.079874e+02	-3.225098e+01
5.109215e+02	-3.230403e+01
5.138726e+02	-3.234955e+01
5.168407e+02	-3.240413e+01
5.198259e+02	-3.245231e+01
5.228284e+02	-3.250374e+01
5.258482e+02	-3.255665e+01
5.288855e+02	-3.260142e+01
5.319403e+02	-3.265776e+01
5.350128e+02	-3.270152e+01
5.381030e+02	-3.275034e+01
5.412111e+02	-3.280679e+01
5.443371e+02	-3.285173e+01
5.474812e+02	-3.291407e+01
5.506434e+02	-3.295637e+01
5.538239e+02	-3.299840e+01
5.570228e+02	-3.304869e+01
5.602401e+02	-3.310626e+01
5.634760e+02	-3.314874e+01
5.667306e+02	-3.320515e+01
5.700040e+02	-3.325409e+01
5.732964e+02	-3.330628e+01
5.766077e+02	-3.335497e+01
5.799382e+02	-3.340631e+01
5.832879e+02	-3.345346e+01
5.866569e+02	-3.351036e+01
5.900454e+02	-3.356030e+01
5.934535e+02	-3.360124e+01
5.968813e+02	-3.365676e+01
6.003288e+02	-3.369782e+01
6.037963e+02	-3.375799e+01
6.072838e+02	-3.380592e+01
6.107914e+02	-3.386028e+01
6.143194e+02	-3.390110e+01
6.178676e+02	-3.395017e+01
6.214364e+02	-3.400998e+01
6.250258e+02	-3.405692e+01
6.286359e+02	-3.411519e+01
6.322669e+02	-3.415902e+01
6.359189e+02	-3.421212e+01
6.395919e+02	-3.426597e+01
6.432862e+02	-3.431008e+01
6.470017e+02	-3.435864e+01
6.507388e+02	-3.441228e+01
6.544974e+02	-3.446938e+01
6.582778e+02	-3.451868e+01
6.620800e+02	-3.456514e+01
6.659041e+02	-3.461114e+01
6.697504e+02	-3.466455e+01
6.736188e+02	-3.471138e+01
6.775096e+02	-3.476342e+01
6.814229e+02	-3.480843e+01
6.853587e+02	-3.485805e+01
6.893173e+02	-3.492553e+01
6.932988e+02	-3.496064e+01
6.973033e+02	-3.501645e+01
7.013309e+02	-3.507057e+01
