Frequency(Hz)	Magnitude(dB)
1.000000e+01	-2.048761e+00
1.005776e+01	-2.067598e+00
1.011585e+01	-2.086823e+00
1.017428e+01	-2.105750e+00
1.023305e+01	-2.125141e+00
1.029215e+01	-2.144567e+00
1.035160e+01	-2.164110e+00
1.041139e+01	-2.183773e+00
1.047153e+01	-2.203528e+00
1.053201e+01	-2.223635e+00
1.059284e+01	-2.243719e+00
1.065403e+01	-2.263975e+00
1.071556e+01	-2.284442e+00
1.077746e+01	-2.304805e+00
1.083971e+01	-2.325495e+00
1.090232e+01	-2.346304e+00
1.096529e+01	-2.367244e+00
1.102862e+01	-2.388499e+00
1.109232e+01	-2.409813e+00
1.115639e+01	-2.430859e+00
1.122083e+01	-2.452406e+00
1.128564e+01	-2.474059e+00
1.135083e+01	-2.495752e+00
1.141639e+01	-2.517920e+00
1.148233e+01	-2.539819e+00
1.154865e+01	-2.561985e+00
1.161536e+01	-2.584532e+00
1.168245e+01	-2.607019e+00
1.174992e+01	-2.629766e+00
1.181779e+01	-2.652473e+00
1.188605e+01	-2.675394e+00
1.195470e+01	-2.698414e+00
1.202375e+01	-2.721638e+00
1.209320e+01	-2.744929e+00
1.216305e+01	-2.768443e+00
1.223330e+01	-2.792163e+00
1.230396e+01	-2.816256e+00
1.237503e+01	-2.839866e+00
1.244651e+01	-2.863912e+00
1.251840e+01	-2.888180e+00
1.259070e+01	-2.912695e+00
1.266343e+01	-2.937068e+00
1.273657e+01	-2.961917e+00
1.281014e+01	-2.986482e+00
1.288413e+01	-3.011667e+00
1.295855e+01	-3.036837e+00
1.303339e+01	-3.061917e+00
1.310867e+01	-3.087472e+00
1.318439e+01	-3.112854e+00
1.326054e+01	-3.138477e+00
1.333713e+01	-3.164419e+00
1.341417e+01	-3.190169e+00
1.349165e+01	-3.216436e+00
1.356958e+01	-3.242676e+00
1.364795e+01	-3.269009e+00
1.372678e+01	-3.295443e+00
1.380607e+01	-3.322179e+00
1.388581e+01	-3.349069e+00
1.396602e+01	-3.375955e+00
1.404668e+01	-3.402821e+00
1.412782e+01	-3.430196e+00
1.420942e+01	-3.457708e+00
1.429149e+01	-3.485257e+00
1.437404e+01	-3.512819e+00
1.445706e+01	-3.540699e+00
1.454057e+01	-3.568654e+00
1.462455e+01	-3.596807e+00
1.470902e+01	-3.625218e+00
1.479398e+01	-3.653259e+00
1.487943e+01	-3.682112e+00
1.496537e+01	-3.710601e+00
1.505181e+01	-3.739191e+00
1.513875e+01	-3.768189e+00
1.522619e+01	-3.797438e+00
1.531414e+01	-3.826785e+00
1.540259e+01	-3.855898e+00
1.549156e+01	-3.885599e+00
1.558103e+01	-3.914993e+00
1.567103e+01	-3.945176e+00
1.576155e+01	-3.974934e+00
1.585258e+01	-4.004799e+00
1.594415e+01	-4.035379e+00
1.603624e+01	-4.065790e+00
1.612886e+01	-4.096278e+00
1.622202e+01	-4.126655e+00
1.631572e+01	-4.157319e+00
1.640996e+01	-4.188080e+00
1.650474e+01	-4.219258e+00
1.660008e+01	-4.250527e+00
1.669596e+01	-4.281819e+00
1.679239e+01	-4.313262e+00
1.688938e+01	-4.344811e+00
1.698694e+01	-4.376420e+00
1.708505e+01	-4.408238e+00
1.718373e+01	-4.440361e+00
1.728299e+01	-4.472241e+00
1.738281e+01	-4.504595e+00
1.748322e+01	-4.536854e+00
1.758420e+01	-4.569546e+00
1.768576e+01	-4.602333e+00
1.778792e+01	-4.634713e+00
1.789066e+01	-4.667838e+00
1.799399e+01	-4.700697e+00
1.809793e+01	-4.733853e+00
1.820246e+01	-4.766990e+00
1.830760e+01	-4.800433e+00
1.841334e+01	-4.834156e+00
1.851969e+01	-4.867723e+00
1.862666e+01	-4.901313e+00
1.873425e+01	-4.935281e+00
1.884246e+01	-4.969390e+00
1.895129e+01	-5.003478e+00
1.906075e+01	-5.037887e+00
1.917085e+01	-5.072381e+00
1.928158e+01	-5.106565e+00
1.939295e+01	-5.141386e+00
1.950496e+01	-5.176425e+00
1.961762e+01	-5.211171e+00
1.973093e+01	-5.245931e+00
1.984490e+01	-5.281273e+00
1.995952e+01	-5.316587e+00
2.007480e+01	-5.352012e+00
2.019076e+01	-5.387372e+00
2.030738e+01	-5.422981e+00
2.042467e+01	-5.458926e+00
2.054264e+01	-5.494813e+00
2.066130e+01	-5.530634e+00
2.078064e+01	-5.566863e+00
2.090066e+01	-5.602776e+00
2.102139e+01	-5.639280e+00
2.114280e+01	-5.675619e+00
2.126492e+01	-5.712168e+00
2.138775e+01	-5.748715e+00
2.151128e+01	-5.785923e+00
2.163553e+01	-5.822289e+00
2.176050e+01	-5.859576e+00
2.188619e+01	-5.896660e+00
2.201260e+01	-5.933690e+00
2.213974e+01	-5.971215e+00
2.226762e+01	-6.008215e+00
2.239624e+01	-6.046004e+00
2.252560e+01	-6.083531e+00
2.265571e+01	-6.121217e+00
2.278656e+01	-6.158955e+00
2.291818e+01	-6.197306e+00
2.305055e+01	-6.235224e+00
2.318369e+01	-6.273685e+00
2.331760e+01	-6.311672e+00
2.345228e+01	-6.350114e+00
2.358774e+01	-6.388280e+00
2.372398e+01	-6.427154e+00
2.386101e+01	-6.465634e+00
2.399883e+01	-6.504922e+00
2.413745e+01	-6.543338e+00
2.427686e+01	-6.582797e+00
2.441709e+01	-6.621800e+00
2.455812e+01	-6.660888e+00
2.469997e+01	-6.700159e+00
2.484263e+01	-6.739591e+00
2.498612e+01	-6.779276e+00
2.513044e+01	-6.818071e+00
2.527559e+01	-6.857973e+00
2.542158e+01	-6.897710e+00
2.556842e+01	-6.938213e+00
2.571610e+01	-6.977830e+00
2.586463e+01	-7.017885e+00
2.601403e+01	-7.058342e+00
2.616428e+01	-7.097999e+00
2.631541e+01	-7.138096e+00
2.646740e+01	-7.178718e+00
2.662028e+01	-7.219404e+00
2.677404e+01	-7.259874e+00
2.692868e+01	-7.300675e+00
2.708422e+01	-7.341465e+00
2.724066e+01	-7.382475e+00
2.739800e+01	-7.423373e+00
2.755625e+01	-7.464080e+00
2.771541e+01	-7.505430e+00
2.787550e+01	-7.546761e+00
2.803650e+01	-7.587677e+00
2.819844e+01	-7.628612e+00
2.836131e+01	-7.670336e+00
2.852513e+01	-7.711909e+00
2.868989e+01	-7.753416e+00
2.885560e+01	-7.795705e+00
2.902227e+01	-7.836974e+00
2.918990e+01	-7.878625e+00
2.935850e+01	-7.920898e+00
2.952807e+01	-7.962358e+00
2.969863e+01	-8.004953e+00
2.987016e+01	-8.046768e+00
3.004269e+01	-8.088820e+00
3.021622e+01	-8.131561e+00
3.039075e+01	-8.173854e+00
3.056628e+01	-8.216333e+00
3.074283e+01	-8.258795e+00
3.092040e+01	-8.301420e+00
3.109900e+01	-8.344098e+00
3.127862e+01	-8.386551e+00
3.145929e+01	-8.429591e+00
3.164099e+01	-8.472374e+00
3.182375e+01	-8.515580e+00
3.200756e+01	-8.558371e+00
3.219244e+01	-8.601775e+00
3.237838e+01	-8.644562e+00
3.256540e+01	-8.687632e+00
3.275349e+01	-8.730850e+00
3.294268e+01	-8.774639e+00
3.313295e+01	-8.817720e+00
3.332433e+01	-8.861652e+00
3.351681e+01	-8.904753e+00
3.371040e+01	-8.948630e+00
3.390511e+01	-8.992590e+00
3.410094e+01	-9.036722e+00
3.429791e+01	-9.080149e+00
3.449601e+01	-9.123540e+00
3.469526e+01	-9.167526e+00
3.489566e+01	-9.211707e+00
3.509721e+01	-9.256179e+00
3.529993e+01	-9.300159e+00
3.550382e+01	-9.344010e+00
3.570889e+01	-9.388515e+00
3.591515e+01	-9.432818e+00
3.612259e+01	-9.476844e+00
3.633123e+01	-9.521977e+00
3.654108e+01	-9.565887e+00
3.675214e+01	-9.610098e+00
3.696442e+01	-9.654762e+00
3.717792e+01	-9.699216e+00
3.739266e+01	-9.744223e+00
3.760864e+01	-9.788841e+00
3.782587e+01	-9.833412e+00
3.804435e+01	-9.878476e+00
3.826409e+01	-9.923455e+00
3.848510e+01	-9.968191e+00
3.870739e+01	-1.001390e+01
3.893096e+01	-1.005834e+01
3.915583e+01	-1.010369e+01
3.938199e+01	-1.014908e+01
3.960946e+01	-1.019416e+01
3.983824e+01	-1.023904e+01
4.006834e+01	-1.028480e+01
4.029978e+01	-1.033032e+01
4.053255e+01	-1.037555e+01
4.076666e+01	-1.042034e+01
4.100213e+01	-1.046633e+01
4.123896e+01	-1.051197e+01
4.147715e+01	-1.055780e+01
4.171672e+01	-1.060323e+01
4.195767e+01	-1.064841e+01
4.220002e+01	-1.069429e+01
4.244377e+01	-1.074088e+01
4.268892e+01	-1.078646e+01
4.293549e+01	-1.083231e+01
4.318348e+01	-1.087819e+01
4.343291e+01	-1.092407e+01
4.368377e+01	-1.097025e+01
4.393609e+01	-1.101609e+01
4.418986e+01	-1.106228e+01
4.444510e+01	-1.110793e+01
4.470182e+01	-1.115429e+01
4.496001e+01	-1.120067e+01
4.521970e+01	-1.124719e+01
4.548089e+01	-1.129373e+01
4.574358e+01	-1.133871e+01
4.600779e+01	-1.138567e+01
4.627353e+01	-1.143254e+01
4.654081e+01	-1.147912e+01
4.680963e+01	-1.152516e+01
4.708000e+01	-1.157220e+01
4.735193e+01	-1.161841e+01
4.762543e+01	-1.166508e+01
4.790051e+01	-1.171154e+01
4.817719e+01	-1.175863e+01
4.845545e+01	-1.180516e+01
4.873533e+01	-1.185238e+01
4.901682e+01	-1.189838e+01
4.929994e+01	-1.194535e+01
4.958470e+01	-1.199201e+01
4.987110e+01	-1.203881e+01
5.015915e+01	-1.208668e+01
5.044887e+01	-1.213303e+01
5.074026e+01	-1.218011e+01
5.103333e+01	-1.222657e+01
5.132810e+01	-1.227378e+01
5.162457e+01	-1.232084e+01
5.192275e+01	-1.236907e+01
5.222265e+01	-1.241464e+01
5.252429e+01	-1.246257e+01
5.282767e+01	-1.250923e+01
5.313280e+01	-1.255699e+01
5.343969e+01	-1.260367e+01
5.374836e+01	-1.265149e+01
5.405880e+01	-1.269845e+01
5.437105e+01	-1.274628e+01
5.468509e+01	-1.279314e+01
5.500095e+01	-1.284091e+01
5.531863e+01	-1.288830e+01
5.563815e+01	-1.293617e+01
5.595951e+01	-1.298380e+01
5.628273e+01	-1.303047e+01
5.660782e+01	-1.307854e+01
5.693479e+01	-1.312603e+01
5.726364e+01	-1.317395e+01
5.759439e+01	-1.322191e+01
5.792705e+01	-1.326923e+01
5.826164e+01	-1.331672e+01
5.859815e+01	-1.336413e+01
5.893662e+01	-1.341149e+01
5.927703e+01	-1.346050e+01
5.961941e+01	-1.350690e+01
5.996377e+01	-1.355513e+01
6.031012e+01	-1.360320e+01
6.065847e+01	-1.365066e+01
6.100883e+01	-1.369881e+01
6.136121e+01	-1.374695e+01
6.171563e+01	-1.379473e+01
6.207210e+01	-1.384262e+01
6.243063e+01	-1.389041e+01
6.279122e+01	-1.393949e+01
6.315390e+01	-1.398675e+01
6.351868e+01	-1.403451e+01
6.388556e+01	-1.408309e+01
6.425456e+01	-1.413053e+01
6.462569e+01	-1.417866e+01
6.499897e+01	-1.422688e+01
6.537440e+01	-1.427532e+01
6.575200e+01	-1.432342e+01
6.613178e+01	-1.437163e+01
6.651375e+01	-1.441974e+01
6.689793e+01	-1.446817e+01
6.728433e+01	-1.451594e+01
6.767297e+01	-1.456527e+01
6.806384e+01	-1.461231e+01
6.845698e+01	-1.466124e+01
6.885238e+01	-1.470979e+01
6.925007e+01	-1.475743e+01
6.965005e+01	-1.480683e+01
7.005235e+01	-1.485420e+01
7.045697e+01	-1.490313e+01
7.086393e+01	-1.495112e+01
7.127323e+01	-1.500015e+01
7.168490e+01	-1.504793e+01
7.209895e+01	-1.509689e+01
7.251539e+01	-1.514563e+01
7.293424e+01	-1.519360e+01
7.335551e+01	-1.524160e+01
7.377920e+01	-1.529243e+01
7.420535e+01	-1.533992e+01
7.463396e+01	-1.538746e+01
7.506504e+01	-1.543665e+01
7.549861e+01	-1.548519e+01
7.593469e+01	-1.553326e+01
7.637328e+01	-1.558315e+01
7.681441e+01	-1.563178e+01
7.725809e+01	-1.567948e+01
7.770433e+01	-1.572812e+01
7.815315e+01	-1.577615e+01
7.860456e+01	-1.582654e+01
7.905857e+01	-1.587523e+01
7.951521e+01	-1.592329e+01
7.997449e+01	-1.597293e+01
8.043642e+01	-1.602190e+01
8.090102e+01	-1.606889e+01
8.136830e+01	-1.611819e+01
8.183828e+01	-1.616666e+01
8.231097e+01	-1.621554e+01
8.278640e+01	-1.626498e+01
8.326457e+01	-1.631417e+01
8.374550e+01	-1.636311e+01
8.422921e+01	-1.641147e+01
8.471572e+01	-1.646034e+01
8.520503e+01	-1.650972e+01
8.569717e+01	-1.655854e+01
8.619215e+01	-1.660664e+01
8.669000e+01	-1.665620e+01
8.719071e+01	-1.670559e+01
8.769432e+01	-1.675452e+01
8.820084e+01	-1.680182e+01
8.871029e+01	-1.685154e+01
8.922267e+01	-1.690070e+01
8.973802e+01	-1.694935e+01
9.025634e+01	-1.699873e+01
9.077766e+01	-1.704754e+01
9.130199e+01	-1.709729e+01
9.182935e+01	-1.714660e+01
9.235975e+01	-1.719529e+01
9.289321e+01	-1.724335e+01
9.342976e+01	-1.729382e+01
9.396941e+01	-1.734215e+01
9.451217e+01	-1.739259e+01
9.505807e+01	-1.744101e+01
9.560712e+01	-1.749043e+01
9.615934e+01	-1.753869e+01
9.671476e+01	-1.758798e+01
9.727338e+01	-1.763836e+01
9.783522e+01	-1.768536e+01
9.840032e+01	-1.773569e+01
9.896867e+01	-1.778602e+01
9.954031e+01	-1.783362e+01
1.001153e+02	-1.788211e+01
1.006935e+02	-1.793241e+01
1.012751e+02	-1.798125e+01
1.018601e+02	-1.803082e+01
1.024484e+02	-1.807995e+01
1.030402e+02	-1.812980e+01
1.036353e+02	-1.817911e+01
1.042339e+02	-1.822772e+01
1.048360e+02	-1.827540e+01
1.054415e+02	-1.832625e+01
1.060505e+02	-1.837740e+01
1.066631e+02	-1.842475e+01
1.072791e+02	-1.847524e+01
1.078988e+02	-1.852445e+01
1.085220e+02	-1.857311e+01
1.091488e+02	-1.862133e+01
1.097793e+02	-1.867187e+01
1.104133e+02	-1.872019e+01
1.110511e+02	-1.877007e+01
1.116925e+02	-1.882099e+01
1.123376e+02	-1.886892e+01
1.129865e+02	-1.891840e+01
1.136391e+02	-1.896938e+01
1.142955e+02	-1.901742e+01
1.149556e+02	-1.906719e+01
1.156196e+02	-1.911613e+01
1.162874e+02	-1.916564e+01
1.169591e+02	-1.921676e+01
1.176347e+02	-1.926468e+01
1.183141e+02	-1.931395e+01
1.189975e+02	-1.936299e+01
1.196848e+02	-1.941299e+01
1.203761e+02	-1.946303e+01
1.210714e+02	-1.951156e+01
1.217707e+02	-1.956133e+01
1.224740e+02	-1.961165e+01
1.231814e+02	-1.966106e+01
1.238929e+02	-1.971079e+01
1.246085e+02	-1.975867e+01
1.253283e+02	-1.980905e+01
1.260522e+02	-1.985829e+01
1.267802e+02	-1.990766e+01
1.275125e+02	-1.995786e+01
1.282490e+02	-2.000701e+01
1.289898e+02	-2.005599e+01
1.297348e+02	-2.010635e+01
1.304842e+02	-2.015468e+01
1.312378e+02	-2.020549e+01
1.319959e+02	-2.025489e+01
1.327583e+02	-2.030437e+01
1.335251e+02	-2.035452e+01
1.342963e+02	-2.040269e+01
1.350720e+02	-2.045184e+01
1.358522e+02	-2.050236e+01
1.366368e+02	-2.055117e+01
1.374260e+02	-2.060171e+01
1.382198e+02	-2.065503e+01
1.390182e+02	-2.070103e+01
1.398211e+02	-2.075160e+01
1.406287e+02	-2.079977e+01
1.414410e+02	-2.085062e+01
1.422579e+02	-2.089944e+01
1.430796e+02	-2.095094e+01
1.439060e+02	-2.099899e+01
1.447372e+02	-2.104872e+01
1.455732e+02	-2.109765e+01
1.464141e+02	-2.114659e+01
1.472597e+02	-2.119715e+01
1.481103e+02	-2.124678e+01
1.489658e+02	-2.129689e+01
1.498262e+02	-2.134541e+01
1.506916e+02	-2.139539e+01
1.515620e+02	-2.144787e+01
1.524374e+02	-2.149458e+01
1.533179e+02	-2.154579e+01
1.542034e+02	-2.159496e+01
1.550941e+02	-2.164385e+01
1.559899e+02	-2.169289e+01
1.568909e+02	-2.174589e+01
1.577971e+02	-2.179631e+01
1.587085e+02	-2.184315e+01
1.596252e+02	-2.189460e+01
1.605472e+02	-2.194268e+01
1.614745e+02	-2.199343e+01
1.624072e+02	-2.204158e+01
1.633453e+02	-2.209263e+01
1.642887e+02	-2.214061e+01
1.652377e+02	-2.219209e+01
1.661921e+02	-2.224196e+01
1.671520e+02	-2.229442e+01
1.681175e+02	-2.234043e+01
1.690885e+02	-2.239165e+01
1.700651e+02	-2.244103e+01
1.710474e+02	-2.248877e+01
1.720354e+02	-2.254011e+01
1.730291e+02	-2.259090e+01
1.740285e+02	-2.263850e+01
1.750337e+02	-2.269000e+01
1.760446e+02	-2.273997e+01
1.770615e+02	-2.278639e+01
1.780842e+02	-2.283830e+01
1.791128e+02	-2.288814e+01
1.801473e+02	-2.293770e+01
1.811878e+02	-2.298775e+01
1.822344e+02	-2.303710e+01
1.832870e+02	-2.308823e+01
1.843456e+02	-2.313731e+01
1.854104e+02	-2.318667e+01
1.864813e+02	-2.323610e+01
1.875584e+02	-2.328558e+01
1.886418e+02	-2.333626e+01
1.897313e+02	-2.338449e+01
1.908272e+02	-2.343506e+01
1.919294e+02	-2.348466e+01
1.930380e+02	-2.353747e+01
1.941530e+02	-2.358563e+01
1.952744e+02	-2.363530e+01
1.964023e+02	-2.368479e+01
1.975367e+02	-2.373547e+01
1.986777e+02	-2.378304e+01
1.998252e+02	-2.383507e+01
2.009794e+02	-2.388687e+01
2.021403e+02	-2.393396e+01
2.033078e+02	-2.398656e+01
2.044821e+02	-2.403474e+01
2.056632e+02	-2.408338e+01
2.068511e+02	-2.413191e+01
2.080459e+02	-2.418402e+01
2.092475e+02	-2.423177e+01
2.104561e+02	-2.428110e+01
2.116717e+02	-2.433454e+01
2.128943e+02	-2.438220e+01
2.141240e+02	-2.443474e+01
2.153608e+02	-2.448362e+01
2.166047e+02	-2.453401e+01
2.178558e+02	-2.458278e+01
2.191141e+02	-2.463331e+01
2.203797e+02	-2.468206e+01
2.216526e+02	-2.473194e+01
2.229329e+02	-2.478453e+01
2.242205e+02	-2.483052e+01
2.255156e+02	-2.488187e+01
2.268182e+02	-2.493346e+01
2.281283e+02	-2.498094e+01
2.294459e+02	-2.503093e+01
2.307712e+02	-2.508047e+01
2.321041e+02	-2.513400e+01
2.334447e+02	-2.518345e+01
2.347931e+02	-2.522934e+01
2.361493e+02	-2.528151e+01
2.375133e+02	-2.532918e+01
2.388851e+02	-2.538301e+01
2.402649e+02	-2.543146e+01
2.416527e+02	-2.548102e+01
2.430484e+02	-2.552912e+01
2.444523e+02	-2.558149e+01
2.458642e+02	-2.563095e+01
2.472843e+02	-2.568027e+01
2.487126e+02	-2.572998e+01
2.501492e+02	-2.577875e+01
2.515940e+02	-2.583081e+01
2.530472e+02	-2.587984e+01
2.545088e+02	-2.592814e+01
2.559789e+02	-2.598113e+01
2.574574e+02	-2.603402e+01
2.589444e+02	-2.608150e+01
2.604401e+02	-2.612844e+01
2.619444e+02	-2.617927e+01
2.634574e+02	-2.622919e+01
2.649791e+02	-2.628023e+01
2.665096e+02	-2.632976e+01
2.680489e+02	-2.638047e+01
2.695972e+02	-2.643397e+01
2.711544e+02	-2.647876e+01
2.727205e+02	-2.653364e+01
2.742958e+02	-2.658064e+01
2.758801e+02	-2.662917e+01
2.774736e+02	-2.667939e+01
2.790762e+02	-2.672714e+01
2.806882e+02	-2.678169e+01
2.823094e+02	-2.683013e+01
2.839400e+02	-2.688139e+01
2.855800e+02	-2.692834e+01
2.872295e+02	-2.697851e+01
2.888886e+02	-2.703170e+01
2.905572e+02	-2.708091e+01
2.922354e+02	-2.712694e+01
2.939234e+02	-2.718053e+01
2.956211e+02	-2.722906e+01
2.973286e+02	-2.728098e+01
2.990459e+02	-2.733112e+01
3.007732e+02	-2.737913e+01
3.025104e+02	-2.742997e+01
3.042577e+02	-2.747744e+01
3.060151e+02	-2.752838e+01
3.077826e+02	-2.757681e+01
3.095604e+02	-2.762816e+01
3.113484e+02	-2.767725e+01
3.131467e+02	-2.772905e+01
3.149554e+02	-2.777792e+01
3.167746e+02	-2.782997e+01
3.186043e+02	-2.788066e+01
3.204445e+02	-2.792872e+01
3.222954e+02	-2.797707e+01
3.241570e+02	-2.802862e+01
3.260293e+02	-2.807688e+01
3.279124e+02	-2.812880e+01
3.298064e+02	-2.818407e+01
3.317114e+02	-2.822754e+01
3.336273e+02	-2.828015e+01
3.355544e+02	-2.832632e+01
3.374925e+02	-2.837903e+01
3.394418e+02	-2.842683e+01
3.414024e+02	-2.848045e+01
3.433744e+02	-2.853139e+01
3.453577e+02	-2.857761e+01
3.473525e+02	-2.862872e+01
3.493588e+02	-2.868107e+01
3.513766e+02	-2.872493e+01
3.534062e+02	-2.877885e+01
3.554474e+02	-2.882922e+01
3.575005e+02	-2.888310e+01
3.595654e+02	-2.893567e+01
3.616422e+02	-2.897948e+01
3.637311e+02	-2.902980e+01
3.658320e+02	-2.907776e+01
3.679450e+02	-2.912920e+01
3.700702e+02	-2.918206e+01
3.722077e+02	-2.923058e+01
3.743576e+02	-2.927953e+01
3.765199e+02	-2.933181e+01
3.786946e+02	-2.937834e+01
3.808820e+02	-2.943095e+01
3.830819e+02	-2.947969e+01
3.852946e+02	-2.952873e+01
3.875200e+02	-2.958009e+01
3.897583e+02	-2.963071e+01
3.920096e+02	-2.968100e+01
3.942738e+02	-2.973110e+01
3.965511e+02	-2.977782e+01
3.988416e+02	-2.982543e+01
4.011452e+02	-2.988635e+01
4.034622e+02	-2.992951e+01
4.057926e+02	-2.997799e+01
4.081365e+02	-3.002782e+01
4.104938e+02	-3.008086e+01
4.128648e+02	-3.013004e+01
4.152495e+02	-3.018152e+01
4.176480e+02	-3.023173e+01
4.200603e+02	-3.028514e+01
4.224866e+02	-3.033506e+01
4.249268e+02	-3.038213e+01
4.273812e+02	-3.043242e+01
4.298497e+02	-3.048516e+01
4.323325e+02	-3.052921e+01
4.348297e+02	-3.057868e+01
4.373412e+02	-3.063564e+01
4.398673e+02	-3.068552e+01
4.424079e+02	-3.072944e+01
4.449633e+02	-3.078167e+01
4.475334e+02	-3.083427e+01
4.501183e+02	-3.088115e+01
4.527182e+02	-3.093636e+01
4.553330e+02	-3.098810e+01
4.579630e+02	-3.103986e+01
4.606082e+02	-3.108094e+01
4.632687e+02	-3.113407e+01
4.659445e+02	-3.118548e+01
4.686358e+02	-3.123617e+01
4.713426e+02	-3.128518e+01
4.740650e+02	-3.133661e+01
4.768032e+02	-3.138499e+01
4.795572e+02	-3.143968e+01
4.823271e+02	-3.148472e+01
4.851130e+02	-3.153913e+01
4.879150e+02	-3.158939e+01
4.907332e+02	-3.164036e+01
4.935676e+02	-3.168473e+01
4.964185e+02	-3.173458e+01
4.992858e+02	-3.179011e+01
5.021696e+02	-3.183654e+01
5.050701e+02	-3.189053e+01
5.079874e+02	-3.193375e+01
5.109215e+02	-3.199043e+01
5.138726e+02	-3.203551e+01
5.168407e+02	-3.208987e+01
5.198259e+02	-3.213765e+01
5.228284e+02	-3.218954e+01
5.258482e+02	-3.223508e+01
5.288855e+02	-3.228677e+01
5.319403e+02	-3.233511e+01
5.350128e+02	-3.239145e+01
5.381030e+02	-3.243534e+01
5.412111e+02	-3.248820e+01
5.443371e+02	-3.253517e+01
5.474812e+02	-3.258650e+01
5.506434e+02	-3.263989e+01
5.538239e+02	-3.268950e+01
5.570228e+02	-3.273192e+01
5.602401e+02	-3.277799e+01
5.634760e+02	-3.283962e+01
5.667306e+02	-3.289167e+01
5.700040e+02	-3.293755e+01
5.732964e+02	-3.298565e+01
5.766077e+02	-3.303517e+01
5.799382e+02	-3.309428e+01
5.832879e+02	-3.313701e+01
5.866569e+02	-3.318794e+01
5.900454e+02	-3.324108e+01
5.934535e+02	-3.329862e+01
5.968813e+02	-3.333746e+01
6.003288e+02	-3.339621e+01
6.037963e+02	-3.344590e+01
6.072838e+02	-3.348739e+01
6.107914e+02	-3.354029e+01
6.143194e+02	-3.359605e+01
6.178676e+02	-3.364161e+01
6.214364e+02	-3.369185e+01
6.250258e+02	-3.374574e+01
6.286359e+02	-3.379717e+01
6.322669e+02	-3.384117e+01
6.359189e+02	-3.389427e+01
6.395919e+02	-3.394549e+01
6.432862e+02	-3.399438e+01
6.470017e+02	-3.404122e+01
6.507388e+02	-3.409052e+01
6.544974e+02	-3.413732e+01
6.582778e+02	-3.419283e+01
6.620800e+02	-3.424154e+01
6.659041e+02	-3.430115e+01
6.697504e+02	-3.434028e+01
6.736188e+02	-3.439429e+01
6.775096e+02	-3.444208e+01
6.814229e+02	-3.449935e+01
6.853587e+02	-3.455231e+01
6.893173e+02	-3.458932e+01
6.932988e+02	-3.465002e+01
6.973033e+02	-3.469456e+01
7.013309e+02	-3.475321e+01
