Frequency(Hz)	Magnitude(dB)
1.000000e+01	-2.050714e+00
1.005776e+01	-2.069545e+00
1.011585e+01	-2.088461e+00
1.017428e+01	-2.108065e+00
1.023305e+01	-2.127166e+00
1.029215e+01	-2.146575e+00
1.035160e+01	-2.166150e+00
1.041139e+01	-2.185943e+00
1.047153e+01	-2.205707e+00
1.053201e+01	-2.225869e+00
1.059284e+01	-2.245840e+00
1.065403e+01	-2.265773e+00
1.071556e+01	-2.286570e+00
1.077746e+01	-2.307138e+00
1.083971e+01	-2.327854e+00
1.090232e+01	-2.348409e+00
1.096529e+01	-2.369659e+00
1.102862e+01	-2.390741e+00
1.109232e+01	-2.411865e+00
1.115639e+01	-2.433227e+00
1.122083e+01	-2.454609e+00
1.128564e+01	-2.476309e+00
1.135083e+01	-2.498497e+00
1.141639e+01	-2.520410e+00
1.148233e+01	-2.542445e+00
1.154865e+01	-2.564734e+00
1.161536e+01	-2.587011e+00
1.168245e+01	-2.609529e+00
1.174992e+01	-2.632061e+00
1.181779e+01	-2.654996e+00
1.188605e+01	-2.677901e+00
1.195470e+01	-2.700884e+00
1.202375e+01	-2.724118e+00
1.209320e+01	-2.747714e+00
1.216305e+01	-2.770986e+00
1.223330e+01	-2.794738e+00
1.230396e+01	-2.818674e+00
1.237503e+01	-2.842733e+00
1.244651e+01	-2.866755e+00
1.251840e+01	-2.890919e+00
1.259070e+01	-2.915494e+00
1.266343e+01	-2.939774e+00
1.273657e+01	-2.964456e+00
1.281014e+01	-2.989319e+00
1.288413e+01	-3.014333e+00
1.295855e+01	-3.039325e+00
1.303339e+01	-3.064474e+00
1.310867e+01	-3.089968e+00
1.318439e+01	-3.115670e+00
1.326054e+01	-3.141348e+00
1.333713e+01	-3.167077e+00
1.341417e+01	-3.192911e+00
1.349165e+01	-3.219196e+00
1.356958e+01	-3.245275e+00
1.364795e+01	-3.272036e+00
1.372678e+01	-3.298186e+00
1.380607e+01	-3.325190e+00
1.388581e+01	-3.351786e+00
1.396602e+01	-3.378762e+00
1.404668e+01	-3.406061e+00
1.412782e+01	-3.433417e+00
1.420942e+01	-3.460778e+00
1.429149e+01	-3.488340e+00
1.437404e+01	-3.515902e+00
1.445706e+01	-3.543636e+00
1.454057e+01	-3.571743e+00
1.462455e+01	-3.599747e+00
1.470902e+01	-3.627946e+00
1.479398e+01	-3.656457e+00
1.487943e+01	-3.685100e+00
1.496537e+01	-3.713696e+00
1.505181e+01	-3.742589e+00
1.513875e+01	-3.771406e+00
1.522619e+01	-3.800649e+00
1.531414e+01	-3.829996e+00
1.540259e+01	-3.858990e+00
1.549156e+01	-3.888601e+00
1.558103e+01	-3.918581e+00
1.567103e+01	-3.948229e+00
1.576155e+01	-3.977959e+00
1.585258e+01	-4.008289e+00
1.594415e+01	-4.038509e+00
1.603624e+01	-4.068967e+00
1.612886e+01	-4.099515e+00
1.622202e+01	-4.130001e+00
1.631572e+01	-4.160765e+00
1.640996e+01	-4.191724e+00
1.650474e+01	-4.222219e+00
1.660008e+01	-4.253911e+00
1.669596e+01	-4.285231e+00
1.679239e+01	-4.316431e+00
1.688938e+01	-4.347896e+00
1.698694e+01	-4.379976e+00
1.708505e+01	-4.411963e+00
1.718373e+01	-4.443501e+00
1.728299e+01	-4.476007e+00
1.738281e+01	-4.507940e+00
1.748322e+01	-4.540083e+00
1.758420e+01	-4.572953e+00
1.768576e+01	-4.605755e+00
1.778792e+01	-4.638243e+00
1.789066e+01	-4.671189e+00
1.799399e+01	-4.704287e+00
1.809793e+01	-4.737489e+00
1.820246e+01	-4.770667e+00
1.830760e+01	-4.804153e+00
1.841334e+01	-4.837356e+00
1.851969e+01	-4.871513e+00
1.862666e+01	-4.905146e+00
1.873425e+01	-4.938844e+00
1.884246e+01	-4.972993e+00
1.895129e+01	-5.007030e+00
1.906075e+01	-5.041794e+00
1.917085e+01	-5.075989e+00
1.928158e+01	-5.110523e+00
1.939295e+01	-5.145192e+00
1.950496e+01	-5.179874e+00
1.961762e+01	-5.214786e+00
1.973093e+01	-5.249557e+00
1.984490e+01	-5.284867e+00
1.995952e+01	-5.320350e+00
2.007480e+01	-5.355701e+00
2.019076e+01	-5.391272e+00
2.030738e+01	-5.426597e+00
2.042467e+01	-5.462537e+00
2.054264e+01	-5.498320e+00
2.066130e+01	-5.534432e+00
2.078064e+01	-5.570497e+00
2.090066e+01	-5.606591e+00
2.102139e+01	-5.643156e+00
2.114280e+01	-5.679369e+00
2.126492e+01	-5.715885e+00
2.138775e+01	-5.752675e+00
2.151128e+01	-5.789271e+00
2.163553e+01	-5.826512e+00
2.176050e+01	-5.863366e+00
2.188619e+01	-5.900474e+00
2.201260e+01	-5.937296e+00
2.213974e+01	-5.975014e+00
2.226762e+01	-6.012406e+00
2.239624e+01	-6.050045e+00
2.252560e+01	-6.087586e+00
2.265571e+01	-6.125539e+00
2.278656e+01	-6.163007e+00
2.291818e+01	-6.201287e+00
2.305055e+01	-6.239522e+00
2.318369e+01	-6.277299e+00
2.331760e+01	-6.316071e+00
2.345228e+01	-6.354252e+00
2.358774e+01	-6.392980e+00
2.372398e+01	-6.431446e+00
2.386101e+01	-6.470139e+00
2.399883e+01	-6.508675e+00
2.413745e+01	-6.547509e+00
2.427686e+01	-6.586689e+00
2.441709e+01	-6.625983e+00
2.455812e+01	-6.664969e+00
2.469997e+01	-6.704564e+00
2.484263e+01	-6.743622e+00
2.498612e+01	-6.782955e+00
2.513044e+01	-6.822552e+00
2.527559e+01	-6.862591e+00
2.542158e+01	-6.902179e+00
2.556842e+01	-6.941796e+00
2.571610e+01	-6.982246e+00
2.586463e+01	-7.021960e+00
2.601403e+01	-7.062082e+00
2.616428e+01	-7.102515e+00
2.631541e+01	-7.142808e+00
2.646740e+01	-7.183127e+00
2.662028e+01	-7.223637e+00
2.677404e+01	-7.264281e+00
2.692868e+01	-7.304753e+00
2.708422e+01	-7.345744e+00
2.724066e+01	-7.386621e+00
2.739800e+01	-7.427480e+00
2.755625e+01	-7.468120e+00
2.771541e+01	-7.509467e+00
2.787550e+01	-7.550711e+00
2.803650e+01	-7.592154e+00
2.819844e+01	-7.633387e+00
2.836131e+01	-7.675017e+00
2.852513e+01	-7.716297e+00
2.868989e+01	-7.757808e+00
2.885560e+01	-7.799736e+00
2.902227e+01	-7.841576e+00
2.918990e+01	-7.883393e+00
2.935850e+01	-7.925407e+00
2.952807e+01	-7.967294e+00
2.969863e+01	-8.009878e+00
2.987016e+01	-8.051198e+00
3.004269e+01	-8.093807e+00
3.021622e+01	-8.136358e+00
3.039075e+01	-8.178397e+00
3.056628e+01	-8.220602e+00
3.074283e+01	-8.263577e+00
3.092040e+01	-8.306203e+00
3.109900e+01	-8.348736e+00
3.127862e+01	-8.391348e+00
3.145929e+01	-8.433762e+00
3.164099e+01	-8.476488e+00
3.182375e+01	-8.520297e+00
3.200756e+01	-8.563209e+00
3.219244e+01	-8.605889e+00
3.237838e+01	-8.649300e+00
3.256540e+01	-8.692803e+00
3.275349e+01	-8.735734e+00
3.294268e+01	-8.778976e+00
3.313295e+01	-8.822419e+00
3.332433e+01	-8.865941e+00
3.351681e+01	-8.909833e+00
3.371040e+01	-8.952975e+00
3.390511e+01	-8.996715e+00
3.410094e+01	-9.040584e+00
3.429791e+01	-9.084488e+00
3.449601e+01	-9.128608e+00
3.469526e+01	-9.172537e+00
3.489566e+01	-9.216264e+00
3.509721e+01	-9.260450e+00
3.529993e+01	-9.304694e+00
3.550382e+01	-9.348448e+00
3.570889e+01	-9.393132e+00
3.591515e+01	-9.437243e+00
3.612259e+01	-9.481627e+00
3.633123e+01	-9.525737e+00
3.654108e+01	-9.570423e+00
3.675214e+01	-9.615376e+00
3.696442e+01	-9.659522e+00
3.717792e+01	-9.704573e+00
3.739266e+01	-9.748992e+00
3.760864e+01	-9.793888e+00
3.782587e+01	-9.838437e+00
3.804435e+01	-9.883796e+00
3.826409e+01	-9.928206e+00
3.848510e+01	-9.973206e+00
3.870739e+01	-1.001841e+01
3.893096e+01	-1.006334e+01
3.915583e+01	-1.010883e+01
3.938199e+01	-1.015374e+01
3.960946e+01	-1.019878e+01
3.983824e+01	-1.024452e+01
4.006834e+01	-1.028932e+01
4.029978e+01	-1.033536e+01
4.053255e+01	-1.038035e+01
4.076666e+01	-1.042581e+01
4.100213e+01	-1.047147e+01
4.123896e+01	-1.051698e+01
4.147715e+01	-1.056269e+01
4.171672e+01	-1.060787e+01
4.195767e+01	-1.065404e+01
4.220002e+01	-1.069930e+01
4.244377e+01	-1.074503e+01
4.268892e+01	-1.079158e+01
4.293549e+01	-1.083705e+01
4.318348e+01	-1.088269e+01
4.343291e+01	-1.092867e+01
4.368377e+01	-1.097485e+01
4.393609e+01	-1.102087e+01
4.418986e+01	-1.106679e+01
4.444510e+01	-1.111359e+01
4.470182e+01	-1.115960e+01
4.496001e+01	-1.120536e+01
4.521970e+01	-1.125192e+01
4.548089e+01	-1.129779e+01
4.574358e+01	-1.134438e+01
4.600779e+01	-1.139116e+01
4.627353e+01	-1.143702e+01
4.654081e+01	-1.148433e+01
4.680963e+01	-1.153012e+01
4.708000e+01	-1.157676e+01
4.735193e+01	-1.162330e+01
4.762543e+01	-1.166966e+01
4.790051e+01	-1.171635e+01
4.817719e+01	-1.176353e+01
4.845545e+01	-1.180990e+01
4.873533e+01	-1.185622e+01
4.901682e+01	-1.190332e+01
4.929994e+01	-1.195090e+01
4.958470e+01	-1.199716e+01
4.987110e+01	-1.204436e+01
5.015915e+01	-1.209109e+01
5.044887e+01	-1.213747e+01
5.074026e+01	-1.218475e+01
5.103333e+01	-1.223175e+01
5.132810e+01	-1.227959e+01
5.162457e+01	-1.232628e+01
5.192275e+01	-1.237394e+01
5.222265e+01	-1.242079e+01
5.252429e+01	-1.246735e+01
5.282767e+01	-1.251500e+01
5.313280e+01	-1.256262e+01
5.343969e+01	-1.260986e+01
5.374836e+01	-1.265632e+01
5.405880e+01	-1.270417e+01
5.437105e+01	-1.275096e+01
5.468509e+01	-1.279818e+01
5.500095e+01	-1.284617e+01
5.531863e+01	-1.289330e+01
5.563815e+01	-1.294126e+01
5.595951e+01	-1.298855e+01
5.628273e+01	-1.303589e+01
5.660782e+01	-1.308359e+01
5.693479e+01	-1.313069e+01
5.726364e+01	-1.317847e+01
5.759439e+01	-1.322621e+01
5.792705e+01	-1.327426e+01
5.826164e+01	-1.332218e+01
5.859815e+01	-1.336907e+01
5.893662e+01	-1.341675e+01
5.927703e+01	-1.346501e+01
5.961941e+01	-1.351226e+01
5.996377e+01	-1.355968e+01
6.031012e+01	-1.360912e+01
6.065847e+01	-1.365596e+01
6.100883e+01	-1.370378e+01
6.136121e+01	-1.375224e+01
6.171563e+01	-1.380038e+01
6.207210e+01	-1.384835e+01
6.243063e+01	-1.389611e+01
6.279122e+01	-1.394381e+01
6.315390e+01	-1.399170e+01
6.351868e+01	-1.403980e+01
6.388556e+01	-1.408714e+01
6.425456e+01	-1.413540e+01
6.462569e+01	-1.418361e+01
6.499897e+01	-1.423227e+01
6.537440e+01	-1.428067e+01
6.575200e+01	-1.432844e+01
6.613178e+01	-1.437667e+01
6.651375e+01	-1.442504e+01
6.689793e+01	-1.447363e+01
6.728433e+01	-1.452293e+01
6.767297e+01	-1.457002e+01
6.806384e+01	-1.461821e+01
6.845698e+01	-1.466609e+01
6.885238e+01	-1.471516e+01
6.925007e+01	-1.476227e+01
6.965005e+01	-1.481136e+01
7.005235e+01	-1.485881e+01
7.045697e+01	-1.490756e+01
7.086393e+01	-1.495626e+01
7.127323e+01	-1.500519e+01
7.168490e+01	-1.505431e+01
7.209895e+01	-1.510193e+01
7.251539e+01	-1.515059e+01
7.293424e+01	-1.519824e+01
7.335551e+01	-1.524673e+01
7.377920e+01	-1.529677e+01
7.420535e+01	-1.534459e+01
7.463396e+01	-1.539429e+01
7.506504e+01	-1.544223e+01
7.549861e+01	-1.549121e+01
7.593469e+01	-1.553949e+01
7.637328e+01	-1.558830e+01
7.681441e+01	-1.563659e+01
7.725809e+01	-1.568464e+01
7.770433e+01	-1.573366e+01
7.815315e+01	-1.578147e+01
7.860456e+01	-1.583112e+01
7.905857e+01	-1.587981e+01
7.951521e+01	-1.592860e+01
7.997449e+01	-1.597718e+01
8.043642e+01	-1.602598e+01
8.090102e+01	-1.607548e+01
8.136830e+01	-1.612355e+01
8.183828e+01	-1.617172e+01
8.231097e+01	-1.622082e+01
8.278640e+01	-1.627005e+01
8.326457e+01	-1.631944e+01
8.374550e+01	-1.636637e+01
8.422921e+01	-1.641640e+01
8.471572e+01	-1.646577e+01
8.520503e+01	-1.651409e+01
8.569717e+01	-1.656251e+01
8.619215e+01	-1.661259e+01
8.669000e+01	-1.666020e+01
8.719071e+01	-1.671051e+01
8.769432e+01	-1.675931e+01
8.820084e+01	-1.680775e+01
8.871029e+01	-1.685753e+01
8.922267e+01	-1.690598e+01
8.973802e+01	-1.695368e+01
9.025634e+01	-1.700402e+01
9.077766e+01	-1.705302e+01
9.130199e+01	-1.710215e+01
9.182935e+01	-1.715161e+01
9.235975e+01	-1.720038e+01
9.289321e+01	-1.724917e+01
9.342976e+01	-1.729964e+01
9.396941e+01	-1.734821e+01
9.451217e+01	-1.739624e+01
9.505807e+01	-1.744597e+01
9.560712e+01	-1.749574e+01
9.615934e+01	-1.754523e+01
9.671476e+01	-1.759311e+01
9.727338e+01	-1.764374e+01
9.783522e+01	-1.769345e+01
9.840032e+01	-1.774116e+01
9.896867e+01	-1.779075e+01
9.954031e+01	-1.783931e+01
1.001153e+02	-1.788911e+01
1.006935e+02	-1.793718e+01
1.012751e+02	-1.798622e+01
1.018601e+02	-1.803501e+01
1.024484e+02	-1.808589e+01
1.030402e+02	-1.813467e+01
1.036353e+02	-1.818399e+01
1.042339e+02	-1.823434e+01
1.048360e+02	-1.828162e+01
1.054415e+02	-1.833145e+01
1.060505e+02	-1.838039e+01
1.066631e+02	-1.842991e+01
1.072791e+02	-1.848000e+01
1.078988e+02	-1.852824e+01
1.085220e+02	-1.857728e+01
1.091488e+02	-1.862747e+01
1.097793e+02	-1.867728e+01
1.104133e+02	-1.872629e+01
1.110511e+02	-1.877741e+01
1.116925e+02	-1.882670e+01
1.123376e+02	-1.887423e+01
1.129865e+02	-1.892385e+01
1.136391e+02	-1.897347e+01
1.142955e+02	-1.902366e+01
1.149556e+02	-1.907289e+01
1.156196e+02	-1.912082e+01
1.162874e+02	-1.917216e+01
1.169591e+02	-1.921982e+01
1.176347e+02	-1.926920e+01
1.183141e+02	-1.931911e+01
1.189975e+02	-1.936820e+01
1.196848e+02	-1.941863e+01
1.203761e+02	-1.946795e+01
1.210714e+02	-1.951710e+01
1.217707e+02	-1.956581e+01
1.224740e+02	-1.961698e+01
1.231814e+02	-1.966473e+01
1.238929e+02	-1.971529e+01
1.246085e+02	-1.976482e+01
1.253283e+02	-1.981408e+01
1.260522e+02	-1.986498e+01
1.267802e+02	-1.991338e+01
1.275125e+02	-1.996349e+01
1.282490e+02	-2.001205e+01
1.289898e+02	-2.006039e+01
1.297348e+02	-2.011087e+01
1.304842e+02	-2.016206e+01
1.312378e+02	-2.021068e+01
1.319959e+02	-2.026051e+01
1.327583e+02	-2.030882e+01
1.335251e+02	-2.035902e+01
1.342963e+02	-2.040934e+01
1.350720e+02	-2.045845e+01
1.358522e+02	-2.050776e+01
1.366368e+02	-2.055737e+01
1.374260e+02	-2.060579e+01
1.382198e+02	-2.065852e+01
1.390182e+02	-2.070532e+01
1.398211e+02	-2.075537e+01
1.406287e+02	-2.080540e+01
1.414410e+02	-2.085439e+01
1.422579e+02	-2.090412e+01
1.430796e+02	-2.095527e+01
1.439060e+02	-2.100529e+01
1.447372e+02	-2.105354e+01
1.455732e+02	-2.110370e+01
1.464141e+02	-2.115145e+01
1.472597e+02	-2.120305e+01
1.481103e+02	-2.125395e+01
1.489658e+02	-2.130432e+01
1.498262e+02	-2.135247e+01
1.506916e+02	-2.140164e+01
1.515620e+02	-2.145132e+01
1.524374e+02	-2.150170e+01
1.533179e+02	-2.155041e+01
1.542034e+02	-2.159858e+01
1.550941e+02	-2.164885e+01
1.559899e+02	-2.170064e+01
1.568909e+02	-2.174770e+01
1.577971e+02	-2.179822e+01
1.587085e+02	-2.184761e+01
1.596252e+02	-2.189889e+01
1.605472e+02	-2.194788e+01
1.614745e+02	-2.199635e+01
1.624072e+02	-2.204506e+01
1.633453e+02	-2.209651e+01
1.642887e+02	-2.214784e+01
1.652377e+02	-2.219729e+01
1.661921e+02	-2.224682e+01
1.671520e+02	-2.229599e+01
1.681175e+02	-2.234724e+01
1.690885e+02	-2.239566e+01
1.700651e+02	-2.244496e+01
1.710474e+02	-2.249450e+01
1.720354e+02	-2.254596e+01
1.730291e+02	-2.259432e+01
1.740285e+02	-2.264497e+01
1.750337e+02	-2.269336e+01
1.760446e+02	-2.274359e+01
1.770615e+02	-2.279281e+01
1.780842e+02	-2.284565e+01
1.791128e+02	-2.289325e+01
1.801473e+02	-2.294223e+01
1.811878e+02	-2.299351e+01
1.822344e+02	-2.304170e+01
1.832870e+02	-2.309286e+01
1.843456e+02	-2.314238e+01
1.854104e+02	-2.319335e+01
1.864813e+02	-2.323881e+01
1.875584e+02	-2.329199e+01
1.886418e+02	-2.334235e+01
1.897313e+02	-2.338966e+01
1.908272e+02	-2.344173e+01
1.919294e+02	-2.349099e+01
1.930380e+02	-2.354020e+01
1.941530e+02	-2.359160e+01
1.952744e+02	-2.364015e+01
1.964023e+02	-2.369266e+01
1.975367e+02	-2.373987e+01
1.986777e+02	-2.379217e+01
1.998252e+02	-2.384240e+01
2.009794e+02	-2.388931e+01
2.021403e+02	-2.393934e+01
2.033078e+02	-2.399097e+01
2.044821e+02	-2.404073e+01
2.056632e+02	-2.408971e+01
2.068511e+02	-2.414058e+01
2.080459e+02	-2.418685e+01
2.092475e+02	-2.423882e+01
2.104561e+02	-2.428989e+01
2.116717e+02	-2.433889e+01
2.128943e+02	-2.438815e+01
2.141240e+02	-2.444048e+01
2.153608e+02	-2.448670e+01
2.166047e+02	-2.453843e+01
2.178558e+02	-2.458629e+01
2.191141e+02	-2.464096e+01
2.203797e+02	-2.468767e+01
2.216526e+02	-2.473883e+01
2.229329e+02	-2.478764e+01
2.242205e+02	-2.483979e+01
2.255156e+02	-2.488671e+01
2.268182e+02	-2.493658e+01
2.281283e+02	-2.498713e+01
2.294459e+02	-2.503600e+01
2.307712e+02	-2.508550e+01
2.321041e+02	-2.513572e+01
2.334447e+02	-2.518660e+01
2.347931e+02	-2.523911e+01
2.361493e+02	-2.528653e+01
2.375133e+02	-2.533454e+01
2.388851e+02	-2.538382e+01
2.402649e+02	-2.543585e+01
2.416527e+02	-2.548588e+01
2.430484e+02	-2.553691e+01
2.444523e+02	-2.558144e+01
2.458642e+02	-2.563847e+01
2.472843e+02	-2.568644e+01
2.487126e+02	-2.573599e+01
2.501492e+02	-2.578737e+01
2.515940e+02	-2.583387e+01
2.530472e+02	-2.588951e+01
2.545088e+02	-2.593689e+01
2.559789e+02	-2.598358e+01
2.574574e+02	-2.603615e+01
2.589444e+02	-2.608389e+01
2.604401e+02	-2.613617e+01
2.619444e+02	-2.618560e+01
2.634574e+02	-2.623455e+01
2.649791e+02	-2.628605e+01
2.665096e+02	-2.633194e+01
2.680489e+02	-2.638358e+01
2.695972e+02	-2.643708e+01
2.711544e+02	-2.648140e+01
2.727205e+02	-2.653716e+01
2.742958e+02	-2.658705e+01
2.758801e+02	-2.663417e+01
2.774736e+02	-2.668389e+01
2.790762e+02	-2.673838e+01
2.806882e+02	-2.678694e+01
2.823094e+02	-2.683737e+01
2.839400e+02	-2.687922e+01
2.855800e+02	-2.693509e+01
2.872295e+02	-2.698876e+01
2.888886e+02	-2.703710e+01
2.905572e+02	-2.708389e+01
2.922354e+02	-2.713370e+01
2.939234e+02	-2.718449e+01
2.956211e+02	-2.723291e+01
2.973286e+02	-2.728591e+01
2.990459e+02	-2.733375e+01
3.007732e+02	-2.738444e+01
3.025104e+02	-2.743366e+01
3.042577e+02	-2.748262e+01
3.060151e+02	-2.753697e+01
3.077826e+02	-2.758384e+01
3.095604e+02	-2.763913e+01
3.113484e+02	-2.768723e+01
3.131467e+02	-2.773278e+01
3.149554e+02	-2.778321e+01
3.167746e+02	-2.783337e+01
3.186043e+02	-2.788518e+01
3.204445e+02	-2.793553e+01
3.222954e+02	-2.798278e+01
3.241570e+02	-2.803278e+01
3.260293e+02	-2.808533e+01
3.279124e+02	-2.813251e+01
3.298064e+02	-2.818586e+01
3.317114e+02	-2.823961e+01
3.336273e+02	-2.828499e+01
3.355544e+02	-2.833531e+01
3.374925e+02	-2.838478e+01
3.394418e+02	-2.843137e+01
3.414024e+02	-2.848530e+01
3.433744e+02	-2.853974e+01
3.453577e+02	-2.858594e+01
3.473525e+02	-2.863581e+01
3.493588e+02	-2.868164e+01
3.513766e+02	-2.873301e+01
3.534062e+02	-2.878351e+01
3.554474e+02	-2.883332e+01
3.575005e+02	-2.888574e+01
3.595654e+02	-2.893384e+01
3.616422e+02	-2.898552e+01
3.637311e+02	-2.903411e+01
3.658320e+02	-2.908577e+01
3.679450e+02	-2.913572e+01
3.700702e+02	-2.918545e+01
3.722077e+02	-2.923513e+01
3.743576e+02	-2.929040e+01
3.765199e+02	-2.933675e+01
3.786946e+02	-2.939242e+01
3.808820e+02	-2.943774e+01
3.830819e+02	-2.948691e+01
3.852946e+02	-2.953906e+01
3.875200e+02	-2.958741e+01
3.897583e+02	-2.963272e+01
3.920096e+02	-2.968636e+01
3.942738e+02	-2.973747e+01
3.965511e+02	-2.978562e+01
3.988416e+02	-2.983925e+01
4.011452e+02	-2.988908e+01
4.034622e+02	-2.993517e+01
4.057926e+02	-2.998746e+01
4.081365e+02	-3.004104e+01
4.104938e+02	-3.008829e+01
4.128648e+02	-3.013713e+01
4.152495e+02	-3.018190e+01
4.176480e+02	-3.024105e+01
4.200603e+02	-3.028350e+01
4.224866e+02	-3.033528e+01
4.249268e+02	-3.038842e+01
4.273812e+02	-3.043945e+01
4.298497e+02	-3.048776e+01
4.323325e+02	-3.054199e+01
4.348297e+02	-3.058333e+01
4.373412e+02	-3.063731e+01
4.398673e+02	-3.069149e+01
4.424079e+02	-3.073491e+01
4.449633e+02	-3.079156e+01
4.475334e+02	-3.083292e+01
4.501183e+02	-3.088959e+01
4.527182e+02	-3.094384e+01
4.553330e+02	-3.098667e+01
4.579630e+02	-3.104014e+01
4.606082e+02	-3.109064e+01
4.632687e+02	-3.113756e+01
4.659445e+02	-3.119319e+01
4.686358e+02	-3.124062e+01
4.713426e+02	-3.129146e+01
4.740650e+02	-3.133825e+01
4.768032e+02	-3.138935e+01
4.795572e+02	-3.144330e+01
4.823271e+02	-3.148742e+01
4.851130e+02	-3.153830e+01
4.879150e+02	-3.158667e+01
4.907332e+02	-3.164074e+01
4.935676e+02	-3.169104e+01
4.964185e+02	-3.173583e+01
4.992858e+02	-3.178404e+01
5.021696e+02	-3.184418e+01
5.050701e+02	-3.188968e+01
5.079874e+02	-3.194509e+01
5.109215e+02	-3.199454e+01
5.138726e+02	-3.204460e+01
5.168407e+02	-3.208877e+01
5.198259e+02	-3.213504e+01
5.228284e+02	-3.219284e+01
5.258482e+02	-3.224512e+01
5.288855e+02	-3.229665e+01
5.319403e+02	-3.234131e+01
5.350128e+02	-3.239574e+01
5.381030e+02	-3.244030e+01
5.412111e+02	-3.249115e+01
5.443371e+02	-3.254306e+01
5.474812e+02	-3.259496e+01
5.506434e+02	-3.264129e+01
5.538239e+02	-3.269690e+01
5.570228e+02	-3.273901e+01
5.602401e+02	-3.278995e+01
5.634760e+02	-3.285060e+01
5.667306e+02	-3.289295e+01
5.700040e+02	-3.294549e+01
5.732964e+02	-3.298905e+01
5.766077e+02	-3.304028e+01
5.799382e+02	-3.308470e+01
5.832879e+02	-3.314705e+01
5.866569e+02	-3.319647e+01
5.900454e+02	-3.324605e+01
5.934535e+02	-3.329437e+01
5.968813e+02	-3.334786e+01
6.003288e+02	-3.339911e+01
6.037963e+02	-3.344506e+01
6.072838e+02	-3.350176e+01
6.107914e+02	-3.354908e+01
6.143194e+02	-3.360563e+01
6.178676e+02	-3.365574e+01
6.214364e+02	-3.369342e+01
6.250258e+02	-3.373587e+01
6.286359e+02	-3.379526e+01
6.322669e+02	-3.385892e+01
6.359189e+02	-3.389447e+01
6.395919e+02	-3.395335e+01
6.432862e+02	-3.400082e+01
6.470017e+02	-3.404666e+01
6.507388e+02	-3.409940e+01
6.544974e+02	-3.414835e+01
6.582778e+02	-3.420216e+01
6.620800e+02	-3.424809e+01
6.659041e+02	-3.430345e+01
6.697504e+02	-3.434512e+01
6.736188e+02	-3.439655e+01
6.775096e+02	-3.445492e+01
6.814229e+02	-3.449720e+01
6.853587e+02	-3.454641e+01
6.893173e+02	-3.460124e+01
6.932988e+02	-3.465086e+01
6.973033e+02	-3.470210e+01
7.013309e+02	-3.475185e+01
