Frequency(Hz)	Magnitude(dB)
1.000000e+01	-2.051258e+00
1.005776e+01	-2.070259e+00
1.011585e+01	-2.089432e+00
1.017428e+01	-2.108334e+00
1.023305e+01	-2.127672e+00
1.029215e+01	-2.147024e+00
1.035160e+01	-2.166782e+00
1.041139e+01	-2.186126e+00
1.047153e+01	-2.206370e+00
1.053201e+01	-2.226222e+00
1.059284e+01	-2.246244e+00
1.065403e+01	-2.266672e+00
1.071556e+01	-2.287148e+00
1.077746e+01	-2.307645e+00
1.083971e+01	-2.328356e+00
1.090232e+01	-2.349006e+00
1.096529e+01	-2.370081e+00
1.102862e+01	-2.391265e+00
1.109232e+01	-2.412519e+00
1.115639e+01	-2.433764e+00
1.122083e+01	-2.455276e+00
1.128564e+01	-2.477158e+00
1.135083e+01	-2.498786e+00
1.141639e+01	-2.520844e+00
1.148233e+01	-2.542889e+00
1.154865e+01	-2.565303e+00
1.161536e+01	-2.587701e+00
1.168245e+01	-2.610087e+00
1.174992e+01	-2.632686e+00
1.181779e+01	-2.655834e+00
1.188605e+01	-2.678615e+00
1.195470e+01	-2.701727e+00
1.202375e+01	-2.725175e+00
1.209320e+01	-2.748411e+00
1.216305e+01	-2.771837e+00
1.223330e+01	-2.795538e+00
1.230396e+01	-2.819236e+00
1.237503e+01	-2.843313e+00
1.244651e+01	-2.867738e+00
1.251840e+01	-2.891533e+00
1.259070e+01	-2.916159e+00
1.266343e+01	-2.940706e+00
1.273657e+01	-2.965432e+00
1.281014e+01	-2.989939e+00
1.288413e+01	-3.015008e+00
1.295855e+01	-3.040292e+00
1.303339e+01	-3.065393e+00
1.310867e+01	-3.090620e+00
1.318439e+01	-3.116650e+00
1.326054e+01	-3.142192e+00
1.333713e+01	-3.167755e+00
1.341417e+01	-3.193818e+00
1.349165e+01	-3.219932e+00
1.356958e+01	-3.246171e+00
1.364795e+01	-3.272484e+00
1.372678e+01	-3.299160e+00
1.380607e+01	-3.325719e+00
1.388581e+01	-3.352678e+00
1.396602e+01	-3.379779e+00
1.404668e+01	-3.407035e+00
1.412782e+01	-3.434281e+00
1.420942e+01	-3.461726e+00
1.429149e+01	-3.488867e+00
1.437404e+01	-3.516721e+00
1.445706e+01	-3.544673e+00
1.454057e+01	-3.572553e+00
1.462455e+01	-3.600593e+00
1.470902e+01	-3.628799e+00
1.479398e+01	-3.657285e+00
1.487943e+01	-3.685855e+00
1.496537e+01	-3.714663e+00
1.505181e+01	-3.743377e+00
1.513875e+01	-3.772354e+00
1.522619e+01	-3.801091e+00
1.531414e+01	-3.830656e+00
1.540259e+01	-3.859971e+00
1.549156e+01	-3.889362e+00
1.558103e+01	-3.919287e+00
1.567103e+01	-3.949250e+00
1.576155e+01	-3.978978e+00
1.585258e+01	-4.009267e+00
1.594415e+01	-4.039409e+00
1.603624e+01	-4.069623e+00
1.612886e+01	-4.100496e+00
1.622202e+01	-4.130626e+00
1.631572e+01	-4.161701e+00
1.640996e+01	-4.192377e+00
1.650474e+01	-4.223419e+00
1.660008e+01	-4.254938e+00
1.669596e+01	-4.286015e+00
1.679239e+01	-4.317337e+00
1.688938e+01	-4.348955e+00
1.698694e+01	-4.380458e+00
1.708505e+01	-4.412842e+00
1.718373e+01	-4.444809e+00
1.728299e+01	-4.476980e+00
1.738281e+01	-4.508703e+00
1.748322e+01	-4.541508e+00
1.758420e+01	-4.573738e+00
1.768576e+01	-4.606618e+00
1.778792e+01	-4.639071e+00
1.789066e+01	-4.672223e+00
1.799399e+01	-4.705047e+00
1.809793e+01	-4.738335e+00
1.820246e+01	-4.771762e+00
1.830760e+01	-4.805079e+00
1.841334e+01	-4.838474e+00
1.851969e+01	-4.872379e+00
1.862666e+01	-4.905679e+00
1.873425e+01	-4.940063e+00
1.884246e+01	-4.973970e+00
1.895129e+01	-5.008039e+00
1.906075e+01	-5.042699e+00
1.917085e+01	-5.076681e+00
1.928158e+01	-5.111429e+00
1.939295e+01	-5.146090e+00
1.950496e+01	-5.180719e+00
1.961762e+01	-5.215822e+00
1.973093e+01	-5.250686e+00
1.984490e+01	-5.285949e+00
1.995952e+01	-5.321325e+00
2.007480e+01	-5.356675e+00
2.019076e+01	-5.392352e+00
2.030738e+01	-5.427780e+00
2.042467e+01	-5.463656e+00
2.054264e+01	-5.499374e+00
2.066130e+01	-5.535529e+00
2.078064e+01	-5.571537e+00
2.090066e+01	-5.607583e+00
2.102139e+01	-5.644216e+00
2.114280e+01	-5.680496e+00
2.126492e+01	-5.717128e+00
2.138775e+01	-5.753743e+00
2.151128e+01	-5.790488e+00
2.163553e+01	-5.827613e+00
2.176050e+01	-5.864564e+00
2.188619e+01	-5.901706e+00
2.201260e+01	-5.938764e+00
2.213974e+01	-5.975846e+00
2.226762e+01	-6.013699e+00
2.239624e+01	-6.050989e+00
2.252560e+01	-6.088783e+00
2.265571e+01	-6.126444e+00
2.278656e+01	-6.164469e+00
2.291818e+01	-6.202585e+00
2.305055e+01	-6.240475e+00
2.318369e+01	-6.278771e+00
2.331760e+01	-6.316907e+00
2.345228e+01	-6.355211e+00
2.358774e+01	-6.393710e+00
2.372398e+01	-6.432229e+00
2.386101e+01	-6.471034e+00
2.399883e+01	-6.509736e+00
2.413745e+01	-6.549125e+00
2.427686e+01	-6.587987e+00
2.441709e+01	-6.626969e+00
2.455812e+01	-6.666539e+00
2.469997e+01	-6.705277e+00
2.484263e+01	-6.744355e+00
2.498612e+01	-6.784374e+00
2.513044e+01	-6.823682e+00
2.527559e+01	-6.863591e+00
2.542158e+01	-6.903246e+00
2.556842e+01	-6.943220e+00
2.571610e+01	-6.983597e+00
2.586463e+01	-7.023256e+00
2.601403e+01	-7.063327e+00
2.616428e+01	-7.103635e+00
2.631541e+01	-7.144004e+00
2.646740e+01	-7.184251e+00
2.662028e+01	-7.224886e+00
2.677404e+01	-7.265447e+00
2.692868e+01	-7.306212e+00
2.708422e+01	-7.346930e+00
2.724066e+01	-7.387433e+00
2.739800e+01	-7.428942e+00
2.755625e+01	-7.469514e+00
2.771541e+01	-7.510823e+00
2.787550e+01	-7.552408e+00
2.803650e+01	-7.593270e+00
2.819844e+01	-7.634573e+00
2.836131e+01	-7.676153e+00
2.852513e+01	-7.717710e+00
2.868989e+01	-7.759126e+00
2.885560e+01	-7.800718e+00
2.902227e+01	-7.842699e+00
2.918990e+01	-7.884569e+00
2.935850e+01	-7.926532e+00
2.952807e+01	-7.968180e+00
2.969863e+01	-8.010527e+00
2.987016e+01	-8.052108e+00
3.004269e+01	-8.095094e+00
3.021622e+01	-8.137213e+00
3.039075e+01	-8.179834e+00
3.056628e+01	-8.222145e+00
3.074283e+01	-8.264716e+00
3.092040e+01	-8.307379e+00
3.109900e+01	-8.349980e+00
3.127862e+01	-8.392506e+00
3.145929e+01	-8.435516e+00
3.164099e+01	-8.478201e+00
3.182375e+01	-8.521563e+00
3.200756e+01	-8.563985e+00
3.219244e+01	-8.607550e+00
3.237838e+01	-8.650511e+00
3.256540e+01	-8.693556e+00
3.275349e+01	-8.737121e+00
3.294268e+01	-8.780614e+00
3.313295e+01	-8.823763e+00
3.332433e+01	-8.867172e+00
3.351681e+01	-8.910926e+00
3.371040e+01	-8.954406e+00
3.390511e+01	-8.998389e+00
3.410094e+01	-9.042041e+00
3.429791e+01	-9.085878e+00
3.449601e+01	-9.129942e+00
3.469526e+01	-9.173277e+00
3.489566e+01	-9.217609e+00
3.509721e+01	-9.261830e+00
3.529993e+01	-9.306163e+00
3.550382e+01	-9.350836e+00
3.570889e+01	-9.394575e+00
3.591515e+01	-9.438750e+00
3.612259e+01	-9.482687e+00
3.633123e+01	-9.527632e+00
3.654108e+01	-9.571679e+00
3.675214e+01	-9.616115e+00
3.696442e+01	-9.661268e+00
3.717792e+01	-9.705632e+00
3.739266e+01	-9.749956e+00
3.760864e+01	-9.795003e+00
3.782587e+01	-9.840102e+00
3.804435e+01	-9.884509e+00
3.826409e+01	-9.929785e+00
3.848510e+01	-9.974346e+00
3.870739e+01	-1.001965e+01
3.893096e+01	-1.006444e+01
3.915583e+01	-1.011061e+01
3.938199e+01	-1.015508e+01
3.960946e+01	-1.020030e+01
3.983824e+01	-1.024560e+01
4.006834e+01	-1.029065e+01
4.029978e+01	-1.033619e+01
4.053255e+01	-1.038103e+01
4.076666e+01	-1.042675e+01
4.100213e+01	-1.047213e+01
4.123896e+01	-1.051888e+01
4.147715e+01	-1.056353e+01
4.171672e+01	-1.060975e+01
4.195767e+01	-1.065534e+01
4.220002e+01	-1.070086e+01
4.244377e+01	-1.074672e+01
4.268892e+01	-1.079273e+01
4.293549e+01	-1.083847e+01
4.318348e+01	-1.088459e+01
4.343291e+01	-1.093033e+01
4.368377e+01	-1.097632e+01
4.393609e+01	-1.102258e+01
4.418986e+01	-1.106808e+01
4.444510e+01	-1.111449e+01
4.470182e+01	-1.116069e+01
4.496001e+01	-1.120683e+01
4.521970e+01	-1.125400e+01
4.548089e+01	-1.129961e+01
4.574358e+01	-1.134564e+01
4.600779e+01	-1.139223e+01
4.627353e+01	-1.143928e+01
4.654081e+01	-1.148505e+01
4.680963e+01	-1.153151e+01
4.708000e+01	-1.157829e+01
4.735193e+01	-1.162437e+01
4.762543e+01	-1.167175e+01
4.790051e+01	-1.171772e+01
4.817719e+01	-1.176476e+01
4.845545e+01	-1.181109e+01
4.873533e+01	-1.185765e+01
4.901682e+01	-1.190608e+01
4.929994e+01	-1.195200e+01
4.958470e+01	-1.199887e+01
4.987110e+01	-1.204496e+01
5.015915e+01	-1.209281e+01
5.044887e+01	-1.213876e+01
5.074026e+01	-1.218574e+01
5.103333e+01	-1.223368e+01
5.132810e+01	-1.228040e+01
5.162457e+01	-1.232744e+01
5.192275e+01	-1.237438e+01
5.222265e+01	-1.242200e+01
5.252429e+01	-1.246887e+01
5.282767e+01	-1.251608e+01
5.313280e+01	-1.256411e+01
5.343969e+01	-1.261064e+01
5.374836e+01	-1.265797e+01
5.405880e+01	-1.270556e+01
5.437105e+01	-1.275298e+01
5.468509e+01	-1.279952e+01
5.500095e+01	-1.284742e+01
5.531863e+01	-1.289520e+01
5.563815e+01	-1.294233e+01
5.595951e+01	-1.298932e+01
5.628273e+01	-1.303742e+01
5.660782e+01	-1.308466e+01
5.693479e+01	-1.313275e+01
5.726364e+01	-1.317990e+01
5.759439e+01	-1.322808e+01
5.792705e+01	-1.327561e+01
5.826164e+01	-1.332263e+01
5.859815e+01	-1.337100e+01
5.893662e+01	-1.341788e+01
5.927703e+01	-1.346686e+01
5.961941e+01	-1.351485e+01
5.996377e+01	-1.356158e+01
6.031012e+01	-1.360944e+01
6.065847e+01	-1.365822e+01
6.100883e+01	-1.370565e+01
6.136121e+01	-1.375368e+01
6.171563e+01	-1.380115e+01
6.207210e+01	-1.384918e+01
6.243063e+01	-1.389751e+01
6.279122e+01	-1.394607e+01
6.315390e+01	-1.399305e+01
6.351868e+01	-1.404128e+01
6.388556e+01	-1.408976e+01
6.425456e+01	-1.413775e+01
6.462569e+01	-1.418476e+01
6.499897e+01	-1.423372e+01
6.537440e+01	-1.428218e+01
6.575200e+01	-1.432981e+01
6.613178e+01	-1.437792e+01
6.651375e+01	-1.442690e+01
6.689793e+01	-1.447552e+01
6.728433e+01	-1.452413e+01
6.767297e+01	-1.457119e+01
6.806384e+01	-1.462048e+01
6.845698e+01	-1.466849e+01
6.885238e+01	-1.471559e+01
6.925007e+01	-1.476396e+01
6.965005e+01	-1.481388e+01
7.005235e+01	-1.486119e+01
7.045697e+01	-1.490960e+01
7.086393e+01	-1.495915e+01
7.127323e+01	-1.500662e+01
7.168490e+01	-1.505506e+01
7.209895e+01	-1.510312e+01
7.251539e+01	-1.515171e+01
7.293424e+01	-1.520094e+01
7.335551e+01	-1.524931e+01
7.377920e+01	-1.529686e+01
7.420535e+01	-1.534575e+01
7.463396e+01	-1.539454e+01
7.506504e+01	-1.544345e+01
7.549861e+01	-1.549267e+01
7.593469e+01	-1.554108e+01
7.637328e+01	-1.558996e+01
7.681441e+01	-1.563808e+01
7.725809e+01	-1.568558e+01
7.770433e+01	-1.573528e+01
7.815315e+01	-1.578340e+01
7.860456e+01	-1.583232e+01
7.905857e+01	-1.588133e+01
7.951521e+01	-1.593036e+01
7.997449e+01	-1.597936e+01
8.043642e+01	-1.602796e+01
8.090102e+01	-1.607652e+01
8.136830e+01	-1.612554e+01
8.183828e+01	-1.617400e+01
8.231097e+01	-1.622221e+01
8.278640e+01	-1.627219e+01
8.326457e+01	-1.631978e+01
8.374550e+01	-1.636967e+01
8.422921e+01	-1.641870e+01
8.471572e+01	-1.646722e+01
8.520503e+01	-1.651599e+01
8.569717e+01	-1.656531e+01
8.619215e+01	-1.661432e+01
8.669000e+01	-1.666321e+01
8.719071e+01	-1.671200e+01
8.769432e+01	-1.676146e+01
8.820084e+01	-1.680992e+01
8.871029e+01	-1.685928e+01
8.922267e+01	-1.690829e+01
8.973802e+01	-1.695624e+01
9.025634e+01	-1.700656e+01
9.077766e+01	-1.705585e+01
9.130199e+01	-1.710387e+01
9.182935e+01	-1.715250e+01
9.235975e+01	-1.720318e+01
9.289321e+01	-1.725128e+01
9.342976e+01	-1.729996e+01
9.396941e+01	-1.735006e+01
9.451217e+01	-1.739821e+01
9.505807e+01	-1.744702e+01
9.560712e+01	-1.749739e+01
9.615934e+01	-1.754589e+01
9.671476e+01	-1.759493e+01
9.727338e+01	-1.764394e+01
9.783522e+01	-1.769361e+01
9.840032e+01	-1.774322e+01
9.896867e+01	-1.779218e+01
9.954031e+01	-1.784068e+01
1.001153e+02	-1.788981e+01
1.006935e+02	-1.793870e+01
1.012751e+02	-1.798768e+01
1.018601e+02	-1.803698e+01
1.024484e+02	-1.808840e+01
1.030402e+02	-1.813616e+01
1.036353e+02	-1.818658e+01
1.042339e+02	-1.823362e+01
1.048360e+02	-1.828470e+01
1.054415e+02	-1.833441e+01
1.060505e+02	-1.838377e+01
1.066631e+02	-1.843217e+01
1.072791e+02	-1.848207e+01
1.078988e+02	-1.853023e+01
1.085220e+02	-1.857873e+01
1.091488e+02	-1.862830e+01
1.097793e+02	-1.867867e+01
1.104133e+02	-1.872825e+01
1.110511e+02	-1.877603e+01
1.116925e+02	-1.882578e+01
1.123376e+02	-1.887648e+01
1.129865e+02	-1.892524e+01
1.136391e+02	-1.897533e+01
1.142955e+02	-1.902382e+01
1.149556e+02	-1.907387e+01
1.156196e+02	-1.912392e+01
1.162874e+02	-1.917335e+01
1.169591e+02	-1.922225e+01
1.176347e+02	-1.927100e+01
1.183141e+02	-1.932218e+01
1.189975e+02	-1.937061e+01
1.196848e+02	-1.942037e+01
1.203761e+02	-1.947023e+01
1.210714e+02	-1.951904e+01
1.217707e+02	-1.956905e+01
1.224740e+02	-1.961823e+01
1.231814e+02	-1.966612e+01
1.238929e+02	-1.971770e+01
1.246085e+02	-1.976702e+01
1.253283e+02	-1.981530e+01
1.260522e+02	-1.986573e+01
1.267802e+02	-1.991436e+01
1.275125e+02	-1.996447e+01
1.282490e+02	-2.001540e+01
1.289898e+02	-2.006359e+01
1.297348e+02	-2.011350e+01
1.304842e+02	-2.016309e+01
1.312378e+02	-2.021402e+01
1.319959e+02	-2.026303e+01
1.327583e+02	-2.031161e+01
1.335251e+02	-2.036118e+01
1.342963e+02	-2.041064e+01
1.350720e+02	-2.046226e+01
1.358522e+02	-2.050994e+01
1.366368e+02	-2.055946e+01
1.374260e+02	-2.060901e+01
1.382198e+02	-2.065888e+01
1.390182e+02	-2.070841e+01
1.398211e+02	-2.076110e+01
1.406287e+02	-2.080875e+01
1.414410e+02	-2.085679e+01
1.422579e+02	-2.090674e+01
1.430796e+02	-2.095660e+01
1.439060e+02	-2.100523e+01
1.447372e+02	-2.105654e+01
1.455732e+02	-2.110437e+01
1.464141e+02	-2.115435e+01
1.472597e+02	-2.120311e+01
1.481103e+02	-2.125541e+01
1.489658e+02	-2.130441e+01
1.498262e+02	-2.135274e+01
1.506916e+02	-2.140192e+01
1.515620e+02	-2.145224e+01
1.524374e+02	-2.150243e+01
1.533179e+02	-2.155089e+01
1.542034e+02	-2.160361e+01
1.550941e+02	-2.165094e+01
1.559899e+02	-2.170095e+01
1.568909e+02	-2.175159e+01
1.577971e+02	-2.180147e+01
1.587085e+02	-2.184932e+01
1.596252e+02	-2.190157e+01
1.605472e+02	-2.195008e+01
1.614745e+02	-2.199994e+01
1.624072e+02	-2.205003e+01
1.633453e+02	-2.209809e+01
1.642887e+02	-2.214958e+01
1.652377e+02	-2.219934e+01
1.661921e+02	-2.224797e+01
1.671520e+02	-2.229898e+01
1.681175e+02	-2.234702e+01
1.690885e+02	-2.239558e+01
1.700651e+02	-2.244804e+01
1.710474e+02	-2.249898e+01
1.720354e+02	-2.254621e+01
1.730291e+02	-2.259671e+01
1.740285e+02	-2.264531e+01
1.750337e+02	-2.269474e+01
1.760446e+02	-2.274598e+01
1.770615e+02	-2.279334e+01
1.780842e+02	-2.284635e+01
1.791128e+02	-2.289584e+01
1.801473e+02	-2.294497e+01
1.811878e+02	-2.299552e+01
1.822344e+02	-2.304498e+01
1.832870e+02	-2.309453e+01
1.843456e+02	-2.314455e+01
1.854104e+02	-2.319174e+01
1.864813e+02	-2.324326e+01
1.875584e+02	-2.329225e+01
1.886418e+02	-2.334360e+01
1.897313e+02	-2.339390e+01
1.908272e+02	-2.344170e+01
1.919294e+02	-2.349176e+01
1.930380e+02	-2.354189e+01
1.941530e+02	-2.359219e+01
1.952744e+02	-2.364219e+01
1.964023e+02	-2.369346e+01
1.975367e+02	-2.374196e+01
1.986777e+02	-2.379525e+01
1.998252e+02	-2.383950e+01
2.009794e+02	-2.389136e+01
2.021403e+02	-2.394450e+01
2.033078e+02	-2.399079e+01
2.044821e+02	-2.404143e+01
2.056632e+02	-2.409340e+01
2.068511e+02	-2.414274e+01
2.080459e+02	-2.419231e+01
2.092475e+02	-2.424176e+01
2.104561e+02	-2.429243e+01
2.116717e+02	-2.434223e+01
2.128943e+02	-2.439140e+01
2.141240e+02	-2.443804e+01
2.153608e+02	-2.449107e+01
2.166047e+02	-2.454044e+01
2.178558e+02	-2.458958e+01
2.191141e+02	-2.464049e+01
2.203797e+02	-2.469072e+01
2.216526e+02	-2.474070e+01
2.229329e+02	-2.478966e+01
2.242205e+02	-2.484030e+01
2.255156e+02	-2.488833e+01
2.268182e+02	-2.494078e+01
2.281283e+02	-2.499406e+01
2.294459e+02	-2.503910e+01
2.307712e+02	-2.508745e+01
2.321041e+02	-2.514027e+01
2.334447e+02	-2.519036e+01
2.347931e+02	-2.523915e+01
2.361493e+02	-2.529025e+01
2.375133e+02	-2.533879e+01
2.388851e+02	-2.538881e+01
2.402649e+02	-2.544029e+01
2.416527e+02	-2.548994e+01
2.430484e+02	-2.553738e+01
2.444523e+02	-2.558957e+01
2.458642e+02	-2.563658e+01
2.472843e+02	-2.568664e+01
2.487126e+02	-2.573716e+01
2.501492e+02	-2.578618e+01
2.515940e+02	-2.583674e+01
2.530472e+02	-2.588659e+01
2.545088e+02	-2.594081e+01
2.559789e+02	-2.598411e+01
2.574574e+02	-2.604089e+01
2.589444e+02	-2.608943e+01
2.604401e+02	-2.613904e+01
2.619444e+02	-2.618863e+01
2.634574e+02	-2.623658e+01
2.649791e+02	-2.629054e+01
2.665096e+02	-2.633902e+01
2.680489e+02	-2.638894e+01
2.695972e+02	-2.643729e+01
2.711544e+02	-2.648545e+01
2.727205e+02	-2.653954e+01
2.742958e+02	-2.658820e+01
2.758801e+02	-2.663617e+01
2.774736e+02	-2.668966e+01
2.790762e+02	-2.673689e+01
2.806882e+02	-2.678691e+01
2.823094e+02	-2.683432e+01
2.839400e+02	-2.688853e+01
2.855800e+02	-2.693798e+01
2.872295e+02	-2.698921e+01
2.888886e+02	-2.703793e+01
2.905572e+02	-2.708522e+01
2.922354e+02	-2.713553e+01
2.939234e+02	-2.718759e+01
2.956211e+02	-2.723938e+01
2.973286e+02	-2.728875e+01
2.990459e+02	-2.733488e+01
3.007732e+02	-2.738914e+01
3.025104e+02	-2.743610e+01
3.042577e+02	-2.749015e+01
3.060151e+02	-2.753731e+01
3.077826e+02	-2.758559e+01
3.095604e+02	-2.763893e+01
3.113484e+02	-2.768734e+01
3.131467e+02	-2.773873e+01
3.149554e+02	-2.778915e+01
3.167746e+02	-2.783782e+01
3.186043e+02	-2.788682e+01
3.204445e+02	-2.793568e+01
3.222954e+02	-2.798657e+01
3.241570e+02	-2.804350e+01
3.260293e+02	-2.809188e+01
3.279124e+02	-2.813995e+01
3.298064e+02	-2.818983e+01
3.317114e+02	-2.823796e+01
3.336273e+02	-2.829061e+01
3.355544e+02	-2.833762e+01
3.374925e+02	-2.838976e+01
3.394418e+02	-2.843504e+01
3.414024e+02	-2.848462e+01
3.433744e+02	-2.854087e+01
3.453577e+02	-2.859565e+01
3.473525e+02	-2.863667e+01
3.493588e+02	-2.868700e+01
3.513766e+02	-2.873772e+01
3.534062e+02	-2.878647e+01
3.554474e+02	-2.884269e+01
3.575005e+02	-2.889269e+01
3.595654e+02	-2.893895e+01
3.616422e+02	-2.899092e+01
3.637311e+02	-2.903736e+01
3.658320e+02	-2.908643e+01
3.679450e+02	-2.913426e+01
3.700702e+02	-2.918921e+01
3.722077e+02	-2.924136e+01
3.743576e+02	-2.929084e+01
3.765199e+02	-2.933695e+01
3.786946e+02	-2.938910e+01
3.808820e+02	-2.943799e+01
3.830819e+02	-2.949092e+01
3.852946e+02	-2.953880e+01
3.875200e+02	-2.958701e+01
3.897583e+02	-2.963909e+01
3.920096e+02	-2.968560e+01
3.942738e+02	-2.973665e+01
3.965511e+02	-2.978945e+01
3.988416e+02	-2.984389e+01
4.011452e+02	-2.988903e+01
4.034622e+02	-2.993551e+01
4.057926e+02	-2.998930e+01
4.081365e+02	-3.004150e+01
4.104938e+02	-3.009108e+01
4.128648e+02	-3.014192e+01
4.152495e+02	-3.019464e+01
4.176480e+02	-3.024833e+01
4.200603e+02	-3.029302e+01
4.224866e+02	-3.034021e+01
4.249268e+02	-3.039029e+01
4.273812e+02	-3.044242e+01
4.298497e+02	-3.049570e+01
4.323325e+02	-3.054345e+01
4.348297e+02	-3.059049e+01
4.373412e+02	-3.064157e+01
4.398673e+02	-3.069673e+01
4.424079e+02	-3.074542e+01
4.449633e+02	-3.079072e+01
4.475334e+02	-3.084830e+01
4.501183e+02	-3.089354e+01
4.527182e+02	-3.094684e+01
4.553330e+02	-3.098912e+01
4.579630e+02	-3.104679e+01
4.606082e+02	-3.109799e+01
4.632687e+02	-3.114272e+01
4.659445e+02	-3.118979e+01
4.686358e+02	-3.124578e+01
4.713426e+02	-3.129497e+01
4.740650e+02	-3.134330e+01
4.768032e+02	-3.139535e+01
4.795572e+02	-3.144463e+01
4.823271e+02	-3.149430e+01
4.851130e+02	-3.154676e+01
4.879150e+02	-3.160200e+01
4.907332e+02	-3.164566e+01
4.935676e+02	-3.170360e+01
4.964185e+02	-3.174499e+01
4.992858e+02	-3.179816e+01
5.021696e+02	-3.184222e+01
5.050701e+02	-3.189710e+01
5.079874e+02	-3.194477e+01
5.109215e+02	-3.199113e+01
5.138726e+02	-3.204855e+01
5.168407e+02	-3.209396e+01
5.198259e+02	-3.215404e+01
5.228284e+02	-3.219837e+01
5.258482e+02	-3.224898e+01
5.288855e+02	-3.230249e+01
5.319403e+02	-3.234830e+01
5.350128e+02	-3.239597e+01
5.381030e+02	-3.244654e+01
5.412111e+02	-3.250378e+01
5.443371e+02	-3.254631e+01
5.474812e+02	-3.260178e+01
5.506434e+02	-3.264830e+01
5.538239e+02	-3.270065e+01
5.570228e+02	-3.274682e+01
5.602401e+02	-3.280731e+01
5.634760e+02	-3.285372e+01
5.667306e+02	-3.289894e+01
5.700040e+02	-3.295466e+01
5.732964e+02	-3.300432e+01
5.766077e+02	-3.305850e+01
5.799382e+02	-3.310266e+01
5.832879e+02	-3.315307e+01
5.866569e+02	-3.321215e+01
5.900454e+02	-3.325403e+01
5.934535e+02	-3.330494e+01
5.968813e+02	-3.334787e+01
6.003288e+02	-3.340559e+01
6.037963e+02	-3.345309e+01
6.072838e+02	-3.350131e+01
6.107914e+02	-3.355460e+01
6.143194e+02	-3.360290e+01
6.178676e+02	-3.366336e+01
6.214364e+02	-3.370986e+01
6.250258e+02	-3.375573e+01
6.286359e+02	-3.380333e+01
6.322669e+02	-3.386266e+01
6.359189e+02	-3.390649e+01
6.395919e+02	-3.396324e+01
6.432862e+02	-3.400844e+01
6.470017e+02	-3.406052e+01
6.507388e+02	-3.410821e+01
6.544974e+02	-3.415694e+01
6.582778e+02	-3.421028e+01
6.620800e+02	-3.426587e+01
6.659041e+02	-3.431620e+01
6.697504e+02	-3.436986e+01
6.736188e+02	-3.440711e+01
6.775096e+02	-3.445440e+01
6.814229e+02	-3.450936e+01
6.853587e+02	-3.456717e+01
6.893173e+02	-3.460445e+01
6.932988e+02	-3.466053e+01
6.973033e+02	-3.471984e+01
7.013309e+02	-3.476964e+01
