Frequency(Hz)	Magnitude(dB)
1.000000e+01	-2.201552e+00
1.005776e+01	-2.221492e+00
1.011585e+01	-2.241530e+00
1.017428e+01	-2.261877e+00
1.023305e+01	-2.282133e+00
1.029215e+01	-2.302693e+00
1.035160e+01	-2.323363e+00
1.041139e+01	-2.344202e+00
1.047153e+01	-2.365038e+00
1.053201e+01	-2.386117e+00
1.059284e+01	-2.407336e+00
1.065403e+01	-2.428730e+00
1.071556e+01	-2.450121e+00
1.077746e+01	-2.472063e+00
1.083971e+01	-2.493596e+00
1.090232e+01	-2.515646e+00
1.096529e+01	-2.537582e+00
1.102862e+01	-2.559897e+00
1.109232e+01	-2.582054e+00
1.115639e+01	-2.604381e+00
1.122083e+01	-2.627452e+00
1.128564e+01	-2.650115e+00
1.135083e+01	-2.673104e+00
1.141639e+01	-2.696200e+00
1.148233e+01	-2.719419e+00
1.154865e+01	-2.742553e+00
1.161536e+01	-2.766190e+00
1.168245e+01	-2.789812e+00
1.174992e+01	-2.813479e+00
1.181779e+01	-2.837571e+00
1.188605e+01	-2.861374e+00
1.195470e+01	-2.885918e+00
1.202375e+01	-2.910110e+00
1.209320e+01	-2.934705e+00
1.216305e+01	-2.959338e+00
1.223330e+01	-2.984065e+00
1.230396e+01	-3.008995e+00
1.237503e+01	-3.034125e+00
1.244651e+01	-3.059436e+00
1.251840e+01	-3.084775e+00
1.259070e+01	-3.110252e+00
1.266343e+01	-3.135831e+00
1.273657e+01	-3.161744e+00
1.281014e+01	-3.187635e+00
1.288413e+01	-3.213738e+00
1.295855e+01	-3.239992e+00
1.303339e+01	-3.266415e+00
1.310867e+01	-3.292854e+00
1.318439e+01	-3.319484e+00
1.326054e+01	-3.346556e+00
1.333713e+01	-3.373148e+00
1.341417e+01	-3.400107e+00
1.349165e+01	-3.427631e+00
1.356958e+01	-3.454733e+00
1.364795e+01	-3.482493e+00
1.372678e+01	-3.509984e+00
1.380607e+01	-3.537928e+00
1.388581e+01	-3.565669e+00
1.396602e+01	-3.593728e+00
1.404668e+01	-3.622017e+00
1.412782e+01	-3.650410e+00
1.420942e+01	-3.678973e+00
1.429149e+01	-3.707600e+00
1.437404e+01	-3.736628e+00
1.445706e+01	-3.765369e+00
1.454057e+01	-3.794635e+00
1.462455e+01	-3.823723e+00
1.470902e+01	-3.853026e+00
1.479398e+01	-3.882361e+00
1.487943e+01	-3.912179e+00
1.496537e+01	-3.941800e+00
1.505181e+01	-3.972061e+00
1.513875e+01	-4.001870e+00
1.522619e+01	-4.032019e+00
1.531414e+01	-4.062472e+00
1.540259e+01	-4.092782e+00
1.549156e+01	-4.123641e+00
1.558103e+01	-4.154211e+00
1.567103e+01	-4.185013e+00
1.576155e+01	-4.216137e+00
1.585258e+01	-4.247353e+00
1.594415e+01	-4.278681e+00
1.603624e+01	-4.310124e+00
1.612886e+01	-4.341439e+00
1.622202e+01	-4.373174e+00
1.631572e+01	-4.405034e+00
1.640996e+01	-4.436866e+00
1.650474e+01	-4.469031e+00
1.660008e+01	-4.501227e+00
1.669596e+01	-4.533708e+00
1.679239e+01	-4.566065e+00
1.688938e+01	-4.598874e+00
1.698694e+01	-4.631482e+00
1.708505e+01	-4.664431e+00
1.718373e+01	-4.697353e+00
1.728299e+01	-4.730502e+00
1.738281e+01	-4.763630e+00
1.748322e+01	-4.796768e+00
1.758420e+01	-4.830490e+00
1.768576e+01	-4.864094e+00
1.778792e+01	-4.897895e+00
1.789066e+01	-4.932053e+00
1.799399e+01	-4.965694e+00
1.809793e+01	-5.000053e+00
1.820246e+01	-5.034474e+00
1.830760e+01	-5.068829e+00
1.841334e+01	-5.103388e+00
1.851969e+01	-5.137976e+00
1.862666e+01	-5.172941e+00
1.873425e+01	-5.207578e+00
1.884246e+01	-5.242483e+00
1.895129e+01	-5.277463e+00
1.906075e+01	-5.312731e+00
1.917085e+01	-5.348279e+00
1.928158e+01	-5.383645e+00
1.939295e+01	-5.419057e+00
1.950496e+01	-5.454818e+00
1.961762e+01	-5.490664e+00
1.973093e+01	-5.526758e+00
1.984490e+01	-5.563042e+00
1.995952e+01	-5.598929e+00
2.007480e+01	-5.635403e+00
2.019076e+01	-5.671700e+00
2.030738e+01	-5.708161e+00
2.042467e+01	-5.745116e+00
2.054264e+01	-5.781572e+00
2.066130e+01	-5.818671e+00
2.078064e+01	-5.855595e+00
2.090066e+01	-5.892708e+00
2.102139e+01	-5.930120e+00
2.114280e+01	-5.967122e+00
2.126492e+01	-6.004498e+00
2.138775e+01	-6.042033e+00
2.151128e+01	-6.079735e+00
2.163553e+01	-6.117601e+00
2.176050e+01	-6.155228e+00
2.188619e+01	-6.193520e+00
2.201260e+01	-6.231235e+00
2.213974e+01	-6.269687e+00
2.226762e+01	-6.307945e+00
2.239624e+01	-6.346102e+00
2.252560e+01	-6.384666e+00
2.265571e+01	-6.423327e+00
2.278656e+01	-6.462247e+00
2.291818e+01	-6.500892e+00
2.305055e+01	-6.539604e+00
2.318369e+01	-6.578644e+00
2.331760e+01	-6.617640e+00
2.345228e+01	-6.656687e+00
2.358774e+01	-6.696127e+00
2.372398e+01	-6.735412e+00
2.386101e+01	-6.775222e+00
2.399883e+01	-6.814350e+00
2.413745e+01	-6.854312e+00
2.427686e+01	-6.894132e+00
2.441709e+01	-6.933434e+00
2.455812e+01	-6.973243e+00
2.469997e+01	-7.013968e+00
2.484263e+01	-7.053670e+00
2.498612e+01	-7.094142e+00
2.513044e+01	-7.134624e+00
2.527559e+01	-7.174760e+00
2.542158e+01	-7.215385e+00
2.556842e+01	-7.255713e+00
2.571610e+01	-7.296604e+00
2.586463e+01	-7.337255e+00
2.601403e+01	-7.378332e+00
2.616428e+01	-7.418856e+00
2.631541e+01	-7.459599e+00
2.646740e+01	-7.501157e+00
2.662028e+01	-7.542004e+00
2.677404e+01	-7.583201e+00
2.692868e+01	-7.624509e+00
2.708422e+01	-7.666038e+00
2.724066e+01	-7.707219e+00
2.739800e+01	-7.749650e+00
2.755625e+01	-7.790664e+00
2.771541e+01	-7.832857e+00
2.787550e+01	-7.874445e+00
2.803650e+01	-7.916147e+00
2.819844e+01	-7.958770e+00
2.836131e+01	-8.000688e+00
2.852513e+01	-8.042829e+00
2.868989e+01	-8.084659e+00
2.885560e+01	-8.127152e+00
2.902227e+01	-8.169401e+00
2.918990e+01	-8.211976e+00
2.935850e+01	-8.254326e+00
2.952807e+01	-8.297158e+00
2.969863e+01	-8.339722e+00
2.987016e+01	-8.382487e+00
3.004269e+01	-8.425071e+00
3.021622e+01	-8.467871e+00
3.039075e+01	-8.511092e+00
3.056628e+01	-8.554296e+00
3.074283e+01	-8.597077e+00
3.092040e+01	-8.640467e+00
3.109900e+01	-8.683348e+00
3.127862e+01	-8.726380e+00
3.145929e+01	-8.769699e+00
3.164099e+01	-8.813568e+00
3.182375e+01	-8.856978e+00
3.200756e+01	-8.900296e+00
3.219244e+01	-8.944031e+00
3.237838e+01	-8.987613e+00
3.256540e+01	-9.031712e+00
3.275349e+01	-9.075037e+00
3.294268e+01	-9.119178e+00
3.313295e+01	-9.162936e+00
3.332433e+01	-9.207246e+00
3.351681e+01	-9.251295e+00
3.371040e+01	-9.295070e+00
3.390511e+01	-9.339701e+00
3.410094e+01	-9.383221e+00
3.429791e+01	-9.428337e+00
3.449601e+01	-9.472712e+00
3.469526e+01	-9.516860e+00
3.489566e+01	-9.561415e+00
3.509721e+01	-9.605543e+00
3.529993e+01	-9.650328e+00
3.550382e+01	-9.694801e+00
3.570889e+01	-9.740065e+00
3.591515e+01	-9.784314e+00
3.612259e+01	-9.829218e+00
3.633123e+01	-9.874144e+00
3.654108e+01	-9.919031e+00
3.675214e+01	-9.963946e+00
3.696442e+01	-1.000882e+01
3.717792e+01	-1.005423e+01
3.739266e+01	-1.009918e+01
3.760864e+01	-1.014423e+01
3.782587e+01	-1.018904e+01
3.804435e+01	-1.023475e+01
3.826409e+01	-1.027982e+01
3.848510e+01	-1.032529e+01
3.870739e+01	-1.037067e+01
3.893096e+01	-1.041641e+01
3.915583e+01	-1.046214e+01
3.938199e+01	-1.050705e+01
3.960946e+01	-1.055297e+01
3.983824e+01	-1.059816e+01
4.006834e+01	-1.064435e+01
4.029978e+01	-1.068940e+01
4.053255e+01	-1.073595e+01
4.076666e+01	-1.078142e+01
4.100213e+01	-1.082827e+01
4.123896e+01	-1.087349e+01
4.147715e+01	-1.091961e+01
4.171672e+01	-1.096562e+01
4.195767e+01	-1.101175e+01
4.220002e+01	-1.105717e+01
4.244377e+01	-1.110349e+01
4.268892e+01	-1.115073e+01
4.293549e+01	-1.119553e+01
4.318348e+01	-1.124220e+01
4.343291e+01	-1.128851e+01
4.368377e+01	-1.133499e+01
4.393609e+01	-1.138138e+01
4.418986e+01	-1.142802e+01
4.444510e+01	-1.147384e+01
4.470182e+01	-1.152050e+01
4.496001e+01	-1.156698e+01
4.521970e+01	-1.161334e+01
4.548089e+01	-1.166059e+01
4.574358e+01	-1.170700e+01
4.600779e+01	-1.175322e+01
4.627353e+01	-1.179938e+01
4.654081e+01	-1.184734e+01
4.680963e+01	-1.189345e+01
4.708000e+01	-1.194041e+01
4.735193e+01	-1.198760e+01
4.762543e+01	-1.203436e+01
4.790051e+01	-1.208061e+01
4.817719e+01	-1.212802e+01
4.845545e+01	-1.217509e+01
4.873533e+01	-1.222192e+01
4.901682e+01	-1.226934e+01
4.929994e+01	-1.231595e+01
4.958470e+01	-1.236366e+01
4.987110e+01	-1.240998e+01
5.015915e+01	-1.245747e+01
5.044887e+01	-1.250442e+01
5.074026e+01	-1.255162e+01
5.103333e+01	-1.259906e+01
5.132810e+01	-1.264642e+01
5.162457e+01	-1.269385e+01
5.192275e+01	-1.274069e+01
5.222265e+01	-1.278901e+01
5.252429e+01	-1.283640e+01
5.282767e+01	-1.288350e+01
5.313280e+01	-1.293039e+01
5.343969e+01	-1.297777e+01
5.374836e+01	-1.302566e+01
5.405880e+01	-1.307360e+01
5.437105e+01	-1.312175e+01
5.468509e+01	-1.316823e+01
5.500095e+01	-1.321685e+01
5.531863e+01	-1.326407e+01
5.563815e+01	-1.331200e+01
5.595951e+01	-1.335892e+01
5.628273e+01	-1.340686e+01
5.660782e+01	-1.345550e+01
5.693479e+01	-1.350296e+01
5.726364e+01	-1.354967e+01
5.759439e+01	-1.359838e+01
5.792705e+01	-1.364671e+01
5.826164e+01	-1.369362e+01
5.859815e+01	-1.374227e+01
5.893662e+01	-1.378912e+01
5.927703e+01	-1.383741e+01
5.961941e+01	-1.388557e+01
5.996377e+01	-1.393343e+01
6.031012e+01	-1.398198e+01
6.065847e+01	-1.402954e+01
6.100883e+01	-1.407771e+01
6.136121e+01	-1.412565e+01
6.171563e+01	-1.417447e+01
6.207210e+01	-1.422207e+01
6.243063e+01	-1.427085e+01
6.279122e+01	-1.431922e+01
6.315390e+01	-1.436670e+01
6.351868e+01	-1.441530e+01
6.388556e+01	-1.446257e+01
6.425456e+01	-1.451134e+01
6.462569e+01	-1.455991e+01
6.499897e+01	-1.460746e+01
6.537440e+01	-1.465601e+01
6.575200e+01	-1.470396e+01
6.613178e+01	-1.475340e+01
6.651375e+01	-1.480172e+01
6.689793e+01	-1.484951e+01
6.728433e+01	-1.489812e+01
6.767297e+01	-1.494579e+01
6.806384e+01	-1.499410e+01
6.845698e+01	-1.504366e+01
6.885238e+01	-1.509241e+01
6.925007e+01	-1.514028e+01
6.965005e+01	-1.518889e+01
7.005235e+01	-1.523703e+01
7.045697e+01	-1.528547e+01
7.086393e+01	-1.533458e+01
7.127323e+01	-1.538302e+01
7.168490e+01	-1.543160e+01
7.209895e+01	-1.548070e+01
7.251539e+01	-1.552888e+01
7.293424e+01	-1.557743e+01
7.335551e+01	-1.562568e+01
7.377920e+01	-1.567533e+01
7.420535e+01	-1.572315e+01
7.463396e+01	-1.577246e+01
7.506504e+01	-1.582095e+01
7.549861e+01	-1.587051e+01
7.593469e+01	-1.591836e+01
7.637328e+01	-1.596667e+01
7.681441e+01	-1.601528e+01
7.725809e+01	-1.606486e+01
7.770433e+01	-1.611357e+01
7.815315e+01	-1.616294e+01
7.860456e+01	-1.621116e+01
7.905857e+01	-1.626030e+01
7.951521e+01	-1.630919e+01
7.997449e+01	-1.635700e+01
8.043642e+01	-1.640638e+01
8.090102e+01	-1.645556e+01
8.136830e+01	-1.650387e+01
8.183828e+01	-1.655308e+01
8.231097e+01	-1.660198e+01
8.278640e+01	-1.665034e+01
8.326457e+01	-1.670040e+01
8.374550e+01	-1.674895e+01
8.422921e+01	-1.679779e+01
8.471572e+01	-1.684675e+01
8.520503e+01	-1.689617e+01
8.569717e+01	-1.694487e+01
8.619215e+01	-1.699466e+01
8.669000e+01	-1.704222e+01
8.719071e+01	-1.709346e+01
8.769432e+01	-1.714052e+01
8.820084e+01	-1.719090e+01
8.871029e+01	-1.723933e+01
8.922267e+01	-1.728892e+01
8.973802e+01	-1.733644e+01
9.025634e+01	-1.738683e+01
9.077766e+01	-1.743688e+01
9.130199e+01	-1.748469e+01
9.182935e+01	-1.753363e+01
9.235975e+01	-1.758342e+01
9.289321e+01	-1.763193e+01
9.342976e+01	-1.768193e+01
9.396941e+01	-1.772960e+01
9.451217e+01	-1.778010e+01
9.505807e+01	-1.782947e+01
9.560712e+01	-1.787699e+01
9.615934e+01	-1.792724e+01
9.671476e+01	-1.797630e+01
9.727338e+01	-1.802549e+01
9.783522e+01	-1.807492e+01
9.840032e+01	-1.812388e+01
9.896867e+01	-1.817322e+01
9.954031e+01	-1.822247e+01
1.001153e+02	-1.827240e+01
1.006935e+02	-1.832175e+01
1.012751e+02	-1.837244e+01
1.018601e+02	-1.842125e+01
1.024484e+02	-1.846823e+01
1.030402e+02	-1.851973e+01
1.036353e+02	-1.856797e+01
1.042339e+02	-1.861801e+01
1.048360e+02	-1.866638e+01
1.054415e+02	-1.871543e+01
1.060505e+02	-1.876634e+01
1.066631e+02	-1.881417e+01
1.072791e+02	-1.886416e+01
1.078988e+02	-1.891354e+01
1.085220e+02	-1.896312e+01
1.091488e+02	-1.901301e+01
1.097793e+02	-1.906193e+01
1.104133e+02	-1.911166e+01
1.110511e+02	-1.916165e+01
1.116925e+02	-1.921041e+01
1.123376e+02	-1.926019e+01
1.129865e+02	-1.930865e+01
1.136391e+02	-1.935970e+01
1.142955e+02	-1.940801e+01
1.149556e+02	-1.945819e+01
1.156196e+02	-1.950929e+01
1.162874e+02	-1.955532e+01
1.169591e+02	-1.960633e+01
1.176347e+02	-1.965444e+01
1.183141e+02	-1.970490e+01
1.189975e+02	-1.975541e+01
1.196848e+02	-1.980443e+01
1.203761e+02	-1.985376e+01
1.210714e+02	-1.990425e+01
1.217707e+02	-1.995232e+01
1.224740e+02	-2.000375e+01
1.231814e+02	-2.005219e+01
1.238929e+02	-2.010126e+01
1.246085e+02	-2.015084e+01
1.253283e+02	-2.020129e+01
1.260522e+02	-2.024946e+01
1.267802e+02	-2.029947e+01
1.275125e+02	-2.034922e+01
1.282490e+02	-2.039811e+01
1.289898e+02	-2.044778e+01
1.297348e+02	-2.049845e+01
1.304842e+02	-2.054930e+01
1.312378e+02	-2.059659e+01
1.319959e+02	-2.064736e+01
1.327583e+02	-2.069497e+01
1.335251e+02	-2.074709e+01
1.342963e+02	-2.079410e+01
1.350720e+02	-2.084486e+01
1.358522e+02	-2.089575e+01
1.366368e+02	-2.094364e+01
1.374260e+02	-2.099390e+01
1.382198e+02	-2.104301e+01
1.390182e+02	-2.109533e+01
1.398211e+02	-2.114149e+01
1.406287e+02	-2.119247e+01
1.414410e+02	-2.124347e+01
1.422579e+02	-2.129191e+01
1.430796e+02	-2.133974e+01
1.439060e+02	-2.139140e+01
1.447372e+02	-2.144192e+01
1.455732e+02	-2.148855e+01
1.464141e+02	-2.154025e+01
1.472597e+02	-2.159080e+01
1.481103e+02	-2.163748e+01
1.489658e+02	-2.168980e+01
1.498262e+02	-2.173825e+01
1.506916e+02	-2.178910e+01
1.515620e+02	-2.183738e+01
1.524374e+02	-2.189004e+01
1.533179e+02	-2.193804e+01
1.542034e+02	-2.198772e+01
1.550941e+02	-2.203671e+01
1.559899e+02	-2.208746e+01
1.568909e+02	-2.213543e+01
1.577971e+02	-2.218585e+01
1.587085e+02	-2.223592e+01
1.596252e+02	-2.228602e+01
1.605472e+02	-2.233442e+01
1.614745e+02	-2.238680e+01
1.624072e+02	-2.243730e+01
1.633453e+02	-2.248531e+01
1.642887e+02	-2.253406e+01
1.652377e+02	-2.258394e+01
1.661921e+02	-2.263452e+01
1.671520e+02	-2.268524e+01
1.681175e+02	-2.273249e+01
1.690885e+02	-2.278341e+01
1.700651e+02	-2.283345e+01
1.710474e+02	-2.288129e+01
1.720354e+02	-2.293195e+01
1.730291e+02	-2.298205e+01
1.740285e+02	-2.303262e+01
1.750337e+02	-2.308381e+01
1.760446e+02	-2.313063e+01
1.770615e+02	-2.318117e+01
1.780842e+02	-2.323130e+01
1.791128e+02	-2.328176e+01
1.801473e+02	-2.333015e+01
1.811878e+02	-2.338159e+01
1.822344e+02	-2.343147e+01
1.832870e+02	-2.347952e+01
1.843456e+02	-2.352958e+01
1.854104e+02	-2.357898e+01
1.864813e+02	-2.363050e+01
1.875584e+02	-2.367918e+01
1.886418e+02	-2.373211e+01
1.897313e+02	-2.377956e+01
1.908272e+02	-2.382968e+01
1.919294e+02	-2.387958e+01
1.930380e+02	-2.392863e+01
1.941530e+02	-2.397937e+01
1.952744e+02	-2.402976e+01
1.964023e+02	-2.407990e+01
1.975367e+02	-2.413088e+01
1.986777e+02	-2.418057e+01
1.998252e+02	-2.422945e+01
2.009794e+02	-2.428084e+01
2.021403e+02	-2.432904e+01
2.033078e+02	-2.437813e+01
2.044821e+02	-2.442984e+01
2.056632e+02	-2.447980e+01
2.068511e+02	-2.452619e+01
2.080459e+02	-2.457817e+01
2.092475e+02	-2.462784e+01
2.104561e+02	-2.467895e+01
2.116717e+02	-2.472632e+01
2.128943e+02	-2.477817e+01
2.141240e+02	-2.482954e+01
2.153608e+02	-2.487540e+01
2.166047e+02	-2.492663e+01
2.178558e+02	-2.497634e+01
2.191141e+02	-2.502623e+01
2.203797e+02	-2.507998e+01
2.216526e+02	-2.512358e+01
2.229329e+02	-2.517738e+01
2.242205e+02	-2.522756e+01
2.255156e+02	-2.527588e+01
2.268182e+02	-2.532603e+01
2.281283e+02	-2.537622e+01
2.294459e+02	-2.542537e+01
2.307712e+02	-2.547311e+01
2.321041e+02	-2.552477e+01
2.334447e+02	-2.557289e+01
2.347931e+02	-2.562763e+01
2.361493e+02	-2.567672e+01
2.375133e+02	-2.572556e+01
2.388851e+02	-2.577758e+01
2.402649e+02	-2.582810e+01
2.416527e+02	-2.587834e+01
2.430484e+02	-2.592350e+01
2.444523e+02	-2.597903e+01
2.458642e+02	-2.602960e+01
2.472843e+02	-2.607446e+01
2.487126e+02	-2.612435e+01
2.501492e+02	-2.617690e+01
2.515940e+02	-2.622242e+01
2.530472e+02	-2.627566e+01
2.545088e+02	-2.632435e+01
2.559789e+02	-2.637691e+01
2.574574e+02	-2.642564e+01
2.589444e+02	-2.647533e+01
2.604401e+02	-2.652582e+01
2.619444e+02	-2.657711e+01
2.634574e+02	-2.662241e+01
2.649791e+02	-2.667497e+01
2.665096e+02	-2.672449e+01
2.680489e+02	-2.677691e+01
2.695972e+02	-2.682596e+01
2.711544e+02	-2.687697e+01
2.727205e+02	-2.692298e+01
2.742958e+02	-2.697793e+01
2.758801e+02	-2.702805e+01
2.774736e+02	-2.707281e+01
2.790762e+02	-2.712294e+01
2.806882e+02	-2.717701e+01
2.823094e+02	-2.722634e+01
2.839400e+02	-2.727444e+01
2.855800e+02	-2.732624e+01
2.872295e+02	-2.737839e+01
2.888886e+02	-2.742890e+01
2.905572e+02	-2.747250e+01
2.922354e+02	-2.752786e+01
2.939234e+02	-2.757706e+01
2.956211e+02	-2.762709e+01
2.973286e+02	-2.767349e+01
2.990459e+02	-2.772213e+01
3.007732e+02	-2.777606e+01
3.025104e+02	-2.782257e+01
3.042577e+02	-2.787652e+01
3.060151e+02	-2.792397e+01
3.077826e+02	-2.797644e+01
3.095604e+02	-2.802531e+01
3.113484e+02	-2.807639e+01
3.131467e+02	-2.812743e+01
3.149554e+02	-2.817550e+01
3.167746e+02	-2.822252e+01
3.186043e+02	-2.827108e+01
3.204445e+02	-2.832303e+01
3.222954e+02	-2.837437e+01
3.241570e+02	-2.842913e+01
3.260293e+02	-2.847689e+01
3.279124e+02	-2.852594e+01
3.298064e+02	-2.857471e+01
3.317114e+02	-2.862957e+01
3.336273e+02	-2.867705e+01
3.355544e+02	-2.872513e+01
3.374925e+02	-2.877584e+01
3.394418e+02	-2.882800e+01
3.414024e+02	-2.887399e+01
3.433744e+02	-2.892491e+01
3.453577e+02	-2.897572e+01
3.473525e+02	-2.902486e+01
3.493588e+02	-2.907548e+01
3.513766e+02	-2.912508e+01
3.534062e+02	-2.917577e+01
3.554474e+02	-2.922412e+01
3.575005e+02	-2.927987e+01
3.595654e+02	-2.932667e+01
3.616422e+02	-2.937890e+01
3.637311e+02	-2.942564e+01
3.658320e+02	-2.947631e+01
3.679450e+02	-2.952718e+01
3.700702e+02	-2.957492e+01
3.722077e+02	-2.962938e+01
3.743576e+02	-2.967833e+01
3.765199e+02	-2.972322e+01
3.786946e+02	-2.978250e+01
3.808820e+02	-2.982815e+01
3.830819e+02	-2.987917e+01
3.852946e+02	-2.992831e+01
3.875200e+02	-2.997968e+01
3.897583e+02	-3.002444e+01
3.920096e+02	-3.007989e+01
3.942738e+02	-3.012814e+01
3.965511e+02	-3.018122e+01
3.988416e+02	-3.022741e+01
4.011452e+02	-3.028036e+01
4.034622e+02	-3.032591e+01
4.057926e+02	-3.037891e+01
4.081365e+02	-3.042933e+01
4.104938e+02	-3.048112e+01
4.128648e+02	-3.053463e+01
4.152495e+02	-3.058198e+01
4.176480e+02	-3.063179e+01
4.200603e+02	-3.067861e+01
4.224866e+02	-3.072902e+01
4.249268e+02	-3.077834e+01
4.273812e+02	-3.082738e+01
4.298497e+02	-3.087748e+01
4.323325e+02	-3.092900e+01
4.348297e+02	-3.097966e+01
4.373412e+02	-3.103242e+01
4.398673e+02	-3.108041e+01
4.424079e+02	-3.113217e+01
4.449633e+02	-3.118412e+01
4.475334e+02	-3.122727e+01
4.501183e+02	-3.127749e+01
4.527182e+02	-3.132774e+01
4.553330e+02	-3.138423e+01
4.579630e+02	-3.143128e+01
4.606082e+02	-3.147723e+01
4.632687e+02	-3.153547e+01
4.659445e+02	-3.158215e+01
4.686358e+02	-3.163457e+01
4.713426e+02	-3.168627e+01
4.740650e+02	-3.173154e+01
4.768032e+02	-3.178294e+01
4.795572e+02	-3.183253e+01
4.823271e+02	-3.188205e+01
4.851130e+02	-3.193642e+01
4.879150e+02	-3.198533e+01
4.907332e+02	-3.203136e+01
4.935676e+02	-3.208590e+01
4.964185e+02	-3.213627e+01
4.992858e+02	-3.217954e+01
5.021696e+02	-3.224045e+01
5.050701e+02	-3.228430e+01
5.079874e+02	-3.233245e+01
5.109215e+02	-3.238414e+01
5.138726e+02	-3.242920e+01
5.168407e+02	-3.248525e+01
5.198259e+02	-3.254064e+01
5.228284e+02	-3.258875e+01
5.258482e+02	-3.264305e+01
5.288855e+02	-3.268964e+01
5.319403e+02	-3.273728e+01
5.350128e+02	-3.278562e+01
5.381030e+02	-3.283399e+01
5.412111e+02	-3.288160e+01
5.443371e+02	-3.293433e+01
5.474812e+02	-3.298193e+01
5.506434e+02	-3.303654e+01
5.538239e+02	-3.308231e+01
5.570228e+02	-3.314456e+01
5.602401e+02	-3.318588e+01
5.634760e+02	-3.323896e+01
5.667306e+02	-3.328627e+01
5.700040e+02	-3.333718e+01
5.732964e+02	-3.338344e+01
5.766077e+02	-3.344489e+01
5.799382e+02	-3.348391e+01
5.832879e+02	-3.353745e+01
5.866569e+02	-3.359379e+01
5.900454e+02	-3.364862e+01
5.934535e+02	-3.368876e+01
5.968813e+02	-3.374486e+01
6.003288e+02	-3.379188e+01
6.037963e+02	-3.384046e+01
6.072838e+02	-3.389646e+01
6.107914e+02	-3.394979e+01
6.143194e+02	-3.400178e+01
6.178676e+02	-3.403622e+01
6.214364e+02	-3.409545e+01
6.250258e+02	-3.414559e+01
6.286359e+02	-3.419402e+01
6.322669e+02	-3.424156e+01
6.359189e+02	-3.430854e+01
6.395919e+02	-3.433719e+01
6.432862e+02	-3.439592e+01
6.470017e+02	-3.444741e+01
6.507388e+02	-3.448791e+01
6.544974e+02	-3.455086e+01
6.582778e+02	-3.459979e+01
6.620800e+02	-3.465841e+01
6.659041e+02	-3.469712e+01
6.697504e+02	-3.474673e+01
6.736188e+02	-3.479378e+01
6.775096e+02	-3.485886e+01
6.814229e+02	-3.489953e+01
6.853587e+02	-3.494933e+01
6.893173e+02	-3.500614e+01
6.932988e+02	-3.505139e+01
6.973033e+02	-3.510395e+01
7.013309e+02	-3.514762e+01
