Frequency(Hz)	Magnitude(dB)
1.000000e+01	-2.005591e+00
1.005776e+01	-2.023943e+00
1.011585e+01	-2.042599e+00
1.017428e+01	-2.061470e+00
1.023305e+01	-2.080401e+00
1.029215e+01	-2.099636e+00
1.035160e+01	-2.118822e+00
1.041139e+01	-2.138238e+00
1.047153e+01	-2.157776e+00
1.053201e+01	-2.177336e+00
1.059284e+01	-2.197235e+00
1.065403e+01	-2.217148e+00
1.071556e+01	-2.237100e+00
1.077746e+01	-2.257479e+00
1.083971e+01	-2.277621e+00
1.090232e+01	-2.297986e+00
1.096529e+01	-2.318865e+00
1.102862e+01	-2.339694e+00
1.109232e+01	-2.360502e+00
1.115639e+01	-2.381469e+00
1.122083e+01	-2.402725e+00
1.128564e+01	-2.424122e+00
1.135083e+01	-2.445542e+00
1.141639e+01	-2.467341e+00
1.148233e+01	-2.488767e+00
1.154865e+01	-2.510542e+00
1.161536e+01	-2.532742e+00
1.168245e+01	-2.554878e+00
1.174992e+01	-2.577369e+00
1.181779e+01	-2.599592e+00
1.188605e+01	-2.622259e+00
1.195470e+01	-2.645024e+00
1.202375e+01	-2.668101e+00
1.209320e+01	-2.691025e+00
1.216305e+01	-2.714205e+00
1.223330e+01	-2.737317e+00
1.230396e+01	-2.760685e+00
1.237503e+01	-2.784527e+00
1.244651e+01	-2.808634e+00
1.251840e+01	-2.832196e+00
1.259070e+01	-2.856289e+00
1.266343e+01	-2.880433e+00
1.273657e+01	-2.904740e+00
1.281014e+01	-2.929305e+00
1.288413e+01	-2.953697e+00
1.295855e+01	-2.978757e+00
1.303339e+01	-3.003467e+00
1.310867e+01	-3.028354e+00
1.318439e+01	-3.053891e+00
1.326054e+01	-3.079201e+00
1.333713e+01	-3.104713e+00
1.341417e+01	-3.130093e+00
1.349165e+01	-3.156155e+00
1.356958e+01	-3.181592e+00
1.364795e+01	-3.207719e+00
1.372678e+01	-3.234009e+00
1.380607e+01	-3.260253e+00
1.388581e+01	-3.286794e+00
1.396602e+01	-3.313485e+00
1.404668e+01	-3.340321e+00
1.412782e+01	-3.367277e+00
1.420942e+01	-3.394515e+00
1.429149e+01	-3.421655e+00
1.437404e+01	-3.448693e+00
1.445706e+01	-3.476321e+00
1.454057e+01	-3.504292e+00
1.462455e+01	-3.531711e+00
1.470902e+01	-3.559698e+00
1.479398e+01	-3.587564e+00
1.487943e+01	-3.615997e+00
1.496537e+01	-3.644174e+00
1.505181e+01	-3.672669e+00
1.513875e+01	-3.701097e+00
1.522619e+01	-3.730113e+00
1.531414e+01	-3.758998e+00
1.540259e+01	-3.787960e+00
1.549156e+01	-3.817197e+00
1.558103e+01	-3.846524e+00
1.567103e+01	-3.876156e+00
1.576155e+01	-3.905542e+00
1.585258e+01	-3.935122e+00
1.594415e+01	-3.965093e+00
1.603624e+01	-3.995439e+00
1.612886e+01	-4.025419e+00
1.622202e+01	-4.055752e+00
1.631572e+01	-4.086342e+00
1.640996e+01	-4.116650e+00
1.650474e+01	-4.147466e+00
1.660008e+01	-4.178322e+00
1.669596e+01	-4.209427e+00
1.679239e+01	-4.240267e+00
1.688938e+01	-4.271736e+00
1.698694e+01	-4.303218e+00
1.708505e+01	-4.334446e+00
1.718373e+01	-4.366148e+00
1.728299e+01	-4.397979e+00
1.738281e+01	-4.429806e+00
1.748322e+01	-4.461962e+00
1.758420e+01	-4.494157e+00
1.768576e+01	-4.526553e+00
1.778792e+01	-4.559011e+00
1.789066e+01	-4.591475e+00
1.799399e+01	-4.624097e+00
1.809793e+01	-4.657352e+00
1.820246e+01	-4.689996e+00
1.830760e+01	-4.723321e+00
1.841334e+01	-4.756162e+00
1.851969e+01	-4.789452e+00
1.862666e+01	-4.823156e+00
1.873425e+01	-4.856986e+00
1.884246e+01	-4.890783e+00
1.895129e+01	-4.924610e+00
1.906075e+01	-4.958238e+00
1.917085e+01	-4.992295e+00
1.928158e+01	-5.026856e+00
1.939295e+01	-5.061243e+00
1.950496e+01	-5.095432e+00
1.961762e+01	-5.130266e+00
1.973093e+01	-5.164756e+00
1.984490e+01	-5.199960e+00
1.995952e+01	-5.234863e+00
2.007480e+01	-5.269752e+00
2.019076e+01	-5.305309e+00
2.030738e+01	-5.340286e+00
2.042467e+01	-5.375793e+00
2.054264e+01	-5.411272e+00
2.066130e+01	-5.447043e+00
2.078064e+01	-5.483145e+00
2.090066e+01	-5.519101e+00
2.102139e+01	-5.554868e+00
2.114280e+01	-5.591008e+00
2.126492e+01	-5.627378e+00
2.138775e+01	-5.663737e+00
2.151128e+01	-5.700353e+00
2.163553e+01	-5.736739e+00
2.176050e+01	-5.773469e+00
2.188619e+01	-5.810198e+00
2.201260e+01	-5.847350e+00
2.213974e+01	-5.884491e+00
2.226762e+01	-5.921666e+00
2.239624e+01	-5.958642e+00
2.252560e+01	-5.996415e+00
2.265571e+01	-6.033919e+00
2.278656e+01	-6.071649e+00
2.291818e+01	-6.108830e+00
2.305055e+01	-6.147234e+00
2.318369e+01	-6.184476e+00
2.331760e+01	-6.222977e+00
2.345228e+01	-6.261168e+00
2.358774e+01	-6.299479e+00
2.372398e+01	-6.337696e+00
2.386101e+01	-6.376031e+00
2.399883e+01	-6.414779e+00
2.413745e+01	-6.453476e+00
2.427686e+01	-6.492082e+00
2.441709e+01	-6.531169e+00
2.455812e+01	-6.569930e+00
2.469997e+01	-6.609226e+00
2.484263e+01	-6.647981e+00
2.498612e+01	-6.687623e+00
2.513044e+01	-6.726542e+00
2.527559e+01	-6.766132e+00
2.542158e+01	-6.805920e+00
2.556842e+01	-6.845165e+00
2.571610e+01	-6.884848e+00
2.586463e+01	-6.925100e+00
2.601403e+01	-6.964893e+00
2.616428e+01	-7.004786e+00
2.631541e+01	-7.044632e+00
2.646740e+01	-7.085270e+00
2.662028e+01	-7.125452e+00
2.677404e+01	-7.165936e+00
2.692868e+01	-7.206000e+00
2.708422e+01	-7.246598e+00
2.724066e+01	-7.287372e+00
2.739800e+01	-7.327912e+00
2.755625e+01	-7.369036e+00
2.771541e+01	-7.409781e+00
2.787550e+01	-7.450916e+00
2.803650e+01	-7.491782e+00
2.819844e+01	-7.533003e+00
2.836131e+01	-7.574541e+00
2.852513e+01	-7.615542e+00
2.868989e+01	-7.657012e+00
2.885560e+01	-7.698857e+00
2.902227e+01	-7.739824e+00
2.918990e+01	-7.781603e+00
2.935850e+01	-7.823653e+00
2.952807e+01	-7.865485e+00
2.969863e+01	-7.906935e+00
2.987016e+01	-7.949396e+00
3.004269e+01	-7.991217e+00
3.021622e+01	-8.033212e+00
3.039075e+01	-8.075493e+00
3.056628e+01	-8.117841e+00
3.074283e+01	-8.160127e+00
3.092040e+01	-8.201974e+00
3.109900e+01	-8.245226e+00
3.127862e+01	-8.287410e+00
3.145929e+01	-8.330397e+00
3.164099e+01	-8.373274e+00
3.182375e+01	-8.415598e+00
3.200756e+01	-8.458645e+00
3.219244e+01	-8.501469e+00
3.237838e+01	-8.544551e+00
3.256540e+01	-8.587870e+00
3.275349e+01	-8.630615e+00
3.294268e+01	-8.673855e+00
3.313295e+01	-8.717177e+00
3.332433e+01	-8.760882e+00
3.351681e+01	-8.803945e+00
3.371040e+01	-8.847668e+00
3.390511e+01	-8.890924e+00
3.410094e+01	-8.934056e+00
3.429791e+01	-8.977884e+00
3.449601e+01	-9.021988e+00
3.469526e+01	-9.065861e+00
3.489566e+01	-9.109634e+00
3.509721e+01	-9.153252e+00
3.529993e+01	-9.197856e+00
3.550382e+01	-9.241239e+00
3.570889e+01	-9.285668e+00
3.591515e+01	-9.329671e+00
3.612259e+01	-9.373926e+00
3.633123e+01	-9.417984e+00
3.654108e+01	-9.462571e+00
3.675214e+01	-9.507009e+00
3.696442e+01	-9.551618e+00
3.717792e+01	-9.595954e+00
3.739266e+01	-9.639946e+00
3.760864e+01	-9.684899e+00
3.782587e+01	-9.729732e+00
3.804435e+01	-9.773688e+00
3.826409e+01	-9.819568e+00
3.848510e+01	-9.863234e+00
3.870739e+01	-9.909354e+00
3.893096e+01	-9.954165e+00
3.915583e+01	-9.998682e+00
3.938199e+01	-1.004405e+01
3.960946e+01	-1.008902e+01
3.983824e+01	-1.013473e+01
4.006834e+01	-1.017942e+01
4.029978e+01	-1.022506e+01
4.053255e+01	-1.027001e+01
4.076666e+01	-1.031553e+01
4.100213e+01	-1.036069e+01
4.123896e+01	-1.040669e+01
4.147715e+01	-1.045193e+01
4.171672e+01	-1.049739e+01
4.195767e+01	-1.054263e+01
4.220002e+01	-1.058809e+01
4.244377e+01	-1.063440e+01
4.268892e+01	-1.067983e+01
4.293549e+01	-1.072533e+01
4.318348e+01	-1.077215e+01
4.343291e+01	-1.081753e+01
4.368377e+01	-1.086278e+01
4.393609e+01	-1.090916e+01
4.418986e+01	-1.095499e+01
4.444510e+01	-1.100149e+01
4.470182e+01	-1.104693e+01
4.496001e+01	-1.109336e+01
4.521970e+01	-1.113987e+01
4.548089e+01	-1.118578e+01
4.574358e+01	-1.123179e+01
4.600779e+01	-1.127883e+01
4.627353e+01	-1.132476e+01
4.654081e+01	-1.137159e+01
4.680963e+01	-1.141672e+01
4.708000e+01	-1.146380e+01
4.735193e+01	-1.151030e+01
4.762543e+01	-1.155702e+01
4.790051e+01	-1.160421e+01
4.817719e+01	-1.164974e+01
4.845545e+01	-1.169646e+01
4.873533e+01	-1.174314e+01
4.901682e+01	-1.178903e+01
4.929994e+01	-1.183685e+01
4.958470e+01	-1.188299e+01
4.987110e+01	-1.193060e+01
5.015915e+01	-1.197763e+01
5.044887e+01	-1.202421e+01
5.074026e+01	-1.207103e+01
5.103333e+01	-1.211776e+01
5.132810e+01	-1.216507e+01
5.162457e+01	-1.221101e+01
5.192275e+01	-1.225849e+01
5.222265e+01	-1.230560e+01
5.252429e+01	-1.235318e+01
5.282767e+01	-1.239995e+01
5.313280e+01	-1.244814e+01
5.343969e+01	-1.249393e+01
5.374836e+01	-1.254160e+01
5.405880e+01	-1.258885e+01
5.437105e+01	-1.263574e+01
5.468509e+01	-1.268345e+01
5.500095e+01	-1.273109e+01
5.531863e+01	-1.277811e+01
5.563815e+01	-1.282580e+01
5.595951e+01	-1.287312e+01
5.628273e+01	-1.292038e+01
5.660782e+01	-1.296850e+01
5.693479e+01	-1.301552e+01
5.726364e+01	-1.306337e+01
5.759439e+01	-1.311054e+01
5.792705e+01	-1.315753e+01
5.826164e+01	-1.320636e+01
5.859815e+01	-1.325338e+01
5.893662e+01	-1.330036e+01
5.927703e+01	-1.334884e+01
5.961941e+01	-1.339650e+01
5.996377e+01	-1.344361e+01
6.031012e+01	-1.349251e+01
6.065847e+01	-1.353974e+01
6.100883e+01	-1.358787e+01
6.136121e+01	-1.363566e+01
6.171563e+01	-1.368308e+01
6.207210e+01	-1.373182e+01
6.243063e+01	-1.377978e+01
6.279122e+01	-1.382807e+01
6.315390e+01	-1.387543e+01
6.351868e+01	-1.392374e+01
6.388556e+01	-1.397214e+01
6.425456e+01	-1.401948e+01
6.462569e+01	-1.406716e+01
6.499897e+01	-1.411558e+01
6.537440e+01	-1.416365e+01
6.575200e+01	-1.421206e+01
6.613178e+01	-1.426010e+01
6.651375e+01	-1.430827e+01
6.689793e+01	-1.435658e+01
6.728433e+01	-1.440468e+01
6.767297e+01	-1.445196e+01
6.806384e+01	-1.450072e+01
6.845698e+01	-1.454930e+01
6.885238e+01	-1.459738e+01
6.925007e+01	-1.464506e+01
6.965005e+01	-1.469468e+01
7.005235e+01	-1.474233e+01
7.045697e+01	-1.479065e+01
7.086393e+01	-1.483948e+01
7.127323e+01	-1.488837e+01
7.168490e+01	-1.493652e+01
7.209895e+01	-1.498418e+01
7.251539e+01	-1.503328e+01
7.293424e+01	-1.508019e+01
7.335551e+01	-1.512941e+01
7.377920e+01	-1.517804e+01
7.420535e+01	-1.522610e+01
7.463396e+01	-1.527566e+01
7.506504e+01	-1.532392e+01
7.549861e+01	-1.537197e+01
7.593469e+01	-1.541985e+01
7.637328e+01	-1.547006e+01
7.681441e+01	-1.551806e+01
7.725809e+01	-1.556653e+01
7.770433e+01	-1.561506e+01
7.815315e+01	-1.566465e+01
7.860456e+01	-1.571281e+01
7.905857e+01	-1.576133e+01
7.951521e+01	-1.581128e+01
7.997449e+01	-1.585815e+01
8.043642e+01	-1.590742e+01
8.090102e+01	-1.595592e+01
8.136830e+01	-1.600550e+01
8.183828e+01	-1.605334e+01
8.231097e+01	-1.610298e+01
8.278640e+01	-1.615183e+01
8.326457e+01	-1.620068e+01
8.374550e+01	-1.624893e+01
8.422921e+01	-1.629900e+01
8.471572e+01	-1.634740e+01
8.520503e+01	-1.639552e+01
8.569717e+01	-1.644490e+01
8.619215e+01	-1.649409e+01
8.669000e+01	-1.654167e+01
8.719071e+01	-1.659188e+01
8.769432e+01	-1.664039e+01
8.820084e+01	-1.668977e+01
8.871029e+01	-1.673834e+01
8.922267e+01	-1.678704e+01
8.973802e+01	-1.683584e+01
9.025634e+01	-1.688493e+01
9.077766e+01	-1.693401e+01
9.130199e+01	-1.698335e+01
9.182935e+01	-1.703220e+01
9.235975e+01	-1.708107e+01
9.289321e+01	-1.712991e+01
9.342976e+01	-1.717930e+01
9.396941e+01	-1.722919e+01
9.451217e+01	-1.727729e+01
9.505807e+01	-1.732548e+01
9.560712e+01	-1.737583e+01
9.615934e+01	-1.742586e+01
9.671476e+01	-1.747393e+01
9.727338e+01	-1.752422e+01
9.783522e+01	-1.757231e+01
9.840032e+01	-1.762167e+01
9.896867e+01	-1.767082e+01
9.954031e+01	-1.771986e+01
1.001153e+02	-1.776911e+01
1.006935e+02	-1.781979e+01
1.012751e+02	-1.786610e+01
1.018601e+02	-1.791758e+01
1.024484e+02	-1.796659e+01
1.030402e+02	-1.801457e+01
1.036353e+02	-1.806434e+01
1.042339e+02	-1.811188e+01
1.048360e+02	-1.816239e+01
1.054415e+02	-1.821210e+01
1.060505e+02	-1.826276e+01
1.066631e+02	-1.831010e+01
1.072791e+02	-1.836077e+01
1.078988e+02	-1.840961e+01
1.085220e+02	-1.845932e+01
1.091488e+02	-1.850820e+01
1.097793e+02	-1.855801e+01
1.104133e+02	-1.860753e+01
1.110511e+02	-1.865559e+01
1.116925e+02	-1.870498e+01
1.123376e+02	-1.875593e+01
1.129865e+02	-1.880390e+01
1.136391e+02	-1.885423e+01
1.142955e+02	-1.890199e+01
1.149556e+02	-1.895309e+01
1.156196e+02	-1.900291e+01
1.162874e+02	-1.905151e+01
1.169591e+02	-1.910196e+01
1.176347e+02	-1.914896e+01
1.183141e+02	-1.919947e+01
1.189975e+02	-1.924912e+01
1.196848e+02	-1.929854e+01
1.203761e+02	-1.934782e+01
1.210714e+02	-1.939829e+01
1.217707e+02	-1.944706e+01
1.224740e+02	-1.949641e+01
1.231814e+02	-1.954581e+01
1.238929e+02	-1.959413e+01
1.246085e+02	-1.964493e+01
1.253283e+02	-1.969326e+01
1.260522e+02	-1.974482e+01
1.267802e+02	-1.979258e+01
1.275125e+02	-1.984227e+01
1.282490e+02	-1.989357e+01
1.289898e+02	-1.994066e+01
1.297348e+02	-1.999155e+01
1.304842e+02	-2.004123e+01
1.312378e+02	-2.009154e+01
1.319959e+02	-2.013932e+01
1.327583e+02	-2.018997e+01
1.335251e+02	-2.024061e+01
1.342963e+02	-2.028646e+01
1.350720e+02	-2.033882e+01
1.358522e+02	-2.038792e+01
1.366368e+02	-2.043722e+01
1.374260e+02	-2.048716e+01
1.382198e+02	-2.053766e+01
1.390182e+02	-2.058698e+01
1.398211e+02	-2.063571e+01
1.406287e+02	-2.068452e+01
1.414410e+02	-2.073480e+01
1.422579e+02	-2.078557e+01
1.430796e+02	-2.083361e+01
1.439060e+02	-2.088551e+01
1.447372e+02	-2.093348e+01
1.455732e+02	-2.098288e+01
1.464141e+02	-2.103322e+01
1.472597e+02	-2.108205e+01
1.481103e+02	-2.112978e+01
1.489658e+02	-2.118027e+01
1.498262e+02	-2.123159e+01
1.506916e+02	-2.128238e+01
1.515620e+02	-2.132901e+01
1.524374e+02	-2.137939e+01
1.533179e+02	-2.143026e+01
1.542034e+02	-2.147846e+01
1.550941e+02	-2.152946e+01
1.559899e+02	-2.157965e+01
1.568909e+02	-2.163034e+01
1.577971e+02	-2.167903e+01
1.587085e+02	-2.172888e+01
1.596252e+02	-2.177764e+01
1.605472e+02	-2.182805e+01
1.614745e+02	-2.187694e+01
1.624072e+02	-2.192591e+01
1.633453e+02	-2.197698e+01
1.642887e+02	-2.202691e+01
1.652377e+02	-2.207634e+01
1.661921e+02	-2.212562e+01
1.671520e+02	-2.217544e+01
1.681175e+02	-2.222766e+01
1.690885e+02	-2.227344e+01
1.700651e+02	-2.232583e+01
1.710474e+02	-2.237435e+01
1.720354e+02	-2.242470e+01
1.730291e+02	-2.247511e+01
1.740285e+02	-2.252479e+01
1.750337e+02	-2.257486e+01
1.760446e+02	-2.262534e+01
1.770615e+02	-2.267396e+01
1.780842e+02	-2.272224e+01
1.791128e+02	-2.277227e+01
1.801473e+02	-2.282351e+01
1.811878e+02	-2.287184e+01
1.822344e+02	-2.292165e+01
1.832870e+02	-2.297121e+01
1.843456e+02	-2.302061e+01
1.854104e+02	-2.307144e+01
1.864813e+02	-2.312284e+01
1.875584e+02	-2.317307e+01
1.886418e+02	-2.322086e+01
1.897313e+02	-2.327124e+01
1.908272e+02	-2.332200e+01
1.919294e+02	-2.337017e+01
1.930380e+02	-2.342118e+01
1.941530e+02	-2.347132e+01
1.952744e+02	-2.351897e+01
1.964023e+02	-2.356952e+01
1.975367e+02	-2.361951e+01
1.986777e+02	-2.367054e+01
1.998252e+02	-2.372241e+01
2.009794e+02	-2.376719e+01
2.021403e+02	-2.381883e+01
2.033078e+02	-2.386872e+01
2.044821e+02	-2.391857e+01
2.056632e+02	-2.396881e+01
2.068511e+02	-2.401816e+01
2.080459e+02	-2.407018e+01
2.092475e+02	-2.411788e+01
2.104561e+02	-2.416824e+01
2.116717e+02	-2.421637e+01
2.128943e+02	-2.426742e+01
2.141240e+02	-2.431727e+01
2.153608e+02	-2.436612e+01
2.166047e+02	-2.441689e+01
2.178558e+02	-2.446542e+01
2.191141e+02	-2.451620e+01
2.203797e+02	-2.456591e+01
2.216526e+02	-2.461909e+01
2.229329e+02	-2.466738e+01
2.242205e+02	-2.471749e+01
2.255156e+02	-2.476752e+01
2.268182e+02	-2.481577e+01
2.281283e+02	-2.486680e+01
2.294459e+02	-2.491699e+01
2.307712e+02	-2.496554e+01
2.321041e+02	-2.501573e+01
2.334447e+02	-2.506800e+01
2.347931e+02	-2.511813e+01
2.361493e+02	-2.516512e+01
2.375133e+02	-2.521518e+01
2.388851e+02	-2.526214e+01
2.402649e+02	-2.531611e+01
2.416527e+02	-2.536802e+01
2.430484e+02	-2.541646e+01
2.444523e+02	-2.546676e+01
2.458642e+02	-2.551428e+01
2.472843e+02	-2.556597e+01
2.487126e+02	-2.561474e+01
2.501492e+02	-2.566411e+01
2.515940e+02	-2.571692e+01
2.530472e+02	-2.576573e+01
2.545088e+02	-2.581447e+01
2.559789e+02	-2.586475e+01
2.574574e+02	-2.591665e+01
2.589444e+02	-2.596304e+01
2.604401e+02	-2.601324e+01
2.619444e+02	-2.606147e+01
2.634574e+02	-2.611607e+01
2.649791e+02	-2.616499e+01
2.665096e+02	-2.621443e+01
2.680489e+02	-2.626366e+01
2.695972e+02	-2.631597e+01
2.711544e+02	-2.636736e+01
2.727205e+02	-2.641585e+01
2.742958e+02	-2.646527e+01
2.758801e+02	-2.651564e+01
2.774736e+02	-2.656612e+01
2.790762e+02	-2.661665e+01
2.806882e+02	-2.666600e+01
2.823094e+02	-2.671472e+01
2.839400e+02	-2.676611e+01
2.855800e+02	-2.681139e+01
2.872295e+02	-2.686205e+01
2.888886e+02	-2.691478e+01
2.905572e+02	-2.696697e+01
2.922354e+02	-2.701167e+01
2.939234e+02	-2.706051e+01
2.956211e+02	-2.711332e+01
2.973286e+02	-2.716810e+01
2.990459e+02	-2.721403e+01
3.007732e+02	-2.726575e+01
3.025104e+02	-2.731746e+01
3.042577e+02	-2.736532e+01
3.060151e+02	-2.741599e+01
3.077826e+02	-2.746739e+01
3.095604e+02	-2.751456e+01
3.113484e+02	-2.756325e+01
3.131467e+02	-2.761453e+01
3.149554e+02	-2.766557e+01
3.167746e+02	-2.771628e+01
3.186043e+02	-2.776426e+01
3.204445e+02	-2.781505e+01
3.222954e+02	-2.786290e+01
3.241570e+02	-2.791207e+01
3.260293e+02	-2.796265e+01
3.279124e+02	-2.801338e+01
3.298064e+02	-2.806400e+01
3.317114e+02	-2.811336e+01
3.336273e+02	-2.816377e+01
3.355544e+02	-2.821506e+01
3.374925e+02	-2.826776e+01
3.394418e+02	-2.831757e+01
3.414024e+02	-2.836240e+01
3.433744e+02	-2.841300e+01
3.453577e+02	-2.846665e+01
3.473525e+02	-2.851151e+01
3.493588e+02	-2.856169e+01
3.513766e+02	-2.861853e+01
3.534062e+02	-2.866910e+01
3.554474e+02	-2.871413e+01
3.575005e+02	-2.876274e+01
3.595654e+02	-2.881553e+01
3.616422e+02	-2.886333e+01
3.637311e+02	-2.891164e+01
3.658320e+02	-2.896297e+01
3.679450e+02	-2.901751e+01
3.700702e+02	-2.906785e+01
3.722077e+02	-2.911763e+01
3.743576e+02	-2.916707e+01
3.765199e+02	-2.921465e+01
3.786946e+02	-2.926770e+01
3.808820e+02	-2.931723e+01
3.830819e+02	-2.936592e+01
3.852946e+02	-2.941574e+01
3.875200e+02	-2.946496e+01
3.897583e+02	-2.951520e+01
3.920096e+02	-2.956606e+01
3.942738e+02	-2.961970e+01
3.965511e+02	-2.966844e+01
3.988416e+02	-2.971655e+01
4.011452e+02	-2.976724e+01
4.034622e+02	-2.981706e+01
4.057926e+02	-2.986940e+01
4.081365e+02	-2.991685e+01
4.104938e+02	-2.996364e+01
4.128648e+02	-3.001641e+01
4.152495e+02	-3.006880e+01
4.176480e+02	-3.011566e+01
4.200603e+02	-3.016968e+01
4.224866e+02	-3.021527e+01
4.249268e+02	-3.027071e+01
4.273812e+02	-3.032158e+01
4.298497e+02	-3.036635e+01
4.323325e+02	-3.041893e+01
4.348297e+02	-3.046596e+01
4.373412e+02	-3.051810e+01
4.398673e+02	-3.057260e+01
4.424079e+02	-3.061938e+01
4.449633e+02	-3.067091e+01
4.475334e+02	-3.071486e+01
4.501183e+02	-3.077065e+01
4.527182e+02	-3.082315e+01
4.553330e+02	-3.086547e+01
4.579630e+02	-3.091703e+01
4.606082e+02	-3.096635e+01
4.632687e+02	-3.102049e+01
4.659445e+02	-3.106741e+01
4.686358e+02	-3.111430e+01
4.713426e+02	-3.116801e+01
4.740650e+02	-3.122043e+01
4.768032e+02	-3.127442e+01
4.795572e+02	-3.132352e+01
4.823271e+02	-3.136883e+01
4.851130e+02	-3.142545e+01
4.879150e+02	-3.147610e+01
4.907332e+02	-3.151724e+01
4.935676e+02	-3.156925e+01
4.964185e+02	-3.162357e+01
4.992858e+02	-3.167457e+01
5.021696e+02	-3.172320e+01
5.050701e+02	-3.176938e+01
5.079874e+02	-3.182445e+01
5.109215e+02	-3.187162e+01
5.138726e+02	-3.191927e+01
5.168407e+02	-3.197292e+01
5.198259e+02	-3.202392e+01
5.228284e+02	-3.207819e+01
5.258482e+02	-3.212287e+01
5.288855e+02	-3.217268e+01
5.319403e+02	-3.222445e+01
5.350128e+02	-3.227443e+01
5.381030e+02	-3.232495e+01
5.412111e+02	-3.237704e+01
5.443371e+02	-3.242573e+01
5.474812e+02	-3.247655e+01
5.506434e+02	-3.252719e+01
5.538239e+02	-3.257262e+01
5.570228e+02	-3.262637e+01
5.602401e+02	-3.267788e+01
5.634760e+02	-3.272510e+01
5.667306e+02	-3.277652e+01
5.700040e+02	-3.282742e+01
5.732964e+02	-3.287531e+01
5.766077e+02	-3.292927e+01
5.799382e+02	-3.297812e+01
5.832879e+02	-3.302553e+01
5.866569e+02	-3.308364e+01
5.900454e+02	-3.312542e+01
5.934535e+02	-3.317748e+01
5.968813e+02	-3.322548e+01
6.003288e+02	-3.327979e+01
6.037963e+02	-3.332259e+01
6.072838e+02	-3.338091e+01
6.107914e+02	-3.343197e+01
6.143194e+02	-3.347686e+01
6.178676e+02	-3.353499e+01
6.214364e+02	-3.358668e+01
6.250258e+02	-3.362725e+01
6.286359e+02	-3.367627e+01
6.322669e+02	-3.373753e+01
6.359189e+02	-3.377478e+01
6.395919e+02	-3.383949e+01
6.432862e+02	-3.388235e+01
6.470017e+02	-3.393481e+01
6.507388e+02	-3.397872e+01
6.544974e+02	-3.403551e+01
6.582778e+02	-3.408281e+01
6.620800e+02	-3.413955e+01
6.659041e+02	-3.418072e+01
6.697504e+02	-3.423661e+01
6.736188e+02	-3.428742e+01
6.775096e+02	-3.433680e+01
6.814229e+02	-3.439125e+01
6.853587e+02	-3.443817e+01
6.893173e+02	-3.448746e+01
6.932988e+02	-3.453610e+01
6.973033e+02	-3.459080e+01
7.013309e+02	-3.464013e+01
