Frequency(Hz)	Magnitude(dB)
1.000000e+01	-2.149169e+00
1.005776e+01	-2.168511e+00
1.011585e+01	-2.188555e+00
1.017428e+01	-2.208475e+00
1.023305e+01	-2.228200e+00
1.029215e+01	-2.248667e+00
1.035160e+01	-2.268777e+00
1.041139e+01	-2.289265e+00
1.047153e+01	-2.309744e+00
1.053201e+01	-2.330330e+00
1.059284e+01	-2.351421e+00
1.065403e+01	-2.372304e+00
1.071556e+01	-2.393482e+00
1.077746e+01	-2.414714e+00
1.083971e+01	-2.436183e+00
1.090232e+01	-2.457518e+00
1.096529e+01	-2.479088e+00
1.102862e+01	-2.501258e+00
1.109232e+01	-2.523101e+00
1.115639e+01	-2.545231e+00
1.122083e+01	-2.567558e+00
1.128564e+01	-2.590125e+00
1.135083e+01	-2.612167e+00
1.141639e+01	-2.635105e+00
1.148233e+01	-2.657732e+00
1.154865e+01	-2.680933e+00
1.161536e+01	-2.703942e+00
1.168245e+01	-2.727209e+00
1.174992e+01	-2.750974e+00
1.181779e+01	-2.774272e+00
1.188605e+01	-2.797912e+00
1.195470e+01	-2.821715e+00
1.202375e+01	-2.845492e+00
1.209320e+01	-2.869905e+00
1.216305e+01	-2.894066e+00
1.223330e+01	-2.918511e+00
1.230396e+01	-2.943033e+00
1.237503e+01	-2.967607e+00
1.244651e+01	-2.992656e+00
1.251840e+01	-3.017723e+00
1.259070e+01	-3.042745e+00
1.266343e+01	-3.067793e+00
1.273657e+01	-3.093223e+00
1.281014e+01	-3.118866e+00
1.288413e+01	-3.144702e+00
1.295855e+01	-3.170534e+00
1.303339e+01	-3.196438e+00
1.310867e+01	-3.222528e+00
1.318439e+01	-3.248914e+00
1.326054e+01	-3.275256e+00
1.333713e+01	-3.301966e+00
1.341417e+01	-3.328795e+00
1.349165e+01	-3.355495e+00
1.356958e+01	-3.382323e+00
1.364795e+01	-3.409779e+00
1.372678e+01	-3.436857e+00
1.380607e+01	-3.464307e+00
1.388581e+01	-3.491904e+00
1.396602e+01	-3.519366e+00
1.404668e+01	-3.547371e+00
1.412782e+01	-3.575293e+00
1.420942e+01	-3.603710e+00
1.429149e+01	-3.631765e+00
1.437404e+01	-3.660016e+00
1.445706e+01	-3.688737e+00
1.454057e+01	-3.717540e+00
1.462455e+01	-3.746088e+00
1.470902e+01	-3.775448e+00
1.479398e+01	-3.804471e+00
1.487943e+01	-3.833731e+00
1.496537e+01	-3.863251e+00
1.505181e+01	-3.892624e+00
1.513875e+01	-3.922121e+00
1.522619e+01	-3.951916e+00
1.531414e+01	-3.982279e+00
1.540259e+01	-4.012060e+00
1.549156e+01	-4.042264e+00
1.558103e+01	-4.072782e+00
1.567103e+01	-4.103375e+00
1.576155e+01	-4.134013e+00
1.585258e+01	-4.164711e+00
1.594415e+01	-4.195446e+00
1.603624e+01	-4.226711e+00
1.612886e+01	-4.257950e+00
1.622202e+01	-4.289302e+00
1.631572e+01	-4.320605e+00
1.640996e+01	-4.352174e+00
1.650474e+01	-4.383828e+00
1.660008e+01	-4.415596e+00
1.669596e+01	-4.447920e+00
1.679239e+01	-4.480029e+00
1.688938e+01	-4.512307e+00
1.698694e+01	-4.544185e+00
1.708505e+01	-4.576972e+00
1.718373e+01	-4.610138e+00
1.728299e+01	-4.642744e+00
1.738281e+01	-4.675478e+00
1.748322e+01	-4.708394e+00
1.758420e+01	-4.741650e+00
1.768576e+01	-4.774767e+00
1.778792e+01	-4.808387e+00
1.789066e+01	-4.842014e+00
1.799399e+01	-4.875758e+00
1.809793e+01	-4.909671e+00
1.820246e+01	-4.943262e+00
1.830760e+01	-4.977584e+00
1.841334e+01	-5.011872e+00
1.851969e+01	-5.046120e+00
1.862666e+01	-5.080096e+00
1.873425e+01	-5.115046e+00
1.884246e+01	-5.149466e+00
1.895129e+01	-5.184266e+00
1.906075e+01	-5.219419e+00
1.917085e+01	-5.254363e+00
1.928158e+01	-5.289595e+00
1.939295e+01	-5.325245e+00
1.950496e+01	-5.360384e+00
1.961762e+01	-5.395805e+00
1.973093e+01	-5.431611e+00
1.984490e+01	-5.466982e+00
1.995952e+01	-5.503095e+00
2.007480e+01	-5.539321e+00
2.019076e+01	-5.575194e+00
2.030738e+01	-5.611235e+00
2.042467e+01	-5.648082e+00
2.054264e+01	-5.684309e+00
2.066130e+01	-5.720620e+00
2.078064e+01	-5.757513e+00
2.090066e+01	-5.794571e+00
2.102139e+01	-5.831089e+00
2.114280e+01	-5.868230e+00
2.126492e+01	-5.905054e+00
2.138775e+01	-5.942606e+00
2.151128e+01	-5.979958e+00
2.163553e+01	-6.017204e+00
2.176050e+01	-6.055207e+00
2.188619e+01	-6.092673e+00
2.201260e+01	-6.130336e+00
2.213974e+01	-6.168071e+00
2.226762e+01	-6.206458e+00
2.239624e+01	-6.244212e+00
2.252560e+01	-6.282446e+00
2.265571e+01	-6.320760e+00
2.278656e+01	-6.358712e+00
2.291818e+01	-6.397658e+00
2.305055e+01	-6.436447e+00
2.318369e+01	-6.474924e+00
2.331760e+01	-6.514201e+00
2.345228e+01	-6.552596e+00
2.358774e+01	-6.592074e+00
2.372398e+01	-6.630909e+00
2.386101e+01	-6.670423e+00
2.399883e+01	-6.709372e+00
2.413745e+01	-6.748946e+00
2.427686e+01	-6.787927e+00
2.441709e+01	-6.828341e+00
2.455812e+01	-6.867484e+00
2.469997e+01	-6.907294e+00
2.484263e+01	-6.947457e+00
2.498612e+01	-6.986952e+00
2.513044e+01	-7.027592e+00
2.527559e+01	-7.067813e+00
2.542158e+01	-7.107674e+00
2.556842e+01	-7.147980e+00
2.571610e+01	-7.188551e+00
2.586463e+01	-7.228656e+00
2.601403e+01	-7.269727e+00
2.616428e+01	-7.310496e+00
2.631541e+01	-7.350991e+00
2.646740e+01	-7.391847e+00
2.662028e+01	-7.432993e+00
2.677404e+01	-7.473768e+00
2.692868e+01	-7.515240e+00
2.708422e+01	-7.556543e+00
2.724066e+01	-7.597925e+00
2.739800e+01	-7.638869e+00
2.755625e+01	-7.680505e+00
2.771541e+01	-7.721844e+00
2.787550e+01	-7.762949e+00
2.803650e+01	-7.804557e+00
2.819844e+01	-7.846971e+00
2.836131e+01	-7.888719e+00
2.852513e+01	-7.930593e+00
2.868989e+01	-7.972385e+00
2.885560e+01	-8.014749e+00
2.902227e+01	-8.056782e+00
2.918990e+01	-8.099278e+00
2.935850e+01	-8.141430e+00
2.952807e+01	-8.183741e+00
2.969863e+01	-8.226502e+00
2.987016e+01	-8.268797e+00
3.004269e+01	-8.311724e+00
3.021622e+01	-8.354110e+00
3.039075e+01	-8.396991e+00
3.056628e+01	-8.439680e+00
3.074283e+01	-8.483020e+00
3.092040e+01	-8.525807e+00
3.109900e+01	-8.568715e+00
3.127862e+01	-8.611942e+00
3.145929e+01	-8.655044e+00
3.164099e+01	-8.698218e+00
3.182375e+01	-8.741439e+00
3.200756e+01	-8.785185e+00
3.219244e+01	-8.828691e+00
3.237838e+01	-8.871921e+00
3.256540e+01	-8.915788e+00
3.275349e+01	-8.958585e+00
3.294268e+01	-9.003153e+00
3.313295e+01	-9.046522e+00
3.332433e+01	-9.090612e+00
3.351681e+01	-9.133632e+00
3.371040e+01	-9.178244e+00
3.390511e+01	-9.222543e+00
3.410094e+01	-9.266093e+00
3.429791e+01	-9.310319e+00
3.449601e+01	-9.354674e+00
3.469526e+01	-9.398362e+00
3.489566e+01	-9.443467e+00
3.509721e+01	-9.487261e+00
3.529993e+01	-9.532445e+00
3.550382e+01	-9.576407e+00
3.570889e+01	-9.621220e+00
3.591515e+01	-9.665169e+00
3.612259e+01	-9.709809e+00
3.633123e+01	-9.754842e+00
3.654108e+01	-9.799288e+00
3.675214e+01	-9.844573e+00
3.696442e+01	-9.889580e+00
3.717792e+01	-9.933983e+00
3.739266e+01	-9.979645e+00
3.760864e+01	-1.002411e+01
3.782587e+01	-1.006923e+01
3.804435e+01	-1.011434e+01
3.826409e+01	-1.015953e+01
3.848510e+01	-1.020458e+01
3.870739e+01	-1.025038e+01
3.893096e+01	-1.029583e+01
3.915583e+01	-1.034101e+01
3.938199e+01	-1.038601e+01
3.960946e+01	-1.043132e+01
3.983824e+01	-1.047726e+01
4.006834e+01	-1.052301e+01
4.029978e+01	-1.056813e+01
4.053255e+01	-1.061390e+01
4.076666e+01	-1.065961e+01
4.100213e+01	-1.070624e+01
4.123896e+01	-1.075099e+01
4.147715e+01	-1.079747e+01
4.171672e+01	-1.084325e+01
4.195767e+01	-1.088901e+01
4.220002e+01	-1.093478e+01
4.244377e+01	-1.098057e+01
4.268892e+01	-1.102728e+01
4.293549e+01	-1.107267e+01
4.318348e+01	-1.111894e+01
4.343291e+01	-1.116507e+01
4.368377e+01	-1.121194e+01
4.393609e+01	-1.125779e+01
4.418986e+01	-1.130417e+01
4.444510e+01	-1.135014e+01
4.470182e+01	-1.139660e+01
4.496001e+01	-1.144346e+01
4.521970e+01	-1.148987e+01
4.548089e+01	-1.153629e+01
4.574358e+01	-1.158317e+01
4.600779e+01	-1.162949e+01
4.627353e+01	-1.167644e+01
4.654081e+01	-1.172221e+01
4.680963e+01	-1.176945e+01
4.708000e+01	-1.181596e+01
4.735193e+01	-1.186309e+01
4.762543e+01	-1.190986e+01
4.790051e+01	-1.195674e+01
4.817719e+01	-1.200307e+01
4.845545e+01	-1.205048e+01
4.873533e+01	-1.209743e+01
4.901682e+01	-1.214464e+01
4.929994e+01	-1.219092e+01
4.958470e+01	-1.223834e+01
4.987110e+01	-1.228515e+01
5.015915e+01	-1.233235e+01
5.044887e+01	-1.237987e+01
5.074026e+01	-1.242654e+01
5.103333e+01	-1.247326e+01
5.132810e+01	-1.252096e+01
5.162457e+01	-1.256808e+01
5.192275e+01	-1.261553e+01
5.222265e+01	-1.266275e+01
5.252429e+01	-1.271002e+01
5.282767e+01	-1.275760e+01
5.313280e+01	-1.280481e+01
5.343969e+01	-1.285241e+01
5.374836e+01	-1.289974e+01
5.405880e+01	-1.294752e+01
5.437105e+01	-1.299428e+01
5.468509e+01	-1.304237e+01
5.500095e+01	-1.309011e+01
5.531863e+01	-1.313773e+01
5.563815e+01	-1.318503e+01
5.595951e+01	-1.323171e+01
5.628273e+01	-1.328040e+01
5.660782e+01	-1.332784e+01
5.693479e+01	-1.337647e+01
5.726364e+01	-1.342343e+01
5.759439e+01	-1.347074e+01
5.792705e+01	-1.351961e+01
5.826164e+01	-1.356640e+01
5.859815e+01	-1.361486e+01
5.893662e+01	-1.366315e+01
5.927703e+01	-1.371115e+01
5.961941e+01	-1.375881e+01
5.996377e+01	-1.380533e+01
6.031012e+01	-1.385392e+01
6.065847e+01	-1.390260e+01
6.100883e+01	-1.395020e+01
6.136121e+01	-1.399767e+01
6.171563e+01	-1.404608e+01
6.207210e+01	-1.409410e+01
6.243063e+01	-1.414209e+01
6.279122e+01	-1.419046e+01
6.315390e+01	-1.423843e+01
6.351868e+01	-1.428660e+01
6.388556e+01	-1.433476e+01
6.425456e+01	-1.438410e+01
6.462569e+01	-1.443094e+01
6.499897e+01	-1.447947e+01
6.537440e+01	-1.452737e+01
6.575200e+01	-1.457609e+01
6.613178e+01	-1.462368e+01
6.651375e+01	-1.467311e+01
6.689793e+01	-1.472201e+01
6.728433e+01	-1.476916e+01
6.767297e+01	-1.481815e+01
6.806384e+01	-1.486634e+01
6.845698e+01	-1.491459e+01
6.885238e+01	-1.496337e+01
6.925007e+01	-1.501163e+01
6.965005e+01	-1.506053e+01
7.005235e+01	-1.510866e+01
7.045697e+01	-1.515707e+01
7.086393e+01	-1.520606e+01
7.127323e+01	-1.525428e+01
7.168490e+01	-1.530177e+01
7.209895e+01	-1.535118e+01
7.251539e+01	-1.539941e+01
7.293424e+01	-1.544858e+01
7.335551e+01	-1.549719e+01
7.377920e+01	-1.554570e+01
7.420535e+01	-1.559421e+01
7.463396e+01	-1.564326e+01
7.506504e+01	-1.569116e+01
7.549861e+01	-1.574133e+01
7.593469e+01	-1.578980e+01
7.637328e+01	-1.583805e+01
7.681441e+01	-1.588564e+01
7.725809e+01	-1.593453e+01
7.770433e+01	-1.598383e+01
7.815315e+01	-1.603218e+01
7.860456e+01	-1.608264e+01
7.905857e+01	-1.613012e+01
7.951521e+01	-1.617887e+01
7.997449e+01	-1.622753e+01
8.043642e+01	-1.627682e+01
8.090102e+01	-1.632521e+01
8.136830e+01	-1.637451e+01
8.183828e+01	-1.642177e+01
8.231097e+01	-1.647089e+01
8.278640e+01	-1.652030e+01
8.326457e+01	-1.656970e+01
8.374550e+01	-1.661966e+01
8.422921e+01	-1.666825e+01
8.471572e+01	-1.671550e+01
8.520503e+01	-1.676711e+01
8.569717e+01	-1.681395e+01
8.619215e+01	-1.686412e+01
8.669000e+01	-1.691359e+01
8.719071e+01	-1.696168e+01
8.769432e+01	-1.701062e+01
8.820084e+01	-1.705921e+01
8.871029e+01	-1.710962e+01
8.922267e+01	-1.715703e+01
8.973802e+01	-1.720611e+01
9.025634e+01	-1.725500e+01
9.077766e+01	-1.730443e+01
9.130199e+01	-1.735422e+01
9.182935e+01	-1.740397e+01
9.235975e+01	-1.745364e+01
9.289321e+01	-1.750147e+01
9.342976e+01	-1.755065e+01
9.396941e+01	-1.759960e+01
9.451217e+01	-1.764982e+01
9.505807e+01	-1.769729e+01
9.560712e+01	-1.774752e+01
9.615934e+01	-1.779516e+01
9.671476e+01	-1.784496e+01
9.727338e+01	-1.789612e+01
9.783522e+01	-1.794443e+01
9.840032e+01	-1.799472e+01
9.896867e+01	-1.804172e+01
9.954031e+01	-1.809133e+01
1.001153e+02	-1.814209e+01
1.006935e+02	-1.819035e+01
1.012751e+02	-1.824046e+01
1.018601e+02	-1.828920e+01
1.024484e+02	-1.833972e+01
1.030402e+02	-1.838757e+01
1.036353e+02	-1.843794e+01
1.042339e+02	-1.848652e+01
1.048360e+02	-1.853670e+01
1.054415e+02	-1.858508e+01
1.060505e+02	-1.863369e+01
1.066631e+02	-1.868453e+01
1.072791e+02	-1.873302e+01
1.078988e+02	-1.878027e+01
1.085220e+02	-1.883200e+01
1.091488e+02	-1.888144e+01
1.097793e+02	-1.893221e+01
1.104133e+02	-1.897884e+01
1.110511e+02	-1.902978e+01
1.116925e+02	-1.907768e+01
1.123376e+02	-1.912857e+01
1.129865e+02	-1.917622e+01
1.136391e+02	-1.922766e+01
1.142955e+02	-1.927760e+01
1.149556e+02	-1.932627e+01
1.156196e+02	-1.937527e+01
1.162874e+02	-1.942538e+01
1.169591e+02	-1.947502e+01
1.176347e+02	-1.952305e+01
1.183141e+02	-1.957429e+01
1.189975e+02	-1.962359e+01
1.196848e+02	-1.967156e+01
1.203761e+02	-1.972070e+01
1.210714e+02	-1.977142e+01
1.217707e+02	-1.982007e+01
1.224740e+02	-1.987022e+01
1.231814e+02	-1.991938e+01
1.238929e+02	-1.996901e+01
1.246085e+02	-2.001967e+01
1.253283e+02	-2.006853e+01
1.260522e+02	-2.011822e+01
1.267802e+02	-2.016830e+01
1.275125e+02	-2.021543e+01
1.282490e+02	-2.026653e+01
1.289898e+02	-2.031707e+01
1.297348e+02	-2.036631e+01
1.304842e+02	-2.041778e+01
1.312378e+02	-2.046607e+01
1.319959e+02	-2.051382e+01
1.327583e+02	-2.056538e+01
1.335251e+02	-2.061509e+01
1.342963e+02	-2.066218e+01
1.350720e+02	-2.071249e+01
1.358522e+02	-2.076245e+01
1.366368e+02	-2.081176e+01
1.374260e+02	-2.086178e+01
1.382198e+02	-2.091096e+01
1.390182e+02	-2.096288e+01
1.398211e+02	-2.101071e+01
1.406287e+02	-2.106097e+01
1.414410e+02	-2.111102e+01
1.422579e+02	-2.116137e+01
1.430796e+02	-2.121102e+01
1.439060e+02	-2.125931e+01
1.447372e+02	-2.130746e+01
1.455732e+02	-2.135848e+01
1.464141e+02	-2.140765e+01
1.472597e+02	-2.145909e+01
1.481103e+02	-2.150640e+01
1.489658e+02	-2.155540e+01
1.498262e+02	-2.160581e+01
1.506916e+02	-2.165607e+01
1.515620e+02	-2.170566e+01
1.524374e+02	-2.175422e+01
1.533179e+02	-2.180682e+01
1.542034e+02	-2.185670e+01
1.550941e+02	-2.190688e+01
1.559899e+02	-2.195591e+01
1.568909e+02	-2.200433e+01
1.577971e+02	-2.205416e+01
1.587085e+02	-2.210391e+01
1.596252e+02	-2.215535e+01
1.605472e+02	-2.220461e+01
1.614745e+02	-2.225365e+01
1.624072e+02	-2.230158e+01
1.633453e+02	-2.235354e+01
1.642887e+02	-2.240209e+01
1.652377e+02	-2.245387e+01
1.661921e+02	-2.250108e+01
1.671520e+02	-2.255110e+01
1.681175e+02	-2.260274e+01
1.690885e+02	-2.265238e+01
1.700651e+02	-2.269991e+01
1.710474e+02	-2.275231e+01
1.720354e+02	-2.280147e+01
1.730291e+02	-2.285090e+01
1.740285e+02	-2.290075e+01
1.750337e+02	-2.294923e+01
1.760446e+02	-2.300078e+01
1.770615e+02	-2.305063e+01
1.780842e+02	-2.309920e+01
1.791128e+02	-2.315056e+01
1.801473e+02	-2.319962e+01
1.811878e+02	-2.324966e+01
1.822344e+02	-2.329751e+01
1.832870e+02	-2.334718e+01
1.843456e+02	-2.339775e+01
1.854104e+02	-2.344715e+01
1.864813e+02	-2.349803e+01
1.875584e+02	-2.354844e+01
1.886418e+02	-2.359782e+01
1.897313e+02	-2.364691e+01
1.908272e+02	-2.369816e+01
1.919294e+02	-2.374790e+01
1.930380e+02	-2.379688e+01
1.941530e+02	-2.384627e+01
1.952744e+02	-2.389711e+01
1.964023e+02	-2.394735e+01
1.975367e+02	-2.399601e+01
1.986777e+02	-2.404590e+01
1.998252e+02	-2.409892e+01
2.009794e+02	-2.414684e+01
2.021403e+02	-2.419576e+01
2.033078e+02	-2.424521e+01
2.044821e+02	-2.429689e+01
2.056632e+02	-2.434463e+01
2.068511e+02	-2.439540e+01
2.080459e+02	-2.444540e+01
2.092475e+02	-2.449680e+01
2.104561e+02	-2.454779e+01
2.116717e+02	-2.459302e+01
2.128943e+02	-2.464540e+01
2.141240e+02	-2.469449e+01
2.153608e+02	-2.474496e+01
2.166047e+02	-2.479403e+01
2.178558e+02	-2.484430e+01
2.191141e+02	-2.489468e+01
2.203797e+02	-2.494644e+01
2.216526e+02	-2.499563e+01
2.229329e+02	-2.504181e+01
2.242205e+02	-2.509490e+01
2.255156e+02	-2.514447e+01
2.268182e+02	-2.519447e+01
2.281283e+02	-2.524643e+01
2.294459e+02	-2.529274e+01
2.307712e+02	-2.534360e+01
2.321041e+02	-2.539256e+01
2.334447e+02	-2.544388e+01
2.347931e+02	-2.549480e+01
2.361493e+02	-2.554299e+01
2.375133e+02	-2.559302e+01
2.388851e+02	-2.564470e+01
2.402649e+02	-2.569218e+01
2.416527e+02	-2.574482e+01
2.430484e+02	-2.579297e+01
2.444523e+02	-2.584416e+01
2.458642e+02	-2.589375e+01
2.472843e+02	-2.594371e+01
2.487126e+02	-2.599135e+01
2.501492e+02	-2.604090e+01
2.515940e+02	-2.609536e+01
2.530472e+02	-2.614174e+01
2.545088e+02	-2.619497e+01
2.559789e+02	-2.624075e+01
2.574574e+02	-2.629564e+01
2.589444e+02	-2.634045e+01
2.604401e+02	-2.639070e+01
2.619444e+02	-2.644334e+01
2.634574e+02	-2.649145e+01
2.649791e+02	-2.654087e+01
2.665096e+02	-2.659269e+01
2.680489e+02	-2.664364e+01
2.695972e+02	-2.669363e+01
2.711544e+02	-2.674386e+01
2.727205e+02	-2.679498e+01
2.742958e+02	-2.684055e+01
2.758801e+02	-2.689149e+01
2.774736e+02	-2.694347e+01
2.790762e+02	-2.698910e+01
2.806882e+02	-2.704099e+01
2.823094e+02	-2.709568e+01
2.839400e+02	-2.714451e+01
2.855800e+02	-2.719490e+01
2.872295e+02	-2.724189e+01
2.888886e+02	-2.729446e+01
2.905572e+02	-2.734131e+01
2.922354e+02	-2.739244e+01
2.939234e+02	-2.744194e+01
2.956211e+02	-2.749510e+01
2.973286e+02	-2.754328e+01
2.990459e+02	-2.759395e+01
3.007732e+02	-2.764337e+01
3.025104e+02	-2.769035e+01
3.042577e+02	-2.774402e+01
3.060151e+02	-2.779439e+01
3.077826e+02	-2.784274e+01
3.095604e+02	-2.788980e+01
3.113484e+02	-2.794260e+01
3.131467e+02	-2.799304e+01
3.149554e+02	-2.803876e+01
3.167746e+02	-2.809505e+01
3.186043e+02	-2.814051e+01
3.204445e+02	-2.819467e+01
3.222954e+02	-2.824195e+01
3.241570e+02	-2.829329e+01
3.260293e+02	-2.834699e+01
3.279124e+02	-2.839324e+01
3.298064e+02	-2.844449e+01
3.317114e+02	-2.849505e+01
3.336273e+02	-2.854237e+01
3.355544e+02	-2.859517e+01
3.374925e+02	-2.864280e+01
3.394418e+02	-2.869276e+01
3.414024e+02	-2.874570e+01
3.433744e+02	-2.879284e+01
3.453577e+02	-2.884134e+01
3.473525e+02	-2.889144e+01
3.493588e+02	-2.894801e+01
3.513766e+02	-2.899162e+01
3.534062e+02	-2.904571e+01
3.554474e+02	-2.909276e+01
3.575005e+02	-2.914721e+01
3.595654e+02	-2.919318e+01
3.616422e+02	-2.924314e+01
3.637311e+02	-2.929583e+01
3.658320e+02	-2.934594e+01
3.679450e+02	-2.939763e+01
3.700702e+02	-2.944585e+01
3.722077e+02	-2.949765e+01
3.743576e+02	-2.954524e+01
3.765199e+02	-2.958953e+01
3.786946e+02	-2.964503e+01
3.808820e+02	-2.969611e+01
3.830819e+02	-2.974560e+01
3.852946e+02	-2.979562e+01
3.875200e+02	-2.984395e+01
3.897583e+02	-2.989634e+01
3.920096e+02	-2.994989e+01
3.942738e+02	-2.999283e+01
3.965511e+02	-3.004342e+01
3.988416e+02	-3.009575e+01
4.011452e+02	-3.014123e+01
4.034622e+02	-3.019783e+01
4.057926e+02	-3.024821e+01
4.081365e+02	-3.029746e+01
4.104938e+02	-3.034335e+01
4.128648e+02	-3.039480e+01
4.152495e+02	-3.044168e+01
4.176480e+02	-3.050130e+01
4.200603e+02	-3.054419e+01
4.224866e+02	-3.059879e+01
4.249268e+02	-3.064785e+01
4.273812e+02	-3.069074e+01
4.298497e+02	-3.074620e+01
4.323325e+02	-3.079942e+01
4.348297e+02	-3.084711e+01
4.373412e+02	-3.089501e+01
4.398673e+02	-3.094620e+01
4.424079e+02	-3.099345e+01
4.449633e+02	-3.105033e+01
4.475334e+02	-3.109190e+01
4.501183e+02	-3.114642e+01
4.527182e+02	-3.119717e+01
4.553330e+02	-3.124593e+01
4.579630e+02	-3.130023e+01
4.606082e+02	-3.134842e+01
4.632687e+02	-3.139679e+01
4.659445e+02	-3.144594e+01
4.686358e+02	-3.148969e+01
4.713426e+02	-3.154916e+01
4.740650e+02	-3.158939e+01
4.768032e+02	-3.164990e+01
4.795572e+02	-3.170023e+01
4.823271e+02	-3.175488e+01
4.851130e+02	-3.179671e+01
4.879150e+02	-3.184704e+01
4.907332e+02	-3.190174e+01
4.935676e+02	-3.195299e+01
4.964185e+02	-3.199762e+01
4.992858e+02	-3.205255e+01
5.021696e+02	-3.210216e+01
5.050701e+02	-3.215538e+01
5.079874e+02	-3.220158e+01
5.109215e+02	-3.225358e+01
5.138726e+02	-3.229670e+01
5.168407e+02	-3.234331e+01
5.198259e+02	-3.240165e+01
5.228284e+02	-3.245231e+01
5.258482e+02	-3.250079e+01
5.288855e+02	-3.255488e+01
5.319403e+02	-3.260270e+01
5.350128e+02	-3.264500e+01
5.381030e+02	-3.270560e+01
5.412111e+02	-3.275490e+01
5.443371e+02	-3.280080e+01
5.474812e+02	-3.285237e+01
5.506434e+02	-3.290362e+01
5.538239e+02	-3.295399e+01
5.570228e+02	-3.299449e+01
5.602401e+02	-3.305215e+01
5.634760e+02	-3.310243e+01
5.667306e+02	-3.315618e+01
5.700040e+02	-3.320015e+01
5.732964e+02	-3.325353e+01
5.766077e+02	-3.329957e+01
5.799382e+02	-3.336000e+01
5.832879e+02	-3.340824e+01
5.866569e+02	-3.345594e+01
5.900454e+02	-3.350428e+01
5.934535e+02	-3.356139e+01
5.968813e+02	-3.360488e+01
6.003288e+02	-3.365801e+01
6.037963e+02	-3.370500e+01
6.072838e+02	-3.375780e+01
6.107914e+02	-3.381755e+01
6.143194e+02	-3.386123e+01
6.178676e+02	-3.390877e+01
6.214364e+02	-3.395355e+01
6.250258e+02	-3.400611e+01
6.286359e+02	-3.405930e+01
6.322669e+02	-3.410946e+01
6.359189e+02	-3.416564e+01
6.395919e+02	-3.421098e+01
6.432862e+02	-3.425884e+01
6.470017e+02	-3.430763e+01
6.507388e+02	-3.435939e+01
6.544974e+02	-3.441886e+01
6.582778e+02	-3.446569e+01
6.620800e+02	-3.450853e+01
6.659041e+02	-3.456433e+01
6.697504e+02	-3.461400e+01
6.736188e+02	-3.467457e+01
6.775096e+02	-3.471340e+01
6.814229e+02	-3.476405e+01
6.853587e+02	-3.481246e+01
6.893173e+02	-3.486222e+01
6.932988e+02	-3.491754e+01
6.973033e+02	-3.496745e+01
7.013309e+02	-3.501599e+01
