Frequency(Hz)	Magnitude(dB)
1.000000e+01	-1.484972e-05
1.005776e+01	-1.502175e-05
1.011585e+01	-1.519579e-05
1.017428e+01	-1.537183e-05
1.023305e+01	-1.554992e-05
1.029215e+01	-1.573007e-05
1.035160e+01	-1.591231e-05
1.041139e+01	-1.609665e-05
1.047153e+01	-1.628314e-05
1.053201e+01	-1.647178e-05
1.059284e+01	-1.666261e-05
1.065403e+01	-1.685565e-05
1.071556e+01	-1.705093e-05
1.077746e+01	-1.724847e-05
1.083971e+01	-1.744830e-05
1.090232e+01	-1.765044e-05
1.096529e+01	-1.785493e-05
1.102862e+01	-1.806178e-05
1.109232e+01	-1.827103e-05
1.115639e+01	-1.848270e-05
1.122083e+01	-1.869683e-05
1.128564e+01	-1.891344e-05
1.135083e+01	-1.913256e-05
1.141639e+01	-1.935421e-05
1.148233e+01	-1.957843e-05
1.154865e+01	-1.980526e-05
1.161536e+01	-2.003470e-05
1.168245e+01	-2.026681e-05
1.174992e+01	-2.050161e-05
1.181779e+01	-2.073912e-05
1.188605e+01	-2.097939e-05
1.195470e+01	-2.122244e-05
1.202375e+01	-2.146831e-05
1.209320e+01	-2.171703e-05
1.216305e+01	-2.196862e-05
1.223330e+01	-2.222314e-05
1.230396e+01	-2.248060e-05
1.237503e+01	-2.274104e-05
1.244651e+01	-2.300450e-05
1.251840e+01	-2.327101e-05
1.259070e+01	-2.354061e-05
1.266343e+01	-2.381334e-05
1.273657e+01	-2.408922e-05
1.281014e+01	-2.436830e-05
1.288413e+01	-2.465061e-05
1.295855e+01	-2.493620e-05
1.303339e+01	-2.522509e-05
1.310867e+01	-2.551733e-05
1.318439e+01	-2.581295e-05
1.326054e+01	-2.611200e-05
1.333713e+01	-2.641452e-05
1.341417e+01	-2.672053e-05
1.349165e+01	-2.703010e-05
1.356958e+01	-2.734325e-05
1.364795e+01	-2.766003e-05
1.372678e+01	-2.798047e-05
1.380607e+01	-2.830464e-05
1.388581e+01	-2.863255e-05
1.396602e+01	-2.896427e-05
1.404668e+01	-2.929982e-05
1.412782e+01	-2.963927e-05
1.420942e+01	-2.998265e-05
1.429149e+01	-3.033000e-05
1.437404e+01	-3.068138e-05
1.445706e+01	-3.103684e-05
1.454057e+01	-3.139640e-05
1.462455e+01	-3.176014e-05
1.470902e+01	-3.212809e-05
1.479398e+01	-3.250030e-05
1.487943e+01	-3.287682e-05
1.496537e+01	-3.325771e-05
1.505181e+01	-3.364301e-05
1.513875e+01	-3.403277e-05
1.522619e+01	-3.442705e-05
1.531414e+01	-3.482589e-05
1.540259e+01	-3.522936e-05
1.549156e+01	-3.563750e-05
1.558103e+01	-3.605037e-05
1.567103e+01	-3.646802e-05
1.576155e+01	-3.689051e-05
1.585258e+01	-3.731790e-05
1.594415e+01	-3.775023e-05
1.603624e+01	-3.818758e-05
1.612886e+01	-3.862999e-05
1.622202e+01	-3.907753e-05
1.631572e+01	-3.953025e-05
1.640996e+01	-3.998821e-05
1.650474e+01	-4.045149e-05
1.660008e+01	-4.092013e-05
1.669596e+01	-4.139420e-05
1.679239e+01	-4.187376e-05
1.688938e+01	-4.235887e-05
1.698694e+01	-4.284961e-05
1.708505e+01	-4.334603e-05
1.718373e+01	-4.384821e-05
1.728299e+01	-4.435620e-05
1.738281e+01	-4.487007e-05
1.748322e+01	-4.538990e-05
1.758420e+01	-4.591576e-05
1.768576e+01	-4.644770e-05
1.778792e+01	-4.698581e-05
1.789066e+01	-4.753015e-05
1.799399e+01	-4.808079e-05
1.809793e+01	-4.863782e-05
1.820246e+01	-4.920130e-05
1.830760e+01	-4.977131e-05
1.841334e+01	-5.034792e-05
1.851969e+01	-5.093121e-05
1.862666e+01	-5.152126e-05
1.873425e+01	-5.211814e-05
1.884246e+01	-5.272194e-05
1.895129e+01	-5.333274e-05
1.906075e+01	-5.395061e-05
1.917085e+01	-5.457564e-05
1.928158e+01	-5.520791e-05
1.939295e+01	-5.584750e-05
1.950496e+01	-5.649451e-05
1.961762e+01	-5.714901e-05
1.973093e+01	-5.781109e-05
1.984490e+01	-5.848084e-05
1.995952e+01	-5.915836e-05
2.007480e+01	-5.984372e-05
2.019076e+01	-6.053702e-05
2.030738e+01	-6.123835e-05
2.042467e+01	-6.194781e-05
2.054264e+01	-6.266549e-05
2.066130e+01	-6.339148e-05
2.078064e+01	-6.412588e-05
2.090066e+01	-6.486879e-05
2.102139e+01	-6.562031e-05
2.114280e+01	-6.638053e-05
2.126492e+01	-6.714957e-05
2.138775e+01	-6.792751e-05
2.151128e+01	-6.871446e-05
2.163553e+01	-6.951053e-05
2.176050e+01	-7.031582e-05
2.188619e+01	-7.113044e-05
2.201260e+01	-7.195450e-05
2.213974e+01	-7.278811e-05
2.226762e+01	-7.363137e-05
2.239624e+01	-7.448440e-05
2.252560e+01	-7.534732e-05
2.265571e+01	-7.622023e-05
2.278656e+01	-7.710326e-05
2.291818e+01	-7.799651e-05
2.305055e+01	-7.890011e-05
2.318369e+01	-7.981419e-05
2.331760e+01	-8.073885e-05
2.345228e+01	-8.167422e-05
2.358774e+01	-8.262043e-05
2.372398e+01	-8.357760e-05
2.386101e+01	-8.454586e-05
2.399883e+01	-8.552534e-05
2.413745e+01	-8.651616e-05
2.427686e+01	-8.751847e-05
2.441709e+01	-8.853238e-05
2.455812e+01	-8.955805e-05
2.469997e+01	-9.059559e-05
2.484263e+01	-9.164515e-05
2.498612e+01	-9.270688e-05
2.513044e+01	-9.378090e-05
2.527559e+01	-9.486737e-05
2.542158e+01	-9.596642e-05
2.556842e+01	-9.707821e-05
2.571610e+01	-9.820287e-05
2.586463e+01	-9.934057e-05
2.601403e+01	-1.004914e-04
2.616428e+01	-1.016556e-04
2.631541e+01	-1.028333e-04
2.646740e+01	-1.040247e-04
2.662028e+01	-1.052298e-04
2.677404e+01	-1.064489e-04
2.692868e+01	-1.076821e-04
2.708422e+01	-1.089297e-04
2.724066e+01	-1.101916e-04
2.739800e+01	-1.114682e-04
2.755625e+01	-1.127596e-04
2.771541e+01	-1.140659e-04
2.787550e+01	-1.153874e-04
2.803650e+01	-1.167242e-04
2.819844e+01	-1.180764e-04
2.836131e+01	-1.194444e-04
2.852513e+01	-1.208281e-04
2.868989e+01	-1.222279e-04
2.885560e+01	-1.236440e-04
2.902227e+01	-1.250764e-04
2.918990e+01	-1.265254e-04
2.935850e+01	-1.279912e-04
2.952807e+01	-1.294740e-04
2.969863e+01	-1.309740e-04
2.987016e+01	-1.324913e-04
3.004269e+01	-1.340263e-04
3.021622e+01	-1.355790e-04
3.039075e+01	-1.371497e-04
3.056628e+01	-1.387386e-04
3.074283e+01	-1.403459e-04
3.092040e+01	-1.419718e-04
3.109900e+01	-1.436165e-04
3.127862e+01	-1.452803e-04
3.145929e+01	-1.469634e-04
3.164099e+01	-1.486660e-04
3.182375e+01	-1.503883e-04
3.200756e+01	-1.521306e-04
3.219244e+01	-1.538930e-04
3.237838e+01	-1.556759e-04
3.256540e+01	-1.574794e-04
3.275349e+01	-1.593038e-04
3.294268e+01	-1.611494e-04
3.313295e+01	-1.630163e-04
3.332433e+01	-1.649048e-04
3.351681e+01	-1.668153e-04
3.371040e+01	-1.687478e-04
3.390511e+01	-1.707028e-04
3.410094e+01	-1.726804e-04
3.429791e+01	-1.746809e-04
3.449601e+01	-1.767046e-04
3.469526e+01	-1.787517e-04
3.489566e+01	-1.808226e-04
3.509721e+01	-1.829174e-04
3.529993e+01	-1.850365e-04
3.550382e+01	-1.871801e-04
3.570889e+01	-1.893486e-04
3.591515e+01	-1.915422e-04
3.612259e+01	-1.937613e-04
3.633123e+01	-1.960060e-04
3.654108e+01	-1.982767e-04
3.675214e+01	-2.005738e-04
3.696442e+01	-2.028974e-04
3.717792e+01	-2.052480e-04
3.739266e+01	-2.076258e-04
3.760864e+01	-2.100311e-04
3.782587e+01	-2.124643e-04
3.804435e+01	-2.149257e-04
3.826409e+01	-2.174156e-04
3.848510e+01	-2.199344e-04
3.870739e+01	-2.224823e-04
3.893096e+01	-2.250598e-04
3.915583e+01	-2.276671e-04
3.938199e+01	-2.303046e-04
3.960946e+01	-2.329727e-04
3.983824e+01	-2.356717e-04
4.006834e+01	-2.384019e-04
4.029978e+01	-2.411638e-04
4.053255e+01	-2.439577e-04
4.076666e+01	-2.467839e-04
4.100213e+01	-2.496429e-04
4.123896e+01	-2.525350e-04
4.147715e+01	-2.554606e-04
4.171672e+01	-2.584201e-04
4.195767e+01	-2.614138e-04
4.220002e+01	-2.644423e-04
4.244377e+01	-2.675058e-04
4.268892e+01	-2.706049e-04
4.293549e+01	-2.737398e-04
4.318348e+01	-2.769111e-04
4.343291e+01	-2.801190e-04
4.368377e+01	-2.833642e-04
4.393609e+01	-2.866469e-04
4.418986e+01	-2.899677e-04
4.444510e+01	-2.933270e-04
4.470182e+01	-2.967251e-04
4.496001e+01	-3.001626e-04
4.521970e+01	-3.036400e-04
4.548089e+01	-3.071576e-04
4.574358e+01	-3.107160e-04
4.600779e+01	-3.143156e-04
4.627353e+01	-3.179569e-04
4.654081e+01	-3.216404e-04
4.680963e+01	-3.253665e-04
4.708000e+01	-3.291359e-04
4.735193e+01	-3.329488e-04
4.762543e+01	-3.368060e-04
4.790051e+01	-3.407078e-04
4.817719e+01	-3.446549e-04
4.845545e+01	-3.486476e-04
4.873533e+01	-3.526866e-04
4.901682e+01	-3.567724e-04
4.929994e+01	-3.609056e-04
4.958470e+01	-3.650866e-04
4.987110e+01	-3.693161e-04
5.015915e+01	-3.735945e-04
5.044887e+01	-3.779225e-04
5.074026e+01	-3.823006e-04
5.103333e+01	-3.867295e-04
5.132810e+01	-3.912097e-04
5.162457e+01	-3.957417e-04
5.192275e+01	-4.003263e-04
5.222265e+01	-4.049640e-04
5.252429e+01	-4.096554e-04
5.282767e+01	-4.144011e-04
5.313280e+01	-4.192018e-04
5.343969e+01	-4.240582e-04
5.374836e+01	-4.289708e-04
5.405880e+01	-4.339403e-04
5.437105e+01	-4.389673e-04
5.468509e+01	-4.440526e-04
5.500095e+01	-4.491968e-04
5.531863e+01	-4.544006e-04
5.563815e+01	-4.596647e-04
5.595951e+01	-4.649898e-04
5.628273e+01	-4.703765e-04
5.660782e+01	-4.758257e-04
5.693479e+01	-4.813379e-04
5.726364e+01	-4.869140e-04
5.759439e+01	-4.925547e-04
5.792705e+01	-4.982608e-04
5.826164e+01	-5.040330e-04
5.859815e+01	-5.098720e-04
5.893662e+01	-5.157786e-04
5.927703e+01	-5.217537e-04
5.961941e+01	-5.277980e-04
5.996377e+01	-5.339123e-04
6.031012e+01	-5.400975e-04
6.065847e+01	-5.463542e-04
6.100883e+01	-5.526835e-04
6.136121e+01	-5.590861e-04
6.171563e+01	-5.655628e-04
6.207210e+01	-5.721146e-04
6.243063e+01	-5.787423e-04
6.279122e+01	-5.854467e-04
6.315390e+01	-5.922288e-04
6.351868e+01	-5.990894e-04
6.388556e+01	-6.060296e-04
6.425456e+01	-6.130501e-04
6.462569e+01	-6.201520e-04
6.499897e+01	-6.273361e-04
6.537440e+01	-6.346034e-04
6.575200e+01	-6.419549e-04
6.613178e+01	-6.493916e-04
6.651375e+01	-6.569144e-04
6.689793e+01	-6.645243e-04
6.728433e+01	-6.722224e-04
6.767297e+01	-6.800097e-04
6.806384e+01	-6.878872e-04
6.845698e+01	-6.958559e-04
6.885238e+01	-7.039169e-04
6.925007e+01	-7.120713e-04
6.965005e+01	-7.203202e-04
7.005235e+01	-7.286646e-04
7.045697e+01	-7.371057e-04
7.086393e+01	-7.456445e-04
7.127323e+01	-7.542822e-04
7.168490e+01	-7.630200e-04
7.209895e+01	-7.718591e-04
7.251539e+01	-7.808005e-04
7.293424e+01	-7.898454e-04
7.335551e+01	-7.989951e-04
7.377920e+01	-8.082509e-04
7.420535e+01	-8.176138e-04
7.463396e+01	-8.270852e-04
7.506504e+01	-8.366663e-04
7.549861e+01	-8.463583e-04
7.593469e+01	-8.561626e-04
7.637328e+01	-8.660805e-04
7.681441e+01	-8.761133e-04
7.725809e+01	-8.862623e-04
7.770433e+01	-8.965288e-04
7.815315e+01	-9.069142e-04
7.860456e+01	-9.174200e-04
7.905857e+01	-9.280474e-04
7.951521e+01	-9.387979e-04
7.997449e+01	-9.496730e-04
8.043642e+01	-9.606740e-04
8.090102e+01	-9.718024e-04
8.136830e+01	-9.830597e-04
8.183828e+01	-9.944474e-04
8.231097e+01	-1.005967e-03
8.278640e+01	-1.017620e-03
8.326457e+01	-1.029408e-03
8.374550e+01	-1.041333e-03
8.422921e+01	-1.053395e-03
8.471572e+01	-1.065598e-03
8.520503e+01	-1.077941e-03
8.569717e+01	-1.090428e-03
8.619215e+01	-1.103059e-03
8.669000e+01	-1.115837e-03
8.719071e+01	-1.128763e-03
8.769432e+01	-1.141838e-03
8.820084e+01	-1.155065e-03
8.871029e+01	-1.168445e-03
8.922267e+01	-1.181979e-03
8.973802e+01	-1.195671e-03
9.025634e+01	-1.209521e-03
9.077766e+01	-1.223532e-03
9.130199e+01	-1.237705e-03
9.182935e+01	-1.252042e-03
9.235975e+01	-1.266545e-03
9.289321e+01	-1.281216e-03
9.342976e+01	-1.296057e-03
9.396941e+01	-1.311070e-03
9.451217e+01	-1.326257e-03
9.505807e+01	-1.341620e-03
9.560712e+01	-1.357160e-03
9.615934e+01	-1.372881e-03
9.671476e+01	-1.388783e-03
9.727338e+01	-1.404870e-03
9.783522e+01	-1.421143e-03
9.840032e+01	-1.437605e-03
9.896867e+01	-1.454257e-03
9.954031e+01	-1.471102e-03
1.001153e+02	-1.488143e-03
1.006935e+02	-1.505380e-03
1.012751e+02	-1.522817e-03
1.018601e+02	-1.540456e-03
1.024484e+02	-1.558300e-03
1.030402e+02	-1.576350e-03
1.036353e+02	-1.594609e-03
1.042339e+02	-1.613079e-03
1.048360e+02	-1.631764e-03
1.054415e+02	-1.650665e-03
1.060505e+02	-1.669784e-03
1.066631e+02	-1.689126e-03
1.072791e+02	-1.708691e-03
1.078988e+02	-1.728482e-03
1.085220e+02	-1.748503e-03
1.091488e+02	-1.768756e-03
1.097793e+02	-1.789243e-03
1.104133e+02	-1.809968e-03
1.110511e+02	-1.830932e-03
1.116925e+02	-1.852140e-03
1.123376e+02	-1.873593e-03
1.129865e+02	-1.895294e-03
1.136391e+02	-1.917247e-03
1.142955e+02	-1.939453e-03
1.149556e+02	-1.961917e-03
1.156196e+02	-1.984642e-03
1.162874e+02	-2.007629e-03
1.169591e+02	-2.030882e-03
1.176347e+02	-2.054405e-03
1.183141e+02	-2.078200e-03
1.189975e+02	-2.102271e-03
1.196848e+02	-2.126620e-03
1.203761e+02	-2.151252e-03
1.210714e+02	-2.176168e-03
1.217707e+02	-2.201373e-03
1.224740e+02	-2.226870e-03
1.231814e+02	-2.252662e-03
1.238929e+02	-2.278753e-03
1.246085e+02	-2.305146e-03
1.253283e+02	-2.331845e-03
1.260522e+02	-2.358852e-03
1.267802e+02	-2.386173e-03
1.275125e+02	-2.413810e-03
1.282490e+02	-2.441766e-03
1.289898e+02	-2.470047e-03
1.297348e+02	-2.498655e-03
1.304842e+02	-2.527594e-03
1.312378e+02	-2.556868e-03
1.319959e+02	-2.586481e-03
1.327583e+02	-2.616437e-03
1.335251e+02	-2.646740e-03
1.342963e+02	-2.677394e-03
1.350720e+02	-2.708402e-03
1.358522e+02	-2.739770e-03
1.366368e+02	-2.771501e-03
1.374260e+02	-2.803599e-03
1.382198e+02	-2.836069e-03
1.390182e+02	-2.868915e-03
1.398211e+02	-2.902141e-03
1.406287e+02	-2.935751e-03
1.414410e+02	-2.969751e-03
1.422579e+02	-3.004144e-03
1.430796e+02	-3.038936e-03
1.439060e+02	-3.074130e-03
1.447372e+02	-3.109732e-03
1.455732e+02	-3.145746e-03
1.464141e+02	-3.182177e-03
1.472597e+02	-3.219030e-03
1.481103e+02	-3.256309e-03
1.489658e+02	-3.294020e-03
1.498262e+02	-3.332167e-03
1.506916e+02	-3.370756e-03
1.515620e+02	-3.409792e-03
1.524374e+02	-3.449280e-03
1.533179e+02	-3.489224e-03
1.542034e+02	-3.529632e-03
1.550941e+02	-3.570506e-03
1.559899e+02	-3.611854e-03
1.568909e+02	-3.653681e-03
1.577971e+02	-3.695992e-03
1.587085e+02	-3.738792e-03
1.596252e+02	-3.782088e-03
1.605472e+02	-3.825886e-03
1.614745e+02	-3.870190e-03
1.624072e+02	-3.915007e-03
1.633453e+02	-3.960342e-03
1.642887e+02	-4.006203e-03
1.652377e+02	-4.052594e-03
1.661921e+02	-4.099522e-03
1.671520e+02	-4.146993e-03
1.681175e+02	-4.195014e-03
1.690885e+02	-4.243590e-03
1.700651e+02	-4.292729e-03
1.710474e+02	-4.342437e-03
1.720354e+02	-4.392719e-03
1.730291e+02	-4.443584e-03
1.740285e+02	-4.495037e-03
1.750337e+02	-4.547086e-03
1.760446e+02	-4.599737e-03
1.770615e+02	-4.652998e-03
1.780842e+02	-4.706875e-03
1.791128e+02	-4.761375e-03
1.801473e+02	-4.816506e-03
1.811878e+02	-4.872275e-03
1.822344e+02	-4.928690e-03
1.832870e+02	-4.985757e-03
1.843456e+02	-5.043485e-03
1.854104e+02	-5.101880e-03
1.864813e+02	-5.160952e-03
1.875584e+02	-5.220707e-03
1.886418e+02	-5.281153e-03
1.897313e+02	-5.342299e-03
1.908272e+02	-5.404152e-03
1.919294e+02	-5.466721e-03
1.930380e+02	-5.530014e-03
1.941530e+02	-5.594039e-03
1.952744e+02	-5.658805e-03
1.964023e+02	-5.724321e-03
1.975367e+02	-5.790594e-03
1.986777e+02	-5.857634e-03
1.998252e+02	-5.925450e-03
2.009794e+02	-5.994050e-03
2.021403e+02	-6.063444e-03
2.033078e+02	-6.133641e-03
2.044821e+02	-6.204650e-03
2.056632e+02	-6.276480e-03
2.068511e+02	-6.349142e-03
2.080459e+02	-6.422644e-03
2.092475e+02	-6.496996e-03
2.104561e+02	-6.572208e-03
2.116717e+02	-6.648290e-03
2.128943e+02	-6.725253e-03
2.141240e+02	-6.803105e-03
2.153608e+02	-6.881858e-03
2.166047e+02	-6.961522e-03
2.178558e+02	-7.042108e-03
2.191141e+02	-7.123625e-03
2.203797e+02	-7.206085e-03
2.216526e+02	-7.289499e-03
2.229329e+02	-7.373878e-03
2.242205e+02	-7.459233e-03
2.255156e+02	-7.545575e-03
2.268182e+02	-7.632915e-03
2.281283e+02	-7.721265e-03
2.294459e+02	-7.810637e-03
2.307712e+02	-7.901043e-03
2.321041e+02	-7.992494e-03
2.334447e+02	-8.085003e-03
2.347931e+02	-8.178581e-03
2.361493e+02	-8.273241e-03
2.375133e+02	-8.368996e-03
2.388851e+02	-8.465858e-03
2.402649e+02	-8.563840e-03
2.416527e+02	-8.662955e-03
2.430484e+02	-8.763216e-03
2.444523e+02	-8.864636e-03
2.458642e+02	-8.967229e-03
2.472843e+02	-9.071008e-03
2.487126e+02	-9.175986e-03
2.501492e+02	-9.282178e-03
2.515940e+02	-9.389598e-03
2.530472e+02	-9.498260e-03
2.545088e+02	-9.608177e-03
2.559789e+02	-9.719365e-03
2.574574e+02	-9.831839e-03
2.589444e+02	-9.945612e-03
2.604401e+02	-1.006070e-02
2.619444e+02	-1.017712e-02
2.634574e+02	-1.029488e-02
2.649791e+02	-1.041401e-02
2.665096e+02	-1.053451e-02
2.680489e+02	-1.065641e-02
2.695972e+02	-1.077971e-02
2.711544e+02	-1.090444e-02
2.727205e+02	-1.103061e-02
2.742958e+02	-1.115823e-02
2.758801e+02	-1.128734e-02
2.774736e+02	-1.141793e-02
2.790762e+02	-1.155003e-02
2.806882e+02	-1.168366e-02
2.823094e+02	-1.181884e-02
2.839400e+02	-1.195557e-02
2.855800e+02	-1.209389e-02
2.872295e+02	-1.223380e-02
2.888886e+02	-1.237533e-02
2.905572e+02	-1.251849e-02
2.922354e+02	-1.266331e-02
2.939234e+02	-1.280980e-02
2.956211e+02	-1.295798e-02
2.973286e+02	-1.310788e-02
2.990459e+02	-1.325950e-02
3.007732e+02	-1.341288e-02
3.025104e+02	-1.356803e-02
3.042577e+02	-1.372497e-02
3.060151e+02	-1.388372e-02
3.077826e+02	-1.404430e-02
3.095604e+02	-1.420674e-02
3.113484e+02	-1.437106e-02
3.131467e+02	-1.453727e-02
3.149554e+02	-1.470540e-02
3.167746e+02	-1.487548e-02
3.186043e+02	-1.504751e-02
3.204445e+02	-1.522153e-02
3.222954e+02	-1.539757e-02
3.241570e+02	-1.557563e-02
3.260293e+02	-1.575575e-02
3.279124e+02	-1.593795e-02
3.298064e+02	-1.612225e-02
3.317114e+02	-1.630868e-02
3.336273e+02	-1.649726e-02
3.355544e+02	-1.668801e-02
3.374925e+02	-1.688097e-02
3.394418e+02	-1.707615e-02
3.414024e+02	-1.727359e-02
3.433744e+02	-1.747330e-02
3.453577e+02	-1.767532e-02
3.473525e+02	-1.787967e-02
3.493588e+02	-1.808638e-02
3.513766e+02	-1.829547e-02
3.534062e+02	-1.850698e-02
3.554474e+02	-1.872092e-02
3.575005e+02	-1.893733e-02
3.595654e+02	-1.915624e-02
3.616422e+02	-1.937767e-02
3.637311e+02	-1.960166e-02
3.658320e+02	-1.982823e-02
3.679450e+02	-2.005741e-02
3.700702e+02	-2.028924e-02
3.722077e+02	-2.052374e-02
3.743576e+02	-2.076094e-02
3.765199e+02	-2.100088e-02
3.786946e+02	-2.124358e-02
3.808820e+02	-2.148908e-02
3.830819e+02	-2.173741e-02
3.852946e+02	-2.198860e-02
3.875200e+02	-2.224269e-02
3.897583e+02	-2.249971e-02
3.920096e+02	-2.275969e-02
3.942738e+02	-2.302266e-02
3.965511e+02	-2.328867e-02
3.988416e+02	-2.355774e-02
4.011452e+02	-2.382991e-02
4.034622e+02	-2.410522e-02
4.057926e+02	-2.438370e-02
4.081365e+02	-2.466538e-02
4.104938e+02	-2.495031e-02
4.128648e+02	-2.523853e-02
4.152495e+02	-2.553006e-02
4.176480e+02	-2.582495e-02
4.200603e+02	-2.612323e-02
4.224866e+02	-2.642495e-02
4.249268e+02	-2.673015e-02
4.273812e+02	-2.703886e-02
4.298497e+02	-2.735112e-02
4.323325e+02	-2.766697e-02
4.348297e+02	-2.798647e-02
4.373412e+02	-2.830964e-02
4.398673e+02	-2.863653e-02
4.424079e+02	-2.896718e-02
4.449633e+02	-2.930163e-02
4.475334e+02	-2.963994e-02
4.501183e+02	-2.998213e-02
4.527182e+02	-3.032827e-02
4.553330e+02	-3.067838e-02
4.579630e+02	-3.103252e-02
4.606082e+02	-3.139074e-02
4.632687e+02	-3.175308e-02
4.659445e+02	-3.211958e-02
4.686358e+02	-3.249030e-02
4.713426e+02	-3.286527e-02
4.740650e+02	-3.324456e-02
4.768032e+02	-3.362822e-02
4.795572e+02	-3.401628e-02
4.823271e+02	-3.440880e-02
4.851130e+02	-3.480583e-02
4.879150e+02	-3.520742e-02
4.907332e+02	-3.561363e-02
4.935676e+02	-3.602451e-02
4.964185e+02	-3.644011e-02
4.992858e+02	-3.686048e-02
5.021696e+02	-3.728568e-02
5.050701e+02	-3.771576e-02
5.079874e+02	-3.815078e-02
5.109215e+02	-3.859080e-02
5.138726e+02	-3.903587e-02
5.168407e+02	-3.948604e-02
5.198259e+02	-3.994139e-02
5.228284e+02	-4.040196e-02
5.258482e+02	-4.086782e-02
5.288855e+02	-4.133902e-02
5.319403e+02	-4.181564e-02
5.350128e+02	-4.229771e-02
5.381030e+02	-4.278532e-02
5.412111e+02	-4.327853e-02
5.443371e+02	-4.377739e-02
5.474812e+02	-4.428196e-02
5.506434e+02	-4.479233e-02
5.538239e+02	-4.530855e-02
5.570228e+02	-4.583068e-02
5.602401e+02	-4.635880e-02
5.634760e+02	-4.689297e-02
5.667306e+02	-4.743326e-02
5.700040e+02	-4.797975e-02
5.732964e+02	-4.853249e-02
5.766077e+02	-4.909157e-02
5.799382e+02	-4.965705e-02
5.832879e+02	-5.022900e-02
5.866569e+02	-5.080751e-02
5.900454e+02	-5.139263e-02
5.934535e+02	-5.198446e-02
5.968813e+02	-5.258306e-02
6.003288e+02	-5.318851e-02
6.037963e+02	-5.380089e-02
6.072838e+02	-5.442027e-02
6.107914e+02	-5.504674e-02
6.143194e+02	-5.568038e-02
6.178676e+02	-5.632126e-02
6.214364e+02	-5.696947e-02
6.250258e+02	-5.762508e-02
6.286359e+02	-5.828820e-02
6.322669e+02	-5.895889e-02
6.359189e+02	-5.963725e-02
6.395919e+02	-6.032335e-02
6.432862e+02	-6.101730e-02
6.470017e+02	-6.171917e-02
6.507388e+02	-6.242905e-02
6.544974e+02	-6.314705e-02
6.582778e+02	-6.387323e-02
6.620800e+02	-6.460771e-02
6.659041e+02	-6.535057e-02
6.697504e+02	-6.610190e-02
6.736188e+02	-6.686181e-02
6.775096e+02	-6.763038e-02
6.814229e+02	-6.840772e-02
6.853587e+02	-6.919392e-02
6.893173e+02	-6.998909e-02
6.932988e+02	-7.079331e-02
6.973033e+02	-7.160670e-02
7.013309e+02	-7.242936e-02
