Frequency(Hz)	Magnitude(dB)
1.000000e+01	-1.739613e-05
1.005776e+01	-1.759767e-05
1.011585e+01	-1.780154e-05
1.017428e+01	-1.800778e-05
1.023305e+01	-1.821640e-05
1.029215e+01	-1.842744e-05
1.035160e+01	-1.864093e-05
1.041139e+01	-1.885689e-05
1.047153e+01	-1.907535e-05
1.053201e+01	-1.929634e-05
1.059284e+01	-1.951990e-05
1.065403e+01	-1.974604e-05
1.071556e+01	-1.997480e-05
1.077746e+01	-2.020622e-05
1.083971e+01	-2.044031e-05
1.090232e+01	-2.067712e-05
1.096529e+01	-2.091667e-05
1.102862e+01	-2.115899e-05
1.109232e+01	-2.140412e-05
1.115639e+01	-2.165209e-05
1.122083e+01	-2.190294e-05
1.128564e+01	-2.215669e-05
1.135083e+01	-2.241338e-05
1.141639e+01	-2.267305e-05
1.148233e+01	-2.293572e-05
1.154865e+01	-2.320144e-05
1.161536e+01	-2.347023e-05
1.168245e+01	-2.374214e-05
1.174992e+01	-2.401720e-05
1.181779e+01	-2.429544e-05
1.188605e+01	-2.457691e-05
1.195470e+01	-2.486164e-05
1.202375e+01	-2.514967e-05
1.209320e+01	-2.544103e-05
1.216305e+01	-2.573577e-05
1.223330e+01	-2.603393e-05
1.230396e+01	-2.633554e-05
1.237503e+01	-2.664064e-05
1.244651e+01	-2.694928e-05
1.251840e+01	-2.726149e-05
1.259070e+01	-2.757733e-05
1.266343e+01	-2.789682e-05
1.273657e+01	-2.822001e-05
1.281014e+01	-2.854694e-05
1.288413e+01	-2.887767e-05
1.295855e+01	-2.921222e-05
1.303339e+01	-2.955065e-05
1.310867e+01	-2.989300e-05
1.318439e+01	-3.023932e-05
1.326054e+01	-3.058965e-05
1.333713e+01	-3.094404e-05
1.341417e+01	-3.130253e-05
1.349165e+01	-3.166518e-05
1.356958e+01	-3.203203e-05
1.364795e+01	-3.240313e-05
1.372678e+01	-3.277853e-05
1.380607e+01	-3.315827e-05
1.388581e+01	-3.354242e-05
1.396602e+01	-3.393102e-05
1.404668e+01	-3.432411e-05
1.412782e+01	-3.472177e-05
1.420942e+01	-3.512403e-05
1.429149e+01	-3.553095e-05
1.437404e+01	-3.594258e-05
1.445706e+01	-3.635898e-05
1.454057e+01	-3.678021e-05
1.462455e+01	-3.720632e-05
1.470902e+01	-3.763736e-05
1.479398e+01	-3.807340e-05
1.487943e+01	-3.851449e-05
1.496537e+01	-3.896069e-05
1.505181e+01	-3.941206e-05
1.513875e+01	-3.986865e-05
1.522619e+01	-4.033054e-05
1.531414e+01	-4.079778e-05
1.540259e+01	-4.127043e-05
1.549156e+01	-4.174856e-05
1.558103e+01	-4.223222e-05
1.567103e+01	-4.272149e-05
1.576155e+01	-4.321643e-05
1.585258e+01	-4.371710e-05
1.594415e+01	-4.422358e-05
1.603624e+01	-4.473592e-05
1.612886e+01	-4.525419e-05
1.622202e+01	-4.577847e-05
1.631572e+01	-4.630883e-05
1.640996e+01	-4.684532e-05
1.650474e+01	-4.738804e-05
1.660008e+01	-4.793704e-05
1.669596e+01	-4.849240e-05
1.679239e+01	-4.905419e-05
1.688938e+01	-4.962250e-05
1.698694e+01	-5.019738e-05
1.708505e+01	-5.077893e-05
1.718373e+01	-5.136722e-05
1.728299e+01	-5.196232e-05
1.738281e+01	-5.256431e-05
1.748322e+01	-5.317328e-05
1.758420e+01	-5.378930e-05
1.768576e+01	-5.441246e-05
1.778792e+01	-5.504284e-05
1.789066e+01	-5.568052e-05
1.799399e+01	-5.632559e-05
1.809793e+01	-5.697814e-05
1.820246e+01	-5.763824e-05
1.830760e+01	-5.830599e-05
1.841334e+01	-5.898148e-05
1.851969e+01	-5.966479e-05
1.862666e+01	-6.035602e-05
1.873425e+01	-6.105526e-05
1.884246e+01	-6.176259e-05
1.895129e+01	-6.247812e-05
1.906075e+01	-6.320195e-05
1.917085e+01	-6.393415e-05
1.928158e+01	-6.467484e-05
1.939295e+01	-6.542411e-05
1.950496e+01	-6.618206e-05
1.961762e+01	-6.694880e-05
1.973093e+01	-6.772441e-05
1.984490e+01	-6.850901e-05
1.995952e+01	-6.930270e-05
2.007480e+01	-7.010558e-05
2.019076e+01	-7.091777e-05
2.030738e+01	-7.173937e-05
2.042467e+01	-7.257048e-05
2.054264e+01	-7.341122e-05
2.066130e+01	-7.426170e-05
2.078064e+01	-7.512204e-05
2.090066e+01	-7.599234e-05
2.102139e+01	-7.687273e-05
2.114280e+01	-7.776331e-05
2.126492e+01	-7.866421e-05
2.138775e+01	-7.957555e-05
2.151128e+01	-8.049745e-05
2.163553e+01	-8.143002e-05
2.176050e+01	-8.237340e-05
2.188619e+01	-8.332771e-05
2.201260e+01	-8.429308e-05
2.213974e+01	-8.526963e-05
2.226762e+01	-8.625749e-05
2.239624e+01	-8.725680e-05
2.252560e+01	-8.826768e-05
2.265571e+01	-8.929028e-05
2.278656e+01	-9.032472e-05
2.291818e+01	-9.137115e-05
2.305055e+01	-9.242970e-05
2.318369e+01	-9.350051e-05
2.331760e+01	-9.458373e-05
2.345228e+01	-9.567949e-05
2.358774e+01	-9.678795e-05
2.372398e+01	-9.790926e-05
2.386101e+01	-9.904355e-05
2.399883e+01	-1.001910e-04
2.413745e+01	-1.013517e-04
2.427686e+01	-1.025259e-04
2.441709e+01	-1.037137e-04
2.455812e+01	-1.049152e-04
2.469997e+01	-1.061307e-04
2.484263e+01	-1.073602e-04
2.498612e+01	-1.086040e-04
2.513044e+01	-1.098622e-04
2.527559e+01	-1.111349e-04
2.542158e+01	-1.124224e-04
2.556842e+01	-1.137249e-04
2.571610e+01	-1.150424e-04
2.586463e+01	-1.163752e-04
2.601403e+01	-1.177234e-04
2.616428e+01	-1.190872e-04
2.631541e+01	-1.204669e-04
2.646740e+01	-1.218625e-04
2.662028e+01	-1.232743e-04
2.677404e+01	-1.247024e-04
2.692868e+01	-1.261471e-04
2.708422e+01	-1.276086e-04
2.724066e+01	-1.290869e-04
2.739800e+01	-1.305824e-04
2.755625e+01	-1.320952e-04
2.771541e+01	-1.336255e-04
2.787550e+01	-1.351736e-04
2.803650e+01	-1.367396e-04
2.819844e+01	-1.383238e-04
2.836131e+01	-1.399262e-04
2.852513e+01	-1.415473e-04
2.868989e+01	-1.431871e-04
2.885560e+01	-1.448460e-04
2.902227e+01	-1.465240e-04
2.918990e+01	-1.482215e-04
2.935850e+01	-1.499387e-04
2.952807e+01	-1.516757e-04
2.969863e+01	-1.534329e-04
2.987016e+01	-1.552104e-04
3.004269e+01	-1.570086e-04
3.021622e+01	-1.588275e-04
3.039075e+01	-1.606675e-04
3.056628e+01	-1.625289e-04
3.074283e+01	-1.644118e-04
3.092040e+01	-1.663165e-04
3.109900e+01	-1.682433e-04
3.127862e+01	-1.701924e-04
3.145929e+01	-1.721641e-04
3.164099e+01	-1.741586e-04
3.182375e+01	-1.761763e-04
3.200756e+01	-1.782173e-04
3.219244e+01	-1.802819e-04
3.237838e+01	-1.823705e-04
3.256540e+01	-1.844833e-04
3.275349e+01	-1.866205e-04
3.294268e+01	-1.887825e-04
3.313295e+01	-1.909696e-04
3.332433e+01	-1.931819e-04
3.351681e+01	-1.954200e-04
3.371040e+01	-1.976839e-04
3.390511e+01	-1.999741e-04
3.410094e+01	-2.022908e-04
3.429791e+01	-2.046343e-04
3.449601e+01	-2.070050e-04
3.469526e+01	-2.094032e-04
3.489566e+01	-2.118291e-04
3.509721e+01	-2.142831e-04
3.529993e+01	-2.167656e-04
3.550382e+01	-2.192768e-04
3.570889e+01	-2.218171e-04
3.591515e+01	-2.243869e-04
3.612259e+01	-2.269864e-04
3.633123e+01	-2.296160e-04
3.654108e+01	-2.322761e-04
3.675214e+01	-2.349670e-04
3.696442e+01	-2.376891e-04
3.717792e+01	-2.404427e-04
3.739266e+01	-2.432283e-04
3.760864e+01	-2.460461e-04
3.782587e+01	-2.488965e-04
3.804435e+01	-2.517799e-04
3.826409e+01	-2.546968e-04
3.848510e+01	-2.576474e-04
3.870739e+01	-2.606323e-04
3.893096e+01	-2.636517e-04
3.915583e+01	-2.667061e-04
3.938199e+01	-2.697958e-04
3.960946e+01	-2.729214e-04
3.983824e+01	-2.760831e-04
4.006834e+01	-2.792815e-04
4.029978e+01	-2.825170e-04
4.053255e+01	-2.857899e-04
4.076666e+01	-2.891008e-04
4.100213e+01	-2.924500e-04
4.123896e+01	-2.958380e-04
4.147715e+01	-2.992652e-04
4.171672e+01	-3.027322e-04
4.195767e+01	-3.062393e-04
4.220002e+01	-3.097870e-04
4.244377e+01	-3.133759e-04
4.268892e+01	-3.170063e-04
4.293549e+01	-3.206787e-04
4.318348e+01	-3.243938e-04
4.343291e+01	-3.281518e-04
4.368377e+01	-3.319534e-04
4.393609e+01	-3.357990e-04
4.418986e+01	-3.396892e-04
4.444510e+01	-3.436244e-04
4.470182e+01	-3.476053e-04
4.496001e+01	-3.516322e-04
4.521970e+01	-3.557058e-04
4.548089e+01	-3.598266e-04
4.574358e+01	-3.639951e-04
4.600779e+01	-3.682119e-04
4.627353e+01	-3.724775e-04
4.654081e+01	-3.767926e-04
4.680963e+01	-3.811577e-04
4.708000e+01	-3.855733e-04
4.735193e+01	-3.900401e-04
4.762543e+01	-3.945586e-04
4.790051e+01	-3.991294e-04
4.817719e+01	-4.037532e-04
4.845545e+01	-4.084306e-04
4.873533e+01	-4.131622e-04
4.901682e+01	-4.179485e-04
4.929994e+01	-4.227904e-04
4.958470e+01	-4.276883e-04
4.987110e+01	-4.326429e-04
5.015915e+01	-4.376549e-04
5.044887e+01	-4.427250e-04
5.074026e+01	-4.478538e-04
5.103333e+01	-4.530421e-04
5.132810e+01	-4.582904e-04
5.162457e+01	-4.635996e-04
5.192275e+01	-4.689702e-04
5.222265e+01	-4.744031e-04
5.252429e+01	-4.798988e-04
5.282767e+01	-4.854583e-04
5.313280e+01	-4.910821e-04
5.343969e+01	-4.967711e-04
5.374836e+01	-5.025260e-04
5.405880e+01	-5.083476e-04
5.437105e+01	-5.142366e-04
5.468509e+01	-5.201938e-04
5.500095e+01	-5.262200e-04
5.531863e+01	-5.323161e-04
5.563815e+01	-5.384827e-04
5.595951e+01	-5.447208e-04
5.628273e+01	-5.510311e-04
5.660782e+01	-5.574146e-04
5.693479e+01	-5.638720e-04
5.726364e+01	-5.704041e-04
5.759439e+01	-5.770120e-04
5.792705e+01	-5.836964e-04
5.826164e+01	-5.904582e-04
5.859815e+01	-5.972984e-04
5.893662e+01	-6.042177e-04
5.927703e+01	-6.112173e-04
5.961941e+01	-6.182979e-04
5.996377e+01	-6.254605e-04
6.031012e+01	-6.327061e-04
6.065847e+01	-6.400357e-04
6.100883e+01	-6.474501e-04
6.136121e+01	-6.549504e-04
6.171563e+01	-6.625376e-04
6.207210e+01	-6.702127e-04
6.243063e+01	-6.779767e-04
6.279122e+01	-6.858306e-04
6.315390e+01	-6.937755e-04
6.351868e+01	-7.018125e-04
6.388556e+01	-7.099425e-04
6.425456e+01	-7.181667e-04
6.462569e+01	-7.264862e-04
6.499897e+01	-7.349020e-04
6.537440e+01	-7.434153e-04
6.575200e+01	-7.520272e-04
6.613178e+01	-7.607389e-04
6.651375e+01	-7.695515e-04
6.689793e+01	-7.784662e-04
6.728433e+01	-7.874841e-04
6.767297e+01	-7.966065e-04
6.806384e+01	-8.058345e-04
6.845698e+01	-8.151695e-04
6.885238e+01	-8.246125e-04
6.925007e+01	-8.341650e-04
6.965005e+01	-8.438281e-04
7.005235e+01	-8.536031e-04
7.045697e+01	-8.634913e-04
7.086393e+01	-8.734941e-04
7.127323e+01	-8.836127e-04
7.168490e+01	-8.938486e-04
7.209895e+01	-9.042030e-04
7.251539e+01	-9.146773e-04
7.293424e+01	-9.252730e-04
7.335551e+01	-9.359913e-04
7.377920e+01	-9.468339e-04
7.420535e+01	-9.578020e-04
7.463396e+01	-9.688972e-04
7.506504e+01	-9.801208e-04
7.549861e+01	-9.914745e-04
7.593469e+01	-1.002960e-03
7.637328e+01	-1.014578e-03
7.681441e+01	-1.026331e-03
7.725809e+01	-1.038220e-03
7.770433e+01	-1.050246e-03
7.815315e+01	-1.062412e-03
7.860456e+01	-1.074719e-03
7.905857e+01	-1.087168e-03
7.951521e+01	-1.099762e-03
7.997449e+01	-1.112501e-03
8.043642e+01	-1.125388e-03
8.090102e+01	-1.138424e-03
8.136830e+01	-1.151612e-03
8.183828e+01	-1.164951e-03
8.231097e+01	-1.178446e-03
8.278640e+01	-1.192097e-03
8.326457e+01	-1.205906e-03
8.374550e+01	-1.219874e-03
8.422921e+01	-1.234005e-03
8.471572e+01	-1.248299e-03
8.520503e+01	-1.262759e-03
8.569717e+01	-1.277386e-03
8.619215e+01	-1.292183e-03
8.669000e+01	-1.307151e-03
8.719071e+01	-1.322292e-03
8.769432e+01	-1.337609e-03
8.820084e+01	-1.353103e-03
8.871029e+01	-1.368777e-03
8.922267e+01	-1.384632e-03
8.973802e+01	-1.400671e-03
9.025634e+01	-1.416895e-03
9.077766e+01	-1.433307e-03
9.130199e+01	-1.449910e-03
9.182935e+01	-1.466705e-03
9.235975e+01	-1.483694e-03
9.289321e+01	-1.500880e-03
9.342976e+01	-1.518265e-03
9.396941e+01	-1.535851e-03
9.451217e+01	-1.553642e-03
9.505807e+01	-1.571638e-03
9.560712e+01	-1.589842e-03
9.615934e+01	-1.608257e-03
9.671476e+01	-1.626886e-03
9.727338e+01	-1.645730e-03
9.783522e+01	-1.664793e-03
9.840032e+01	-1.684076e-03
9.896867e+01	-1.703583e-03
9.954031e+01	-1.723315e-03
1.001153e+02	-1.743277e-03
1.006935e+02	-1.763469e-03
1.012751e+02	-1.783895e-03
1.018601e+02	-1.804557e-03
1.024484e+02	-1.825459e-03
1.030402e+02	-1.846603e-03
1.036353e+02	-1.867992e-03
1.042339e+02	-1.889629e-03
1.048360e+02	-1.911516e-03
1.054415e+02	-1.933656e-03
1.060505e+02	-1.956053e-03
1.066631e+02	-1.978709e-03
1.072791e+02	-2.001628e-03
1.078988e+02	-2.024812e-03
1.085220e+02	-2.048264e-03
1.091488e+02	-2.071988e-03
1.097793e+02	-2.095987e-03
1.104133e+02	-2.120264e-03
1.110511e+02	-2.144821e-03
1.116925e+02	-2.169663e-03
1.123376e+02	-2.194793e-03
1.129865e+02	-2.220214e-03
1.136391e+02	-2.245929e-03
1.142955e+02	-2.271942e-03
1.149556e+02	-2.298256e-03
1.156196e+02	-2.324875e-03
1.162874e+02	-2.351802e-03
1.169591e+02	-2.379041e-03
1.176347e+02	-2.406595e-03
1.183141e+02	-2.434468e-03
1.189975e+02	-2.462664e-03
1.196848e+02	-2.491186e-03
1.203761e+02	-2.520039e-03
1.210714e+02	-2.549226e-03
1.217707e+02	-2.578750e-03
1.224740e+02	-2.608617e-03
1.231814e+02	-2.638829e-03
1.238929e+02	-2.669391e-03
1.246085e+02	-2.700307e-03
1.253283e+02	-2.731581e-03
1.260522e+02	-2.763217e-03
1.267802e+02	-2.795219e-03
1.275125e+02	-2.827592e-03
1.282490e+02	-2.860340e-03
1.289898e+02	-2.893467e-03
1.297348e+02	-2.926977e-03
1.304842e+02	-2.960875e-03
1.312378e+02	-2.995166e-03
1.319959e+02	-3.029853e-03
1.327583e+02	-3.064943e-03
1.335251e+02	-3.100438e-03
1.342963e+02	-3.136345e-03
1.350720e+02	-3.172667e-03
1.358522e+02	-3.209409e-03
1.366368e+02	-3.246577e-03
1.374260e+02	-3.284175e-03
1.382198e+02	-3.322209e-03
1.390182e+02	-3.360683e-03
1.398211e+02	-3.399602e-03
1.406287e+02	-3.438971e-03
1.414410e+02	-3.478797e-03
1.422579e+02	-3.519083e-03
1.430796e+02	-3.559836e-03
1.439060e+02	-3.601060e-03
1.447372e+02	-3.642762e-03
1.455732e+02	-3.684946e-03
1.464141e+02	-3.727619e-03
1.472597e+02	-3.770786e-03
1.481103e+02	-3.814452e-03
1.489658e+02	-3.858624e-03
1.498262e+02	-3.903307e-03
1.506916e+02	-3.948507e-03
1.515620e+02	-3.994231e-03
1.524374e+02	-4.040483e-03
1.533179e+02	-4.087271e-03
1.542034e+02	-4.134601e-03
1.550941e+02	-4.182478e-03
1.559899e+02	-4.230909e-03
1.568909e+02	-4.279901e-03
1.577971e+02	-4.329460e-03
1.587085e+02	-4.379593e-03
1.596252e+02	-4.430306e-03
1.605472e+02	-4.481605e-03
1.614745e+02	-4.533499e-03
1.624072e+02	-4.585993e-03
1.633453e+02	-4.639094e-03
1.642887e+02	-4.692810e-03
1.652377e+02	-4.747148e-03
1.661921e+02	-4.802114e-03
1.671520e+02	-4.857717e-03
1.681175e+02	-4.913963e-03
1.690885e+02	-4.970860e-03
1.700651e+02	-5.028415e-03
1.710474e+02	-5.086636e-03
1.720354e+02	-5.145531e-03
1.730291e+02	-5.205108e-03
1.740285e+02	-5.265374e-03
1.750337e+02	-5.326337e-03
1.760446e+02	-5.388006e-03
1.770615e+02	-5.450388e-03
1.780842e+02	-5.513492e-03
1.791128e+02	-5.577326e-03
1.801473e+02	-5.641898e-03
1.811878e+02	-5.707218e-03
1.822344e+02	-5.773294e-03
1.832870e+02	-5.840134e-03
1.843456e+02	-5.907747e-03
1.854104e+02	-5.976143e-03
1.864813e+02	-6.045329e-03
1.875584e+02	-6.115317e-03
1.886418e+02	-6.186114e-03
1.897313e+02	-6.257730e-03
1.908272e+02	-6.330174e-03
1.919294e+02	-6.403456e-03
1.930380e+02	-6.477587e-03
1.941530e+02	-6.552574e-03
1.952744e+02	-6.628429e-03
1.964023e+02	-6.705162e-03
1.975367e+02	-6.782782e-03
1.986777e+02	-6.861300e-03
1.998252e+02	-6.940726e-03
2.009794e+02	-7.021071e-03
2.021403e+02	-7.102346e-03
2.033078e+02	-7.184560e-03
2.044821e+02	-7.267725e-03
2.056632e+02	-7.351852e-03
2.068511e+02	-7.436952e-03
2.080459e+02	-7.523036e-03
2.092475e+02	-7.610116e-03
2.104561e+02	-7.698202e-03
2.116717e+02	-7.787308e-03
2.128943e+02	-7.877444e-03
2.141240e+02	-7.968622e-03
2.153608e+02	-8.060854e-03
2.166047e+02	-8.154154e-03
2.178558e+02	-8.248532e-03
2.191141e+02	-8.344001e-03
2.203797e+02	-8.440574e-03
2.216526e+02	-8.538264e-03
2.229329e+02	-8.637083e-03
2.242205e+02	-8.737045e-03
2.255156e+02	-8.838162e-03
2.268182e+02	-8.940449e-03
2.281283e+02	-9.043918e-03
2.294459e+02	-9.148583e-03
2.307712e+02	-9.254459e-03
2.321041e+02	-9.361558e-03
2.334447e+02	-9.469896e-03
2.347931e+02	-9.579485e-03
2.361493e+02	-9.690342e-03
2.375133e+02	-9.802480e-03
2.388851e+02	-9.915914e-03
2.402649e+02	-1.003066e-02
2.416527e+02	-1.014673e-02
2.430484e+02	-1.026414e-02
2.444523e+02	-1.038291e-02
2.458642e+02	-1.050306e-02
2.472843e+02	-1.062459e-02
2.487126e+02	-1.074752e-02
2.501492e+02	-1.087188e-02
2.515940e+02	-1.099767e-02
2.530472e+02	-1.112492e-02
2.545088e+02	-1.125364e-02
2.559789e+02	-1.138384e-02
2.574574e+02	-1.151555e-02
2.589444e+02	-1.164878e-02
2.604401e+02	-1.178355e-02
2.619444e+02	-1.191988e-02
2.634574e+02	-1.205778e-02
2.649791e+02	-1.219728e-02
2.665096e+02	-1.233839e-02
2.680489e+02	-1.248112e-02
2.695972e+02	-1.262551e-02
2.711544e+02	-1.277156e-02
2.727205e+02	-1.291930e-02
2.742958e+02	-1.306875e-02
2.758801e+02	-1.321993e-02
2.774736e+02	-1.337284e-02
2.790762e+02	-1.352753e-02
2.806882e+02	-1.368400e-02
2.823094e+02	-1.384228e-02
2.839400e+02	-1.400239e-02
2.855800e+02	-1.416434e-02
2.872295e+02	-1.432817e-02
2.888886e+02	-1.449389e-02
2.905572e+02	-1.466152e-02
2.922354e+02	-1.483108e-02
2.939234e+02	-1.500261e-02
2.956211e+02	-1.517611e-02
2.973286e+02	-1.535162e-02
2.990459e+02	-1.552915e-02
3.007732e+02	-1.570874e-02
3.025104e+02	-1.589039e-02
3.042577e+02	-1.607414e-02
3.060151e+02	-1.626002e-02
3.077826e+02	-1.644804e-02
3.095604e+02	-1.663822e-02
3.113484e+02	-1.683061e-02
3.131467e+02	-1.702521e-02
3.149554e+02	-1.722206e-02
3.167746e+02	-1.742118e-02
3.186043e+02	-1.762260e-02
3.204445e+02	-1.782634e-02
3.222954e+02	-1.803243e-02
3.241570e+02	-1.824090e-02
3.260293e+02	-1.845178e-02
3.279124e+02	-1.866508e-02
3.298064e+02	-1.888085e-02
3.317114e+02	-1.909911e-02
3.336273e+02	-1.931988e-02
3.355544e+02	-1.954320e-02
3.374925e+02	-1.976910e-02
3.394418e+02	-1.999760e-02
3.414024e+02	-2.022873e-02
3.433744e+02	-2.046254e-02
3.453577e+02	-2.069903e-02
3.473525e+02	-2.093826e-02
3.493588e+02	-2.118024e-02
3.513766e+02	-2.142501e-02
3.534062e+02	-2.167260e-02
3.554474e+02	-2.192305e-02
3.575005e+02	-2.217638e-02
3.595654e+02	-2.243263e-02
3.616422e+02	-2.269184e-02
3.637311e+02	-2.295403e-02
3.658320e+02	-2.321925e-02
3.679450e+02	-2.348752e-02
3.700702e+02	-2.375888e-02
3.722077e+02	-2.403337e-02
3.743576e+02	-2.431102e-02
3.765199e+02	-2.459187e-02
3.786946e+02	-2.487595e-02
3.808820e+02	-2.516331e-02
3.830819e+02	-2.545398e-02
3.852946e+02	-2.574799e-02
3.875200e+02	-2.604539e-02
3.897583e+02	-2.634621e-02
3.920096e+02	-2.665050e-02
3.942738e+02	-2.695829e-02
3.965511e+02	-2.726963e-02
3.988416e+02	-2.758455e-02
4.011452e+02	-2.790309e-02
4.034622e+02	-2.822530e-02
4.057926e+02	-2.855122e-02
4.081365e+02	-2.888089e-02
4.104938e+02	-2.921435e-02
4.128648e+02	-2.955165e-02
4.152495e+02	-2.989284e-02
4.176480e+02	-3.023794e-02
4.200603e+02	-3.058702e-02
4.224866e+02	-3.094011e-02
4.249268e+02	-3.129726e-02
4.273812e+02	-3.165853e-02
4.298497e+02	-3.202394e-02
4.323325e+02	-3.239356e-02
4.348297e+02	-3.276743e-02
4.373412e+02	-3.314559e-02
4.398673e+02	-3.352811e-02
4.424079e+02	-3.391502e-02
4.449633e+02	-3.430637e-02
4.475334e+02	-3.470223e-02
4.501183e+02	-3.510263e-02
4.527182e+02	-3.550764e-02
4.553330e+02	-3.591730e-02
4.579630e+02	-3.633166e-02
4.606082e+02	-3.675079e-02
4.632687e+02	-3.717473e-02
4.659445e+02	-3.760354e-02
4.686358e+02	-3.803727e-02
4.713426e+02	-3.847599e-02
4.740650e+02	-3.891974e-02
4.768032e+02	-3.936858e-02
4.795572e+02	-3.982258e-02
4.823271e+02	-4.028179e-02
4.851130e+02	-4.074627e-02
4.879150e+02	-4.121608e-02
4.907332e+02	-4.169128e-02
4.935676e+02	-4.217194e-02
4.964185e+02	-4.265811e-02
4.992858e+02	-4.314985e-02
5.021696e+02	-4.364723e-02
5.050701e+02	-4.415032e-02
5.079874e+02	-4.465918e-02
5.109215e+02	-4.517387e-02
5.138726e+02	-4.569446e-02
5.168407e+02	-4.622102e-02
5.198259e+02	-4.675361e-02
5.228284e+02	-4.729231e-02
5.258482e+02	-4.783718e-02
5.288855e+02	-4.838829e-02
5.319403e+02	-4.894572e-02
5.350128e+02	-4.950953e-02
5.381030e+02	-5.007979e-02
5.412111e+02	-5.065659e-02
5.443371e+02	-5.123999e-02
5.474812e+02	-5.183007e-02
5.506434e+02	-5.242691e-02
5.538239e+02	-5.303057e-02
5.570228e+02	-5.364114e-02
5.602401e+02	-5.425870e-02
5.634760e+02	-5.488332e-02
5.667306e+02	-5.551509e-02
5.700040e+02	-5.615408e-02
5.732964e+02	-5.680038e-02
5.766077e+02	-5.745407e-02
5.799382e+02	-5.811523e-02
5.832879e+02	-5.878395e-02
5.866569e+02	-5.946031e-02
5.900454e+02	-6.014439e-02
5.934535e+02	-6.083629e-02
5.968813e+02	-6.153610e-02
6.003288e+02	-6.224390e-02
6.037963e+02	-6.295978e-02
6.072838e+02	-6.368383e-02
6.107914e+02	-6.441614e-02
6.143194e+02	-6.515682e-02
6.178676e+02	-6.590594e-02
6.214364e+02	-6.666362e-02
6.250258e+02	-6.742993e-02
6.286359e+02	-6.820499e-02
6.322669e+02	-6.898888e-02
6.359189e+02	-6.978171e-02
6.395919e+02	-7.058357e-02
6.432862e+02	-7.139458e-02
6.470017e+02	-7.221482e-02
6.507388e+02	-7.304441e-02
6.544974e+02	-7.388345e-02
6.582778e+02	-7.473204e-02
6.620800e+02	-7.559030e-02
6.659041e+02	-7.645832e-02
6.697504e+02	-7.733622e-02
6.736188e+02	-7.822412e-02
6.775096e+02	-7.912211e-02
6.814229e+02	-8.003031e-02
6.853587e+02	-8.094885e-02
6.893173e+02	-8.187782e-02
6.932988e+02	-8.281736e-02
6.973033e+02	-8.376757e-02
7.013309e+02	-8.472857e-02
