Frequency(Hz)	Magnitude(dB)
1.000000e+01	-1.616475e-05
1.005776e+01	-1.635203e-05
1.011585e+01	-1.654147e-05
1.017428e+01	-1.673311e-05
1.023305e+01	-1.692696e-05
1.029215e+01	-1.712307e-05
1.035160e+01	-1.732144e-05
1.041139e+01	-1.752212e-05
1.047153e+01	-1.772511e-05
1.053201e+01	-1.793046e-05
1.059284e+01	-1.813819e-05
1.065403e+01	-1.834833e-05
1.071556e+01	-1.856090e-05
1.077746e+01	-1.877593e-05
1.083971e+01	-1.899346e-05
1.090232e+01	-1.921350e-05
1.096529e+01	-1.943609e-05
1.102862e+01	-1.966126e-05
1.109232e+01	-1.988905e-05
1.115639e+01	-2.011947e-05
1.122083e+01	-2.035255e-05
1.128564e+01	-2.058834e-05
1.135083e+01	-2.082686e-05
1.141639e+01	-2.106815e-05
1.148233e+01	-2.131223e-05
1.154865e+01	-2.155914e-05
1.161536e+01	-2.180890e-05
1.168245e+01	-2.206157e-05
1.174992e+01	-2.231716e-05
1.181779e+01	-2.257570e-05
1.188605e+01	-2.283725e-05
1.195470e+01	-2.310183e-05
1.202375e+01	-2.336947e-05
1.209320e+01	-2.364021e-05
1.216305e+01	-2.391408e-05
1.223330e+01	-2.419113e-05
1.230396e+01	-2.447140e-05
1.237503e+01	-2.475490e-05
1.244651e+01	-2.504169e-05
1.251840e+01	-2.533181e-05
1.259070e+01	-2.562528e-05
1.266343e+01	-2.592216e-05
1.273657e+01	-2.622247e-05
1.281014e+01	-2.652627e-05
1.288413e+01	-2.683358e-05
1.295855e+01	-2.714445e-05
1.303339e+01	-2.745893e-05
1.310867e+01	-2.777705e-05
1.318439e+01	-2.809885e-05
1.326054e+01	-2.842438e-05
1.333713e+01	-2.875369e-05
1.341417e+01	-2.908681e-05
1.349165e+01	-2.942378e-05
1.356958e+01	-2.976466e-05
1.364795e+01	-3.010950e-05
1.372678e+01	-3.045832e-05
1.380607e+01	-3.081119e-05
1.388581e+01	-3.116814e-05
1.396602e+01	-3.152923e-05
1.404668e+01	-3.189451e-05
1.412782e+01	-3.226401e-05
1.420942e+01	-3.263780e-05
1.429149e+01	-3.301591e-05
1.437404e+01	-3.339841e-05
1.445706e+01	-3.378534e-05
1.454057e+01	-3.417675e-05
1.462455e+01	-3.457270e-05
1.470902e+01	-3.497323e-05
1.479398e+01	-3.537840e-05
1.487943e+01	-3.578827e-05
1.496537e+01	-3.620289e-05
1.505181e+01	-3.662230e-05
1.513875e+01	-3.704658e-05
1.522619e+01	-3.747578e-05
1.531414e+01	-3.790994e-05
1.540259e+01	-3.834914e-05
1.549156e+01	-3.879342e-05
1.558103e+01	-3.924285e-05
1.567103e+01	-3.969749e-05
1.576155e+01	-4.015739e-05
1.585258e+01	-4.062262e-05
1.594415e+01	-4.109325e-05
1.603624e+01	-4.156932e-05
1.612886e+01	-4.205091e-05
1.622202e+01	-4.253808e-05
1.631572e+01	-4.303089e-05
1.640996e+01	-4.352942e-05
1.650474e+01	-4.403371e-05
1.660008e+01	-4.454385e-05
1.669596e+01	-4.505990e-05
1.679239e+01	-4.558193e-05
1.688938e+01	-4.611001e-05
1.698694e+01	-4.664420e-05
1.708505e+01	-4.718459e-05
1.718373e+01	-4.773123e-05
1.728299e+01	-4.828421e-05
1.738281e+01	-4.884359e-05
1.748322e+01	-4.940945e-05
1.758420e+01	-4.998187e-05
1.768576e+01	-5.056092e-05
1.778792e+01	-5.114668e-05
1.789066e+01	-5.173923e-05
1.799399e+01	-5.233864e-05
1.809793e+01	-5.294499e-05
1.820246e+01	-5.355837e-05
1.830760e+01	-5.417886e-05
1.841334e+01	-5.480653e-05
1.851969e+01	-5.544147e-05
1.862666e+01	-5.608377e-05
1.873425e+01	-5.673352e-05
1.884246e+01	-5.739079e-05
1.895129e+01	-5.805567e-05
1.906075e+01	-5.872826e-05
1.917085e+01	-5.940863e-05
1.928158e+01	-6.009690e-05
1.939295e+01	-6.079313e-05
1.950496e+01	-6.149743e-05
1.961762e+01	-6.220989e-05
1.973093e+01	-6.293060e-05
1.984490e+01	-6.365967e-05
1.995952e+01	-6.439718e-05
2.007480e+01	-6.514323e-05
2.019076e+01	-6.589793e-05
2.030738e+01	-6.666137e-05
2.042467e+01	-6.743365e-05
2.054264e+01	-6.821488e-05
2.066130e+01	-6.900517e-05
2.078064e+01	-6.980460e-05
2.090066e+01	-7.061330e-05
2.102139e+01	-7.143137e-05
2.114280e+01	-7.225892e-05
2.126492e+01	-7.309605e-05
2.138775e+01	-7.394288e-05
2.151128e+01	-7.479952e-05
2.163553e+01	-7.566609e-05
2.176050e+01	-7.654269e-05
2.188619e+01	-7.742945e-05
2.201260e+01	-7.832649e-05
2.213974e+01	-7.923391e-05
2.226762e+01	-8.015185e-05
2.239624e+01	-8.108043e-05
2.252560e+01	-8.201976e-05
2.265571e+01	-8.296997e-05
2.278656e+01	-8.393119e-05
2.291818e+01	-8.490355e-05
2.305055e+01	-8.588717e-05
2.318369e+01	-8.688218e-05
2.331760e+01	-8.788873e-05
2.345228e+01	-8.890693e-05
2.358774e+01	-8.993693e-05
2.372398e+01	-9.097887e-05
2.386101e+01	-9.203287e-05
2.399883e+01	-9.309909e-05
2.413745e+01	-9.417766e-05
2.427686e+01	-9.526872e-05
2.441709e+01	-9.637242e-05
2.455812e+01	-9.748891e-05
2.469997e+01	-9.861833e-05
2.484263e+01	-9.976084e-05
2.498612e+01	-1.009166e-04
2.513044e+01	-1.020857e-04
2.527559e+01	-1.032684e-04
2.542158e+01	-1.044648e-04
2.556842e+01	-1.056750e-04
2.571610e+01	-1.068993e-04
2.586463e+01	-1.081377e-04
2.601403e+01	-1.093905e-04
2.616428e+01	-1.106578e-04
2.631541e+01	-1.119398e-04
2.646740e+01	-1.132366e-04
2.662028e+01	-1.145485e-04
2.677404e+01	-1.158755e-04
2.692868e+01	-1.172180e-04
2.708422e+01	-1.185760e-04
2.724066e+01	-1.199497e-04
2.739800e+01	-1.213393e-04
2.755625e+01	-1.227450e-04
2.771541e+01	-1.241671e-04
2.787550e+01	-1.256055e-04
2.803650e+01	-1.270607e-04
2.819844e+01	-1.285327e-04
2.836131e+01	-1.300218e-04
2.852513e+01	-1.315281e-04
2.868989e+01	-1.330519e-04
2.885560e+01	-1.345933e-04
2.902227e+01	-1.361526e-04
2.918990e+01	-1.377299e-04
2.935850e+01	-1.393255e-04
2.952807e+01	-1.409396e-04
2.969863e+01	-1.425724e-04
2.987016e+01	-1.442241e-04
3.004269e+01	-1.458950e-04
3.021622e+01	-1.475852e-04
3.039075e+01	-1.492950e-04
3.056628e+01	-1.510246e-04
3.074283e+01	-1.527742e-04
3.092040e+01	-1.545441e-04
3.109900e+01	-1.563345e-04
3.127862e+01	-1.581456e-04
3.145929e+01	-1.599778e-04
3.164099e+01	-1.618311e-04
3.182375e+01	-1.637059e-04
3.200756e+01	-1.656025e-04
3.219244e+01	-1.675210e-04
3.237838e+01	-1.694617e-04
3.256540e+01	-1.714250e-04
3.275349e+01	-1.734109e-04
3.294268e+01	-1.754199e-04
3.313295e+01	-1.774521e-04
3.332433e+01	-1.795079e-04
3.351681e+01	-1.815875e-04
3.371040e+01	-1.836912e-04
3.390511e+01	-1.858193e-04
3.410094e+01	-1.879720e-04
3.429791e+01	-1.901497e-04
3.449601e+01	-1.923526e-04
3.469526e+01	-1.945810e-04
3.489566e+01	-1.968352e-04
3.509721e+01	-1.991155e-04
3.529993e+01	-2.014223e-04
3.550382e+01	-2.037558e-04
3.570889e+01	-2.061163e-04
3.591515e+01	-2.085042e-04
3.612259e+01	-2.109197e-04
3.633123e+01	-2.133632e-04
3.654108e+01	-2.158350e-04
3.675214e+01	-2.183354e-04
3.696442e+01	-2.208648e-04
3.717792e+01	-2.234236e-04
3.739266e+01	-2.260119e-04
3.760864e+01	-2.286303e-04
3.782587e+01	-2.312789e-04
3.804435e+01	-2.339583e-04
3.826409e+01	-2.366687e-04
3.848510e+01	-2.394105e-04
3.870739e+01	-2.421840e-04
3.893096e+01	-2.449897e-04
3.915583e+01	-2.478279e-04
3.938199e+01	-2.506990e-04
3.960946e+01	-2.536033e-04
3.983824e+01	-2.565413e-04
4.006834e+01	-2.595133e-04
4.029978e+01	-2.625198e-04
4.053255e+01	-2.655610e-04
4.076666e+01	-2.686375e-04
4.100213e+01	-2.717497e-04
4.123896e+01	-2.748979e-04
4.147715e+01	-2.780826e-04
4.171672e+01	-2.813041e-04
4.195767e+01	-2.845630e-04
4.220002e+01	-2.878596e-04
4.244377e+01	-2.911944e-04
4.268892e+01	-2.945679e-04
4.293549e+01	-2.979804e-04
4.318348e+01	-3.014325e-04
4.343291e+01	-3.049246e-04
4.368377e+01	-3.084571e-04
4.393609e+01	-3.120305e-04
4.418986e+01	-3.156453e-04
4.444510e+01	-3.193020e-04
4.470182e+01	-3.230011e-04
4.496001e+01	-3.267430e-04
4.521970e+01	-3.305283e-04
4.548089e+01	-3.343574e-04
4.574358e+01	-3.382309e-04
4.600779e+01	-3.421492e-04
4.627353e+01	-3.461129e-04
4.654081e+01	-3.501226e-04
4.680963e+01	-3.541787e-04
4.708000e+01	-3.582818e-04
4.735193e+01	-3.624324e-04
4.762543e+01	-3.666311e-04
4.790051e+01	-3.708785e-04
4.817719e+01	-3.751750e-04
4.845545e+01	-3.795213e-04
4.873533e+01	-3.839180e-04
4.901682e+01	-3.883656e-04
4.929994e+01	-3.928647e-04
4.958470e+01	-3.974159e-04
4.987110e+01	-4.020199e-04
5.015915e+01	-4.066772e-04
5.044887e+01	-4.113884e-04
5.074026e+01	-4.161543e-04
5.103333e+01	-4.209753e-04
5.132810e+01	-4.258522e-04
5.162457e+01	-4.307855e-04
5.192275e+01	-4.357761e-04
5.222265e+01	-4.408244e-04
5.252429e+01	-4.459312e-04
5.282767e+01	-4.510972e-04
5.313280e+01	-4.563230e-04
5.343969e+01	-4.616093e-04
5.374836e+01	-4.669569e-04
5.405880e+01	-4.723664e-04
5.437105e+01	-4.778386e-04
5.468509e+01	-4.833742e-04
5.500095e+01	-4.889739e-04
5.531863e+01	-4.946385e-04
5.563815e+01	-5.003687e-04
5.595951e+01	-5.061653e-04
5.628273e+01	-5.120290e-04
5.660782e+01	-5.179606e-04
5.693479e+01	-5.239610e-04
5.726364e+01	-5.300308e-04
5.759439e+01	-5.361710e-04
5.792705e+01	-5.423823e-04
5.826164e+01	-5.486656e-04
5.859815e+01	-5.550216e-04
5.893662e+01	-5.614513e-04
5.927703e+01	-5.679554e-04
5.961941e+01	-5.745349e-04
5.996377e+01	-5.811906e-04
6.031012e+01	-5.879234e-04
6.065847e+01	-5.947342e-04
6.100883e+01	-6.016239e-04
6.136121e+01	-6.085933e-04
6.171563e+01	-6.156436e-04
6.207210e+01	-6.227755e-04
6.243063e+01	-6.299900e-04
6.279122e+01	-6.372880e-04
6.315390e+01	-6.446706e-04
6.351868e+01	-6.521388e-04
6.388556e+01	-6.596934e-04
6.425456e+01	-6.673355e-04
6.462569e+01	-6.750662e-04
6.499897e+01	-6.828864e-04
6.537440e+01	-6.907972e-04
6.575200e+01	-6.987997e-04
6.613178e+01	-7.068948e-04
6.651375e+01	-7.150837e-04
6.689793e+01	-7.233674e-04
6.728433e+01	-7.317471e-04
6.767297e+01	-7.402239e-04
6.806384e+01	-7.487989e-04
6.845698e+01	-7.574731e-04
6.885238e+01	-7.662479e-04
6.925007e+01	-7.751243e-04
6.965005e+01	-7.841035e-04
7.005235e+01	-7.931867e-04
7.045697e+01	-8.023752e-04
7.086393e+01	-8.116700e-04
7.127323e+01	-8.210726e-04
7.168490e+01	-8.305840e-04
7.209895e+01	-8.402056e-04
7.251539e+01	-8.499387e-04
7.293424e+01	-8.597845e-04
7.335551e+01	-8.697443e-04
7.377920e+01	-8.798195e-04
7.420535e+01	-8.900114e-04
7.463396e+01	-9.003214e-04
7.506504e+01	-9.107508e-04
7.549861e+01	-9.213009e-04
7.593469e+01	-9.319733e-04
7.637328e+01	-9.427693e-04
7.681441e+01	-9.536904e-04
7.725809e+01	-9.647379e-04
7.770433e+01	-9.759134e-04
7.815315e+01	-9.872183e-04
7.860456e+01	-9.986542e-04
7.905857e+01	-1.010223e-03
7.951521e+01	-1.021925e-03
7.997449e+01	-1.033763e-03
8.043642e+01	-1.045738e-03
8.090102e+01	-1.057851e-03
8.136830e+01	-1.070105e-03
8.183828e+01	-1.082501e-03
8.231097e+01	-1.095041e-03
8.278640e+01	-1.107726e-03
8.326457e+01	-1.120557e-03
8.374550e+01	-1.133537e-03
8.422921e+01	-1.146668e-03
8.471572e+01	-1.159951e-03
8.520503e+01	-1.173387e-03
8.569717e+01	-1.186979e-03
8.619215e+01	-1.200729e-03
8.669000e+01	-1.214638e-03
8.719071e+01	-1.228708e-03
8.769432e+01	-1.242941e-03
8.820084e+01	-1.257338e-03
8.871029e+01	-1.271903e-03
8.922267e+01	-1.286636e-03
8.973802e+01	-1.301540e-03
9.025634e+01	-1.316616e-03
9.077766e+01	-1.331867e-03
9.130199e+01	-1.347295e-03
9.182935e+01	-1.362901e-03
9.235975e+01	-1.378688e-03
9.289321e+01	-1.394658e-03
9.342976e+01	-1.410813e-03
9.396941e+01	-1.427155e-03
9.451217e+01	-1.443686e-03
9.505807e+01	-1.460409e-03
9.560712e+01	-1.477325e-03
9.615934e+01	-1.494437e-03
9.671476e+01	-1.511748e-03
9.727338e+01	-1.529259e-03
9.783522e+01	-1.546973e-03
9.840032e+01	-1.564891e-03
9.896867e+01	-1.583018e-03
9.954031e+01	-1.601354e-03
1.001153e+02	-1.619903e-03
1.006935e+02	-1.638666e-03
1.012751e+02	-1.657647e-03
1.018601e+02	-1.676848e-03
1.024484e+02	-1.696270e-03
1.030402e+02	-1.715918e-03
1.036353e+02	-1.735794e-03
1.042339e+02	-1.755899e-03
1.048360e+02	-1.776238e-03
1.054415e+02	-1.796812e-03
1.060505e+02	-1.817624e-03
1.066631e+02	-1.838677e-03
1.072791e+02	-1.859974e-03
1.078988e+02	-1.881518e-03
1.085220e+02	-1.903311e-03
1.091488e+02	-1.925356e-03
1.097793e+02	-1.947657e-03
1.104133e+02	-1.970216e-03
1.110511e+02	-1.993036e-03
1.116925e+02	-2.016121e-03
1.123376e+02	-2.039473e-03
1.129865e+02	-2.063095e-03
1.136391e+02	-2.086991e-03
1.142955e+02	-2.111163e-03
1.149556e+02	-2.135615e-03
1.156196e+02	-2.160351e-03
1.162874e+02	-2.185373e-03
1.169591e+02	-2.210684e-03
1.176347e+02	-2.236289e-03
1.183141e+02	-2.262190e-03
1.189975e+02	-2.288392e-03
1.196848e+02	-2.314896e-03
1.203761e+02	-2.341708e-03
1.210714e+02	-2.368830e-03
1.217707e+02	-2.396265e-03
1.224740e+02	-2.424019e-03
1.231814e+02	-2.452094e-03
1.238929e+02	-2.480494e-03
1.246085e+02	-2.509223e-03
1.253283e+02	-2.538284e-03
1.260522e+02	-2.567682e-03
1.267802e+02	-2.597421e-03
1.275125e+02	-2.627504e-03
1.282490e+02	-2.657935e-03
1.289898e+02	-2.688718e-03
1.297348e+02	-2.719858e-03
1.304842e+02	-2.751358e-03
1.312378e+02	-2.783223e-03
1.319959e+02	-2.815457e-03
1.327583e+02	-2.848064e-03
1.335251e+02	-2.881048e-03
1.342963e+02	-2.914415e-03
1.350720e+02	-2.948168e-03
1.358522e+02	-2.982311e-03
1.366368e+02	-3.016850e-03
1.374260e+02	-3.051789e-03
1.382198e+02	-3.087132e-03
1.390182e+02	-3.122884e-03
1.398211e+02	-3.159051e-03
1.406287e+02	-3.195636e-03
1.414410e+02	-3.232644e-03
1.422579e+02	-3.270081e-03
1.430796e+02	-3.307951e-03
1.439060e+02	-3.346260e-03
1.447372e+02	-3.385012e-03
1.455732e+02	-3.424213e-03
1.464141e+02	-3.463867e-03
1.472597e+02	-3.503981e-03
1.481103e+02	-3.544559e-03
1.489658e+02	-3.585607e-03
1.498262e+02	-3.627129e-03
1.506916e+02	-3.669133e-03
1.515620e+02	-3.711623e-03
1.524374e+02	-3.754604e-03
1.533179e+02	-3.798083e-03
1.542034e+02	-3.842065e-03
1.550941e+02	-3.886557e-03
1.559899e+02	-3.931563e-03
1.568909e+02	-3.977090e-03
1.577971e+02	-4.023145e-03
1.587085e+02	-4.069732e-03
1.596252e+02	-4.116858e-03
1.605472e+02	-4.164530e-03
1.614745e+02	-4.212754e-03
1.624072e+02	-4.261536e-03
1.633453e+02	-4.310882e-03
1.642887e+02	-4.360800e-03
1.652377e+02	-4.411295e-03
1.661921e+02	-4.462375e-03
1.671520e+02	-4.514046e-03
1.681175e+02	-4.566315e-03
1.690885e+02	-4.619188e-03
1.700651e+02	-4.672674e-03
1.710474e+02	-4.726779e-03
1.720354e+02	-4.781509e-03
1.730291e+02	-4.836874e-03
1.740285e+02	-4.892878e-03
1.750337e+02	-4.949531e-03
1.760446e+02	-5.006840e-03
1.770615e+02	-5.064811e-03
1.780842e+02	-5.123454e-03
1.791128e+02	-5.182775e-03
1.801473e+02	-5.242782e-03
1.811878e+02	-5.303484e-03
1.822344e+02	-5.364888e-03
1.832870e+02	-5.427003e-03
1.843456e+02	-5.489836e-03
1.854104e+02	-5.553397e-03
1.864813e+02	-5.617693e-03
1.875584e+02	-5.682732e-03
1.886418e+02	-5.748525e-03
1.897313e+02	-5.815078e-03
1.908272e+02	-5.882401e-03
1.919294e+02	-5.950504e-03
1.930380e+02	-6.019394e-03
1.941530e+02	-6.089081e-03
1.952744e+02	-6.159575e-03
1.964023e+02	-6.230883e-03
1.975367e+02	-6.303017e-03
1.986777e+02	-6.375986e-03
1.998252e+02	-6.449798e-03
2.009794e+02	-6.524464e-03
2.021403e+02	-6.599994e-03
2.033078e+02	-6.676398e-03
2.044821e+02	-6.753686e-03
2.056632e+02	-6.831867e-03
2.068511e+02	-6.910953e-03
2.080459e+02	-6.990953e-03
2.092475e+02	-7.071879e-03
2.104561e+02	-7.153741e-03
2.116717e+02	-7.236550e-03
2.128943e+02	-7.320316e-03
2.141240e+02	-7.405051e-03
2.153608e+02	-7.490767e-03
2.166047e+02	-7.577473e-03
2.178558e+02	-7.665182e-03
2.191141e+02	-7.753906e-03
2.203797e+02	-7.843656e-03
2.216526e+02	-7.934443e-03
2.229329e+02	-8.026280e-03
2.242205e+02	-8.119180e-03
2.255156e+02	-8.213153e-03
2.268182e+02	-8.308213e-03
2.281283e+02	-8.404373e-03
2.294459e+02	-8.501644e-03
2.307712e+02	-8.600040e-03
2.321041e+02	-8.699573e-03
2.334447e+02	-8.800258e-03
2.347931e+02	-8.902106e-03
2.361493e+02	-9.005132e-03
2.375133e+02	-9.109349e-03
2.388851e+02	-9.214771e-03
2.402649e+02	-9.321411e-03
2.416527e+02	-9.429285e-03
2.430484e+02	-9.538405e-03
2.444523e+02	-9.648787e-03
2.458642e+02	-9.760444e-03
2.472843e+02	-9.873393e-03
2.487126e+02	-9.987647e-03
2.501492e+02	-1.010322e-02
2.515940e+02	-1.022013e-02
2.530472e+02	-1.033839e-02
2.545088e+02	-1.045802e-02
2.559789e+02	-1.057903e-02
2.574574e+02	-1.070144e-02
2.589444e+02	-1.082526e-02
2.604401e+02	-1.095052e-02
2.619444e+02	-1.107722e-02
2.634574e+02	-1.120539e-02
2.649791e+02	-1.133504e-02
2.665096e+02	-1.146618e-02
2.680489e+02	-1.159884e-02
2.695972e+02	-1.173303e-02
2.711544e+02	-1.186878e-02
2.727205e+02	-1.200609e-02
2.742958e+02	-1.214499e-02
2.758801e+02	-1.228549e-02
2.774736e+02	-1.242762e-02
2.790762e+02	-1.257139e-02
2.806882e+02	-1.271682e-02
2.823094e+02	-1.286392e-02
2.839400e+02	-1.301273e-02
2.855800e+02	-1.316326e-02
2.872295e+02	-1.331552e-02
2.888886e+02	-1.346955e-02
2.905572e+02	-1.362535e-02
2.922354e+02	-1.378295e-02
2.939234e+02	-1.394237e-02
2.956211e+02	-1.410364e-02
2.973286e+02	-1.426676e-02
2.990459e+02	-1.443177e-02
3.007732e+02	-1.459868e-02
3.025104e+02	-1.476752e-02
3.042577e+02	-1.493831e-02
3.060151e+02	-1.511108e-02
3.077826e+02	-1.528583e-02
3.095604e+02	-1.546261e-02
3.113484e+02	-1.564142e-02
3.131467e+02	-1.582230e-02
3.149554e+02	-1.600527e-02
3.167746e+02	-1.619034e-02
3.186043e+02	-1.637756e-02
3.204445e+02	-1.656693e-02
3.222954e+02	-1.675849e-02
3.241570e+02	-1.695226e-02
3.260293e+02	-1.714827e-02
3.279124e+02	-1.734654e-02
3.298064e+02	-1.754710e-02
3.317114e+02	-1.774997e-02
3.336273e+02	-1.795518e-02
3.355544e+02	-1.816276e-02
3.374925e+02	-1.837273e-02
3.394418e+02	-1.858513e-02
3.414024e+02	-1.879997e-02
3.433744e+02	-1.901730e-02
3.453577e+02	-1.923713e-02
3.473525e+02	-1.945949e-02
3.493588e+02	-1.968442e-02
3.513766e+02	-1.991195e-02
3.534062e+02	-2.014210e-02
3.554474e+02	-2.037490e-02
3.575005e+02	-2.061039e-02
3.595654e+02	-2.084859e-02
3.616422e+02	-2.108954e-02
3.637311e+02	-2.133326e-02
3.658320e+02	-2.157980e-02
3.679450e+02	-2.182917e-02
3.700702e+02	-2.208142e-02
3.722077e+02	-2.233658e-02
3.743576e+02	-2.259468e-02
3.765199e+02	-2.285576e-02
3.786946e+02	-2.311984e-02
3.808820e+02	-2.338696e-02
3.830819e+02	-2.365717e-02
3.852946e+02	-2.393048e-02
3.875200e+02	-2.420695e-02
3.897583e+02	-2.448660e-02
3.920096e+02	-2.476947e-02
3.942738e+02	-2.505560e-02
3.965511e+02	-2.534503e-02
3.988416e+02	-2.563779e-02
4.011452e+02	-2.593392e-02
4.034622e+02	-2.623346e-02
4.057926e+02	-2.653645e-02
4.081365e+02	-2.684293e-02
4.104938e+02	-2.715293e-02
4.128648e+02	-2.746651e-02
4.152495e+02	-2.778370e-02
4.176480e+02	-2.810453e-02
4.200603e+02	-2.842906e-02
4.224866e+02	-2.875733e-02
4.249268e+02	-2.908937e-02
4.273812e+02	-2.942523e-02
4.298497e+02	-2.976496e-02
4.323325e+02	-3.010859e-02
4.348297e+02	-3.045618e-02
4.373412e+02	-3.080777e-02
4.398673e+02	-3.116340e-02
4.424079e+02	-3.152312e-02
4.449633e+02	-3.188698e-02
4.475334e+02	-3.225502e-02
4.501183e+02	-3.262730e-02
4.527182e+02	-3.300385e-02
4.553330e+02	-3.338474e-02
4.579630e+02	-3.377000e-02
4.606082e+02	-3.415969e-02
4.632687e+02	-3.455386e-02
4.659445e+02	-3.495256e-02
4.686358e+02	-3.535584e-02
4.713426e+02	-3.576376e-02
4.740650e+02	-3.617636e-02
4.768032e+02	-3.659370e-02
4.795572e+02	-3.701584e-02
4.823271e+02	-3.744282e-02
4.851130e+02	-3.787471e-02
4.879150e+02	-3.831156e-02
4.907332e+02	-3.875342e-02
4.935676e+02	-3.920036e-02
4.964185e+02	-3.965243e-02
4.992858e+02	-4.010969e-02
5.021696e+02	-4.057219e-02
5.050701e+02	-4.104000e-02
5.079874e+02	-4.151318e-02
5.109215e+02	-4.199179e-02
5.138726e+02	-4.247590e-02
5.168407e+02	-4.296555e-02
5.198259e+02	-4.346082e-02
5.228284e+02	-4.396177e-02
5.258482e+02	-4.446847e-02
5.288855e+02	-4.498097e-02
5.319403e+02	-4.549935e-02
5.350128e+02	-4.602368e-02
5.381030e+02	-4.655401e-02
5.412111e+02	-4.709042e-02
5.443371e+02	-4.763298e-02
5.474812e+02	-4.818175e-02
5.506434e+02	-4.873681e-02
5.538239e+02	-4.929823e-02
5.570228e+02	-4.986607e-02
5.602401e+02	-5.044042e-02
5.634760e+02	-5.102135e-02
5.667306e+02	-5.160893e-02
5.700040e+02	-5.220323e-02
5.732964e+02	-5.280434e-02
5.766077e+02	-5.341232e-02
5.799382e+02	-5.402726e-02
5.832879e+02	-5.464924e-02
5.866569e+02	-5.527833e-02
5.900454e+02	-5.591461e-02
5.934535e+02	-5.655818e-02
5.968813e+02	-5.720910e-02
6.003288e+02	-5.786746e-02
6.037963e+02	-5.853334e-02
6.072838e+02	-5.920684e-02
6.107914e+02	-5.988803e-02
6.143194e+02	-6.057700e-02
6.178676e+02	-6.127385e-02
6.214364e+02	-6.197865e-02
6.250258e+02	-6.269150e-02
6.286359e+02	-6.341249e-02
6.322669e+02	-6.414171e-02
6.359189e+02	-6.487926e-02
6.395919e+02	-6.562522e-02
6.432862e+02	-6.637969e-02
6.470017e+02	-6.714277e-02
6.507388e+02	-6.791455e-02
6.544974e+02	-6.869513e-02
6.582778e+02	-6.948461e-02
6.620800e+02	-7.028309e-02
6.659041e+02	-7.109067e-02
6.697504e+02	-7.190746e-02
6.736188e+02	-7.273355e-02
6.775096e+02	-7.356904e-02
6.814229e+02	-7.441406e-02
6.853587e+02	-7.526869e-02
6.893173e+02	-7.613306e-02
6.932988e+02	-7.700726e-02
6.973033e+02	-7.789141e-02
7.013309e+02	-7.878562e-02
