Frequency(Hz)	Magnitude(dB)
1.000000e+01	-2.004760e+00
1.005776e+01	-2.023347e+00
1.011585e+01	-2.041997e+00
1.017428e+01	-2.060566e+00
1.023305e+01	-2.079785e+00
1.029215e+01	-2.098790e+00
1.035160e+01	-2.118227e+00
1.041139e+01	-2.137723e+00
1.047153e+01	-2.156942e+00
1.053201e+01	-2.176626e+00
1.059284e+01	-2.196288e+00
1.065403e+01	-2.216203e+00
1.071556e+01	-2.236636e+00
1.077746e+01	-2.256755e+00
1.083971e+01	-2.277100e+00
1.090232e+01	-2.297621e+00
1.096529e+01	-2.318006e+00
1.102862e+01	-2.338959e+00
1.109232e+01	-2.359832e+00
1.115639e+01	-2.380830e+00
1.122083e+01	-2.402007e+00
1.128564e+01	-2.423364e+00
1.135083e+01	-2.444837e+00
1.141639e+01	-2.466388e+00
1.148233e+01	-2.488109e+00
1.154865e+01	-2.510075e+00
1.161536e+01	-2.531896e+00
1.168245e+01	-2.554147e+00
1.174992e+01	-2.576325e+00
1.181779e+01	-2.598861e+00
1.188605e+01	-2.621626e+00
1.195470e+01	-2.644416e+00
1.202375e+01	-2.667204e+00
1.209320e+01	-2.690094e+00
1.216305e+01	-2.713439e+00
1.223330e+01	-2.736693e+00
1.230396e+01	-2.760429e+00
1.237503e+01	-2.783704e+00
1.244651e+01	-2.807279e+00
1.251840e+01	-2.831696e+00
1.259070e+01	-2.855256e+00
1.266343e+01	-2.879404e+00
1.273657e+01	-2.903791e+00
1.281014e+01	-2.928585e+00
1.288413e+01	-2.953098e+00
1.295855e+01	-2.977738e+00
1.303339e+01	-3.002565e+00
1.310867e+01	-3.027807e+00
1.318439e+01	-3.052651e+00
1.326054e+01	-3.078165e+00
1.333713e+01	-3.103615e+00
1.341417e+01	-3.129280e+00
1.349165e+01	-3.155112e+00
1.356958e+01	-3.181093e+00
1.364795e+01	-3.206874e+00
1.372678e+01	-3.233097e+00
1.380607e+01	-3.259347e+00
1.388581e+01	-3.285904e+00
1.396602e+01	-3.312656e+00
1.404668e+01	-3.339339e+00
1.412782e+01	-3.366260e+00
1.420942e+01	-3.393154e+00
1.429149e+01	-3.420595e+00
1.437404e+01	-3.447847e+00
1.445706e+01	-3.475451e+00
1.454057e+01	-3.502998e+00
1.462455e+01	-3.530658e+00
1.470902e+01	-3.558641e+00
1.479398e+01	-3.586851e+00
1.487943e+01	-3.614892e+00
1.496537e+01	-3.643207e+00
1.505181e+01	-3.671983e+00
1.513875e+01	-3.700257e+00
1.522619e+01	-3.729003e+00
1.531414e+01	-3.757940e+00
1.540259e+01	-3.786985e+00
1.549156e+01	-3.816222e+00
1.558103e+01	-3.845595e+00
1.567103e+01	-3.875069e+00
1.576155e+01	-3.904731e+00
1.585258e+01	-3.934435e+00
1.594415e+01	-3.964168e+00
1.603624e+01	-3.994171e+00
1.612886e+01	-4.024421e+00
1.622202e+01	-4.054741e+00
1.631572e+01	-4.085079e+00
1.640996e+01	-4.115533e+00
1.650474e+01	-4.146418e+00
1.660008e+01	-4.176919e+00
1.669596e+01	-4.208073e+00
1.679239e+01	-4.239386e+00
1.688938e+01	-4.270520e+00
1.698694e+01	-4.301749e+00
1.708505e+01	-4.333371e+00
1.718373e+01	-4.365144e+00
1.728299e+01	-4.396839e+00
1.738281e+01	-4.428691e+00
1.748322e+01	-4.460598e+00
1.758420e+01	-4.492771e+00
1.768576e+01	-4.525368e+00
1.778792e+01	-4.557765e+00
1.789066e+01	-4.590209e+00
1.799399e+01	-4.623002e+00
1.809793e+01	-4.655905e+00
1.820246e+01	-4.688706e+00
1.830760e+01	-4.722021e+00
1.841334e+01	-4.755109e+00
1.851969e+01	-4.788775e+00
1.862666e+01	-4.822048e+00
1.873425e+01	-4.855620e+00
1.884246e+01	-4.889238e+00
1.895129e+01	-4.923222e+00
1.906075e+01	-4.956960e+00
1.917085e+01	-4.991090e+00
1.928158e+01	-5.025382e+00
1.939295e+01	-5.059877e+00
1.950496e+01	-5.094441e+00
1.961762e+01	-5.129048e+00
1.973093e+01	-5.163821e+00
1.984490e+01	-5.198492e+00
1.995952e+01	-5.233552e+00
2.007480e+01	-5.268830e+00
2.019076e+01	-5.304040e+00
2.030738e+01	-5.339187e+00
2.042467e+01	-5.374471e+00
2.054264e+01	-5.410066e+00
2.066130e+01	-5.446213e+00
2.078064e+01	-5.481497e+00
2.090066e+01	-5.517651e+00
2.102139e+01	-5.553631e+00
2.114280e+01	-5.589881e+00
2.126492e+01	-5.626186e+00
2.138775e+01	-5.662649e+00
2.151128e+01	-5.698978e+00
2.163553e+01	-5.735613e+00
2.176050e+01	-5.772203e+00
2.188619e+01	-5.809153e+00
2.201260e+01	-5.846085e+00
2.213974e+01	-5.883045e+00
2.226762e+01	-5.920532e+00
2.239624e+01	-5.957606e+00
2.252560e+01	-5.994868e+00
2.265571e+01	-6.032800e+00
2.278656e+01	-6.070001e+00
2.291818e+01	-6.107930e+00
2.305055e+01	-6.145731e+00
2.318369e+01	-6.183937e+00
2.331760e+01	-6.221661e+00
2.345228e+01	-6.259772e+00
2.358774e+01	-6.298351e+00
2.372398e+01	-6.336467e+00
2.386101e+01	-6.374766e+00
2.399883e+01	-6.413242e+00
2.413745e+01	-6.451986e+00
2.427686e+01	-6.491008e+00
2.441709e+01	-6.529456e+00
2.455812e+01	-6.568384e+00
2.469997e+01	-6.607439e+00
2.484263e+01	-6.646745e+00
2.498612e+01	-6.685895e+00
2.513044e+01	-6.725591e+00
2.527559e+01	-6.764709e+00
2.542158e+01	-6.804413e+00
2.556842e+01	-6.844353e+00
2.571610e+01	-6.883652e+00
2.586463e+01	-6.923847e+00
2.601403e+01	-6.963075e+00
2.616428e+01	-7.003421e+00
2.631541e+01	-7.043802e+00
2.646740e+01	-7.083835e+00
2.662028e+01	-7.123509e+00
2.677404e+01	-7.164688e+00
2.692868e+01	-7.204916e+00
2.708422e+01	-7.245297e+00
2.724066e+01	-7.285771e+00
2.739800e+01	-7.327133e+00
2.755625e+01	-7.367620e+00
2.771541e+01	-7.408196e+00
2.787550e+01	-7.449247e+00
2.803650e+01	-7.490320e+00
2.819844e+01	-7.531682e+00
2.836131e+01	-7.572638e+00
2.852513e+01	-7.614197e+00
2.868989e+01	-7.656040e+00
2.885560e+01	-7.697057e+00
2.902227e+01	-7.738443e+00
2.918990e+01	-7.780269e+00
2.935850e+01	-7.821713e+00
2.952807e+01	-7.863731e+00
2.969863e+01	-7.905684e+00
2.987016e+01	-7.947551e+00
3.004269e+01	-7.990248e+00
3.021622e+01	-8.031961e+00
3.039075e+01	-8.073827e+00
3.056628e+01	-8.116263e+00
3.074283e+01	-8.158650e+00
3.092040e+01	-8.201030e+00
3.109900e+01	-8.243820e+00
3.127862e+01	-8.286225e+00
3.145929e+01	-8.328608e+00
3.164099e+01	-8.371231e+00
3.182375e+01	-8.414541e+00
3.200756e+01	-8.457575e+00
3.219244e+01	-8.500172e+00
3.237838e+01	-8.542854e+00
3.256540e+01	-8.585899e+00
3.275349e+01	-8.629217e+00
3.294268e+01	-8.672655e+00
3.313295e+01	-8.715651e+00
3.332433e+01	-8.758522e+00
3.351681e+01	-8.802049e+00
3.371040e+01	-8.845845e+00
3.390511e+01	-8.889342e+00
3.410094e+01	-8.932821e+00
3.429791e+01	-8.976532e+00
3.449601e+01	-9.020153e+00
3.469526e+01	-9.063970e+00
3.489566e+01	-9.108198e+00
3.509721e+01	-9.152165e+00
3.529993e+01	-9.196185e+00
3.550382e+01	-9.239907e+00
3.570889e+01	-9.284145e+00
3.591515e+01	-9.327870e+00
3.612259e+01	-9.372788e+00
3.633123e+01	-9.416762e+00
3.654108e+01	-9.461265e+00
3.675214e+01	-9.505549e+00
3.696442e+01	-9.550185e+00
3.717792e+01	-9.594339e+00
3.739266e+01	-9.638220e+00
3.760864e+01	-9.683312e+00
3.782587e+01	-9.727848e+00
3.804435e+01	-9.773283e+00
3.826409e+01	-9.817634e+00
3.848510e+01	-9.862580e+00
3.870739e+01	-9.907156e+00
3.893096e+01	-9.952228e+00
3.915583e+01	-9.997588e+00
3.938199e+01	-1.004265e+01
3.960946e+01	-1.008790e+01
3.983824e+01	-1.013209e+01
4.006834e+01	-1.017822e+01
4.029978e+01	-1.022343e+01
4.053255e+01	-1.026833e+01
4.076666e+01	-1.031396e+01
4.100213e+01	-1.035943e+01
4.123896e+01	-1.040433e+01
4.147715e+01	-1.045020e+01
4.171672e+01	-1.049585e+01
4.195767e+01	-1.054139e+01
4.220002e+01	-1.058742e+01
4.244377e+01	-1.063280e+01
4.268892e+01	-1.067817e+01
4.293549e+01	-1.072386e+01
4.318348e+01	-1.076994e+01
4.343291e+01	-1.081637e+01
4.368377e+01	-1.086188e+01
4.393609e+01	-1.090732e+01
4.418986e+01	-1.095333e+01
4.444510e+01	-1.099942e+01
4.470182e+01	-1.104592e+01
4.496001e+01	-1.109184e+01
4.521970e+01	-1.113818e+01
4.548089e+01	-1.118435e+01
4.574358e+01	-1.123036e+01
4.600779e+01	-1.127629e+01
4.627353e+01	-1.132278e+01
4.654081e+01	-1.136967e+01
4.680963e+01	-1.141538e+01
4.708000e+01	-1.146205e+01
4.735193e+01	-1.150862e+01
4.762543e+01	-1.155528e+01
4.790051e+01	-1.160145e+01
4.817719e+01	-1.164784e+01
4.845545e+01	-1.169508e+01
4.873533e+01	-1.174210e+01
4.901682e+01	-1.178781e+01
4.929994e+01	-1.183521e+01
4.958470e+01	-1.188186e+01
4.987110e+01	-1.192866e+01
5.015915e+01	-1.197543e+01
5.044887e+01	-1.202211e+01
5.074026e+01	-1.206886e+01
5.103333e+01	-1.211594e+01
5.132810e+01	-1.216266e+01
5.162457e+01	-1.220992e+01
5.192275e+01	-1.225709e+01
5.222265e+01	-1.230450e+01
5.252429e+01	-1.235181e+01
5.282767e+01	-1.239875e+01
5.313280e+01	-1.244622e+01
5.343969e+01	-1.249292e+01
5.374836e+01	-1.253972e+01
5.405880e+01	-1.258710e+01
5.437105e+01	-1.263419e+01
5.468509e+01	-1.268222e+01
5.500095e+01	-1.272918e+01
5.531863e+01	-1.277641e+01
5.563815e+01	-1.282449e+01
5.595951e+01	-1.287199e+01
5.628273e+01	-1.291852e+01
5.660782e+01	-1.296651e+01
5.693479e+01	-1.301366e+01
5.726364e+01	-1.306101e+01
5.759439e+01	-1.310927e+01
5.792705e+01	-1.315659e+01
5.826164e+01	-1.320449e+01
5.859815e+01	-1.325194e+01
5.893662e+01	-1.329915e+01
5.927703e+01	-1.334753e+01
5.961941e+01	-1.339510e+01
5.996377e+01	-1.344251e+01
6.031012e+01	-1.349022e+01
6.065847e+01	-1.353795e+01
6.100883e+01	-1.358590e+01
6.136121e+01	-1.363388e+01
6.171563e+01	-1.368105e+01
6.207210e+01	-1.372997e+01
6.243063e+01	-1.377757e+01
6.279122e+01	-1.382565e+01
6.315390e+01	-1.387331e+01
6.351868e+01	-1.392154e+01
6.388556e+01	-1.397005e+01
6.425456e+01	-1.401765e+01
6.462569e+01	-1.406574e+01
6.499897e+01	-1.411429e+01
6.537440e+01	-1.416255e+01
6.575200e+01	-1.420956e+01
6.613178e+01	-1.425777e+01
6.651375e+01	-1.430599e+01
6.689793e+01	-1.435443e+01
6.728433e+01	-1.440255e+01
6.767297e+01	-1.445032e+01
6.806384e+01	-1.449912e+01
6.845698e+01	-1.454793e+01
6.885238e+01	-1.459586e+01
6.925007e+01	-1.464407e+01
6.965005e+01	-1.469243e+01
7.005235e+01	-1.474056e+01
7.045697e+01	-1.478880e+01
7.086393e+01	-1.483671e+01
7.127323e+01	-1.488547e+01
7.168490e+01	-1.493423e+01
7.209895e+01	-1.498296e+01
7.251539e+01	-1.503157e+01
7.293424e+01	-1.507997e+01
7.335551e+01	-1.512773e+01
7.377920e+01	-1.517666e+01
7.420535e+01	-1.522580e+01
7.463396e+01	-1.527248e+01
7.506504e+01	-1.532214e+01
7.549861e+01	-1.537061e+01
7.593469e+01	-1.541998e+01
7.637328e+01	-1.546825e+01
7.681441e+01	-1.551656e+01
7.725809e+01	-1.556387e+01
7.770433e+01	-1.561314e+01
7.815315e+01	-1.566205e+01
7.860456e+01	-1.571159e+01
7.905857e+01	-1.575962e+01
7.951521e+01	-1.580880e+01
7.997449e+01	-1.585766e+01
8.043642e+01	-1.590526e+01
8.090102e+01	-1.595452e+01
8.136830e+01	-1.600340e+01
8.183828e+01	-1.605234e+01
8.231097e+01	-1.610112e+01
8.278640e+01	-1.614897e+01
8.326457e+01	-1.619924e+01
8.374550e+01	-1.624769e+01
8.422921e+01	-1.629731e+01
8.471572e+01	-1.634562e+01
8.520503e+01	-1.639482e+01
8.569717e+01	-1.644288e+01
8.619215e+01	-1.649186e+01
8.669000e+01	-1.654098e+01
8.719071e+01	-1.658921e+01
8.769432e+01	-1.663803e+01
8.820084e+01	-1.668726e+01
8.871029e+01	-1.673715e+01
8.922267e+01	-1.678557e+01
8.973802e+01	-1.683476e+01
9.025634e+01	-1.688469e+01
9.077766e+01	-1.693158e+01
9.130199e+01	-1.698125e+01
9.182935e+01	-1.703020e+01
9.235975e+01	-1.707900e+01
9.289321e+01	-1.712840e+01
9.342976e+01	-1.717800e+01
9.396941e+01	-1.722726e+01
9.451217e+01	-1.727489e+01
9.505807e+01	-1.732519e+01
9.560712e+01	-1.737422e+01
9.615934e+01	-1.742337e+01
9.671476e+01	-1.747413e+01
9.727338e+01	-1.752114e+01
9.783522e+01	-1.757056e+01
9.840032e+01	-1.762006e+01
9.896867e+01	-1.766904e+01
9.954031e+01	-1.771854e+01
1.001153e+02	-1.776736e+01
1.006935e+02	-1.781729e+01
1.012751e+02	-1.786579e+01
1.018601e+02	-1.791405e+01
1.024484e+02	-1.796441e+01
1.030402e+02	-1.801460e+01
1.036353e+02	-1.806384e+01
1.042339e+02	-1.811315e+01
1.048360e+02	-1.816113e+01
1.054415e+02	-1.821167e+01
1.060505e+02	-1.826093e+01
1.066631e+02	-1.830915e+01
1.072791e+02	-1.835781e+01
1.078988e+02	-1.840837e+01
1.085220e+02	-1.845721e+01
1.091488e+02	-1.850569e+01
1.097793e+02	-1.855580e+01
1.104133e+02	-1.860347e+01
1.110511e+02	-1.865467e+01
1.116925e+02	-1.870381e+01
1.123376e+02	-1.875387e+01
1.129865e+02	-1.880192e+01
1.136391e+02	-1.885109e+01
1.142955e+02	-1.890102e+01
1.149556e+02	-1.895098e+01
1.156196e+02	-1.899906e+01
1.162874e+02	-1.904916e+01
1.169591e+02	-1.909896e+01
1.176347e+02	-1.914915e+01
1.183141e+02	-1.919694e+01
1.189975e+02	-1.924732e+01
1.196848e+02	-1.929685e+01
1.203761e+02	-1.934522e+01
1.210714e+02	-1.939539e+01
1.217707e+02	-1.944425e+01
1.224740e+02	-1.949558e+01
1.231814e+02	-1.954347e+01
1.238929e+02	-1.959466e+01
1.246085e+02	-1.964315e+01
1.253283e+02	-1.969247e+01
1.260522e+02	-1.974046e+01
1.267802e+02	-1.979152e+01
1.275125e+02	-1.984061e+01
1.282490e+02	-1.989082e+01
1.289898e+02	-1.994013e+01
1.297348e+02	-1.998903e+01
1.304842e+02	-2.003974e+01
1.312378e+02	-2.008784e+01
1.319959e+02	-2.013816e+01
1.327583e+02	-2.018738e+01
1.335251e+02	-2.023735e+01
1.342963e+02	-2.028719e+01
1.350720e+02	-2.033663e+01
1.358522e+02	-2.038608e+01
1.366368e+02	-2.043665e+01
1.374260e+02	-2.048445e+01
1.382198e+02	-2.053399e+01
1.390182e+02	-2.058239e+01
1.398211e+02	-2.063450e+01
1.406287e+02	-2.068301e+01
1.414410e+02	-2.073277e+01
1.422579e+02	-2.078175e+01
1.430796e+02	-2.083138e+01
1.439060e+02	-2.088315e+01
1.447372e+02	-2.093180e+01
1.455732e+02	-2.098139e+01
1.464141e+02	-2.103099e+01
1.472597e+02	-2.108150e+01
1.481103e+02	-2.113041e+01
1.489658e+02	-2.117784e+01
1.498262e+02	-2.122949e+01
1.506916e+02	-2.128083e+01
1.515620e+02	-2.132890e+01
1.524374e+02	-2.137974e+01
1.533179e+02	-2.142985e+01
1.542034e+02	-2.147748e+01
1.550941e+02	-2.152772e+01
1.559899e+02	-2.157690e+01
1.568909e+02	-2.162793e+01
1.577971e+02	-2.167575e+01
1.587085e+02	-2.172708e+01
1.596252e+02	-2.177515e+01
1.605472e+02	-2.182483e+01
1.614745e+02	-2.187556e+01
1.624072e+02	-2.192457e+01
1.633453e+02	-2.197649e+01
1.642887e+02	-2.202553e+01
1.652377e+02	-2.207492e+01
1.661921e+02	-2.212463e+01
1.671520e+02	-2.217336e+01
1.681175e+02	-2.222196e+01
1.690885e+02	-2.227396e+01
1.700651e+02	-2.232385e+01
1.710474e+02	-2.237263e+01
1.720354e+02	-2.242400e+01
1.730291e+02	-2.247001e+01
1.740285e+02	-2.252129e+01
1.750337e+02	-2.257361e+01
1.760446e+02	-2.262268e+01
1.770615e+02	-2.267213e+01
1.780842e+02	-2.272329e+01
1.791128e+02	-2.276909e+01
1.801473e+02	-2.282135e+01
1.811878e+02	-2.286874e+01
1.822344e+02	-2.292130e+01
1.832870e+02	-2.297080e+01
1.843456e+02	-2.301890e+01
1.854104e+02	-2.307024e+01
1.864813e+02	-2.312176e+01
1.875584e+02	-2.317160e+01
1.886418e+02	-2.322016e+01
1.897313e+02	-2.326953e+01
1.908272e+02	-2.331965e+01
1.919294e+02	-2.337103e+01
1.930380e+02	-2.341701e+01
1.941530e+02	-2.346667e+01
1.952744e+02	-2.351887e+01
1.964023e+02	-2.356867e+01
1.975367e+02	-2.361872e+01
1.986777e+02	-2.366734e+01
1.998252e+02	-2.371801e+01
2.009794e+02	-2.376756e+01
2.021403e+02	-2.381649e+01
2.033078e+02	-2.386353e+01
2.044821e+02	-2.391880e+01
2.056632e+02	-2.396655e+01
2.068511e+02	-2.401563e+01
2.080459e+02	-2.406773e+01
2.092475e+02	-2.411640e+01
2.104561e+02	-2.416693e+01
2.116717e+02	-2.421648e+01
2.128943e+02	-2.426550e+01
2.141240e+02	-2.431551e+01
2.153608e+02	-2.436608e+01
2.166047e+02	-2.441728e+01
2.178558e+02	-2.446351e+01
2.191141e+02	-2.451537e+01
2.203797e+02	-2.456165e+01
2.216526e+02	-2.461545e+01
2.229329e+02	-2.466350e+01
2.242205e+02	-2.471155e+01
2.255156e+02	-2.476713e+01
2.268182e+02	-2.481331e+01
2.281283e+02	-2.486539e+01
2.294459e+02	-2.491846e+01
2.307712e+02	-2.496378e+01
2.321041e+02	-2.501658e+01
2.334447e+02	-2.506606e+01
2.347931e+02	-2.511442e+01
2.361493e+02	-2.516555e+01
2.375133e+02	-2.521276e+01
2.388851e+02	-2.526408e+01
2.402649e+02	-2.531736e+01
2.416527e+02	-2.536596e+01
2.430484e+02	-2.541312e+01
2.444523e+02	-2.546360e+01
2.458642e+02	-2.551485e+01
2.472843e+02	-2.556240e+01
2.487126e+02	-2.561384e+01
2.501492e+02	-2.566242e+01
2.515940e+02	-2.571087e+01
2.530472e+02	-2.576542e+01
2.545088e+02	-2.581485e+01
2.559789e+02	-2.586422e+01
2.574574e+02	-2.591020e+01
2.589444e+02	-2.596223e+01
2.604401e+02	-2.601236e+01
2.619444e+02	-2.606390e+01
2.634574e+02	-2.611243e+01
2.649791e+02	-2.616379e+01
2.665096e+02	-2.621050e+01
2.680489e+02	-2.626205e+01
2.695972e+02	-2.631359e+01
2.711544e+02	-2.636412e+01
2.727205e+02	-2.641208e+01
2.742958e+02	-2.646519e+01
2.758801e+02	-2.651292e+01
2.774736e+02	-2.656317e+01
2.790762e+02	-2.661424e+01
2.806882e+02	-2.666383e+01
2.823094e+02	-2.671439e+01
2.839400e+02	-2.676256e+01
2.855800e+02	-2.680867e+01
2.872295e+02	-2.686070e+01
2.888886e+02	-2.691345e+01
2.905572e+02	-2.696624e+01
2.922354e+02	-2.701257e+01
2.939234e+02	-2.706102e+01
2.956211e+02	-2.711231e+01
2.973286e+02	-2.716096e+01
2.990459e+02	-2.720921e+01
3.007732e+02	-2.726162e+01
3.025104e+02	-2.731132e+01
3.042577e+02	-2.736131e+01
3.060151e+02	-2.741123e+01
3.077826e+02	-2.746482e+01
3.095604e+02	-2.751572e+01
3.113484e+02	-2.756660e+01
3.131467e+02	-2.761160e+01
3.149554e+02	-2.766106e+01
3.167746e+02	-2.771299e+01
3.186043e+02	-2.776419e+01
3.204445e+02	-2.781376e+01
3.222954e+02	-2.786253e+01
3.241570e+02	-2.791118e+01
3.260293e+02	-2.796449e+01
3.279124e+02	-2.801387e+01
3.298064e+02	-2.806234e+01
3.317114e+02	-2.811361e+01
3.336273e+02	-2.816019e+01
3.355544e+02	-2.821483e+01
3.374925e+02	-2.826265e+01
3.394418e+02	-2.831322e+01
3.414024e+02	-2.836359e+01
3.433744e+02	-2.841079e+01
3.453577e+02	-2.845921e+01
3.473525e+02	-2.851544e+01
3.493588e+02	-2.856182e+01
3.513766e+02	-2.861607e+01
3.534062e+02	-2.866413e+01
3.554474e+02	-2.871556e+01
3.575005e+02	-2.876573e+01
3.595654e+02	-2.881095e+01
3.616422e+02	-2.887034e+01
3.637311e+02	-2.891617e+01
3.658320e+02	-2.896409e+01
3.679450e+02	-2.901371e+01
3.700702e+02	-2.906409e+01
3.722077e+02	-2.911410e+01
3.743576e+02	-2.916501e+01
3.765199e+02	-2.921794e+01
3.786946e+02	-2.926041e+01
3.808820e+02	-2.931306e+01
3.830819e+02	-2.936229e+01
3.852946e+02	-2.941478e+01
3.875200e+02	-2.946424e+01
3.897583e+02	-2.951711e+01
3.920096e+02	-2.956560e+01
3.942738e+02	-2.961551e+01
3.965511e+02	-2.967160e+01
3.988416e+02	-2.971467e+01
4.011452e+02	-2.976592e+01
4.034622e+02	-2.981086e+01
4.057926e+02	-2.986725e+01
4.081365e+02	-2.991753e+01
4.104938e+02	-2.996198e+01
4.128648e+02	-3.001809e+01
4.152495e+02	-3.006848e+01
4.176480e+02	-3.011551e+01
4.200603e+02	-3.016379e+01
4.224866e+02	-3.022001e+01
4.249268e+02	-3.025865e+01
4.273812e+02	-3.032100e+01
4.298497e+02	-3.036840e+01
4.323325e+02	-3.041588e+01
4.348297e+02	-3.046733e+01
4.373412e+02	-3.051521e+01
4.398673e+02	-3.056927e+01
4.424079e+02	-3.061654e+01
4.449633e+02	-3.066850e+01
4.475334e+02	-3.071510e+01
4.501183e+02	-3.077045e+01
4.527182e+02	-3.081581e+01
4.553330e+02	-3.086728e+01
4.579630e+02	-3.092145e+01
4.606082e+02	-3.096216e+01
4.632687e+02	-3.101361e+01
4.659445e+02	-3.106542e+01
4.686358e+02	-3.111982e+01
4.713426e+02	-3.116273e+01
4.740650e+02	-3.121653e+01
4.768032e+02	-3.127154e+01
4.795572e+02	-3.132376e+01
4.823271e+02	-3.137474e+01
4.851130e+02	-3.142036e+01
4.879150e+02	-3.147202e+01
4.907332e+02	-3.152006e+01
4.935676e+02	-3.156609e+01
4.964185e+02	-3.161762e+01
4.992858e+02	-3.167013e+01
5.021696e+02	-3.172562e+01
5.050701e+02	-3.177076e+01
5.079874e+02	-3.181834e+01
5.109215e+02	-3.186802e+01
5.138726e+02	-3.191928e+01
5.168407e+02	-3.197560e+01
5.198259e+02	-3.201747e+01
5.228284e+02	-3.206992e+01
5.258482e+02	-3.212402e+01
5.288855e+02	-3.217361e+01
5.319403e+02	-3.222412e+01
5.350128e+02	-3.227334e+01
5.381030e+02	-3.232446e+01
5.412111e+02	-3.238122e+01
5.443371e+02	-3.242077e+01
5.474812e+02	-3.247232e+01
5.506434e+02	-3.252565e+01
5.538239e+02	-3.257036e+01
5.570228e+02	-3.261714e+01
5.602401e+02	-3.267730e+01
5.634760e+02	-3.272864e+01
5.667306e+02	-3.277949e+01
5.700040e+02	-3.282577e+01
5.732964e+02	-3.286938e+01
5.766077e+02	-3.292144e+01
5.799382e+02	-3.297297e+01
5.832879e+02	-3.302178e+01
5.866569e+02	-3.308264e+01
5.900454e+02	-3.312796e+01
5.934535e+02	-3.317917e+01
5.968813e+02	-3.322740e+01
6.003288e+02	-3.327944e+01
6.037963e+02	-3.332958e+01
6.072838e+02	-3.338154e+01
6.107914e+02	-3.343185e+01
6.143194e+02	-3.347401e+01
6.178676e+02	-3.352963e+01
6.214364e+02	-3.358148e+01
6.250258e+02	-3.363207e+01
6.286359e+02	-3.367682e+01
6.322669e+02	-3.372755e+01
6.359189e+02	-3.378525e+01
6.395919e+02	-3.383316e+01
6.432862e+02	-3.388662e+01
6.470017e+02	-3.392816e+01
6.507388e+02	-3.398377e+01
6.544974e+02	-3.403511e+01
6.582778e+02	-3.408084e+01
6.620800e+02	-3.413183e+01
6.659041e+02	-3.418333e+01
6.697504e+02	-3.423192e+01
6.736188e+02	-3.428658e+01
6.775096e+02	-3.433755e+01
6.814229e+02	-3.438523e+01
6.853587e+02	-3.443533e+01
6.893173e+02	-3.448097e+01
6.932988e+02	-3.453324e+01
6.973033e+02	-3.458764e+01
7.013309e+02	-3.463579e+01
