Frequency(Hz)	Magnitude(dB)
1.000000e+01	-2.388801e+00
1.005776e+01	-2.409954e+00
1.011585e+01	-2.431523e+00
1.017428e+01	-2.452989e+00
1.023305e+01	-2.474662e+00
1.029215e+01	-2.496433e+00
1.035160e+01	-2.518362e+00
1.041139e+01	-2.540386e+00
1.047153e+01	-2.562576e+00
1.053201e+01	-2.585191e+00
1.059284e+01	-2.607634e+00
1.065403e+01	-2.630060e+00
1.071556e+01	-2.652911e+00
1.077746e+01	-2.675752e+00
1.083971e+01	-2.698825e+00
1.090232e+01	-2.722228e+00
1.096529e+01	-2.745695e+00
1.102862e+01	-2.768785e+00
1.109232e+01	-2.792780e+00
1.115639e+01	-2.816662e+00
1.122083e+01	-2.840272e+00
1.128564e+01	-2.864547e+00
1.135083e+01	-2.889008e+00
1.141639e+01	-2.913101e+00
1.148233e+01	-2.937737e+00
1.154865e+01	-2.962261e+00
1.161536e+01	-2.987153e+00
1.168245e+01	-3.012202e+00
1.174992e+01	-3.037205e+00
1.181779e+01	-3.062391e+00
1.188605e+01	-3.087694e+00
1.195470e+01	-3.113607e+00
1.202375e+01	-3.139141e+00
1.209320e+01	-3.164868e+00
1.216305e+01	-3.190698e+00
1.223330e+01	-3.216792e+00
1.230396e+01	-3.243152e+00
1.237503e+01	-3.269527e+00
1.244651e+01	-3.296382e+00
1.251840e+01	-3.322851e+00
1.259070e+01	-3.349468e+00
1.266343e+01	-3.376443e+00
1.273657e+01	-3.403735e+00
1.281014e+01	-3.431098e+00
1.288413e+01	-3.458548e+00
1.295855e+01	-3.485681e+00
1.303339e+01	-3.513420e+00
1.310867e+01	-3.541310e+00
1.318439e+01	-3.569081e+00
1.326054e+01	-3.597359e+00
1.333713e+01	-3.625629e+00
1.341417e+01	-3.653897e+00
1.349165e+01	-3.682446e+00
1.356958e+01	-3.711337e+00
1.364795e+01	-3.740145e+00
1.372678e+01	-3.768904e+00
1.380607e+01	-3.798039e+00
1.388581e+01	-3.827297e+00
1.396602e+01	-3.856678e+00
1.404668e+01	-3.886075e+00
1.412782e+01	-3.915744e+00
1.420942e+01	-3.945535e+00
1.429149e+01	-3.975554e+00
1.437404e+01	-4.005704e+00
1.445706e+01	-4.035829e+00
1.454057e+01	-4.066329e+00
1.462455e+01	-4.096607e+00
1.470902e+01	-4.127388e+00
1.479398e+01	-4.157928e+00
1.487943e+01	-4.188864e+00
1.496537e+01	-4.220184e+00
1.505181e+01	-4.251071e+00
1.513875e+01	-4.282231e+00
1.522619e+01	-4.313940e+00
1.531414e+01	-4.345484e+00
1.540259e+01	-4.377192e+00
1.549156e+01	-4.408948e+00
1.558103e+01	-4.440959e+00
1.567103e+01	-4.472976e+00
1.576155e+01	-4.505225e+00
1.585258e+01	-4.537643e+00
1.594415e+01	-4.570085e+00
1.603624e+01	-4.602466e+00
1.612886e+01	-4.635438e+00
1.622202e+01	-4.668148e+00
1.631572e+01	-4.701591e+00
1.640996e+01	-4.734430e+00
1.650474e+01	-4.767718e+00
1.660008e+01	-4.801150e+00
1.669596e+01	-4.834770e+00
1.679239e+01	-4.868305e+00
1.688938e+01	-4.902222e+00
1.698694e+01	-4.935900e+00
1.708505e+01	-4.970231e+00
1.718373e+01	-5.004047e+00
1.728299e+01	-5.038429e+00
1.738281e+01	-5.072660e+00
1.748322e+01	-5.107192e+00
1.758420e+01	-5.142259e+00
1.768576e+01	-5.176862e+00
1.778792e+01	-5.211870e+00
1.789066e+01	-5.246776e+00
1.799399e+01	-5.281715e+00
1.809793e+01	-5.317293e+00
1.820246e+01	-5.352353e+00
1.830760e+01	-5.388460e+00
1.841334e+01	-5.423484e+00
1.851969e+01	-5.459654e+00
1.862666e+01	-5.495103e+00
1.873425e+01	-5.531270e+00
1.884246e+01	-5.567536e+00
1.895129e+01	-5.603668e+00
1.906075e+01	-5.640217e+00
1.917085e+01	-5.676516e+00
1.928158e+01	-5.712953e+00
1.939295e+01	-5.749519e+00
1.950496e+01	-5.786066e+00
1.961762e+01	-5.823140e+00
1.973093e+01	-5.860006e+00
1.984490e+01	-5.896985e+00
1.995952e+01	-5.934335e+00
2.007480e+01	-5.971557e+00
2.019076e+01	-6.009319e+00
2.030738e+01	-6.047024e+00
2.042467e+01	-6.084383e+00
2.054264e+01	-6.122033e+00
2.066130e+01	-6.160182e+00
2.078064e+01	-6.197866e+00
2.090066e+01	-6.236329e+00
2.102139e+01	-6.274332e+00
2.114280e+01	-6.312437e+00
2.126492e+01	-6.351057e+00
2.138775e+01	-6.389238e+00
2.151128e+01	-6.427758e+00
2.163553e+01	-6.466733e+00
2.176050e+01	-6.505450e+00
2.188619e+01	-6.544297e+00
2.201260e+01	-6.583128e+00
2.213974e+01	-6.622206e+00
2.226762e+01	-6.661651e+00
2.239624e+01	-6.700887e+00
2.252560e+01	-6.740125e+00
2.265571e+01	-6.779839e+00
2.278656e+01	-6.819200e+00
2.291818e+01	-6.858762e+00
2.305055e+01	-6.898891e+00
2.318369e+01	-6.938740e+00
2.331760e+01	-6.978488e+00
2.345228e+01	-7.018563e+00
2.358774e+01	-7.059044e+00
2.372398e+01	-7.098837e+00
2.386101e+01	-7.139132e+00
2.399883e+01	-7.179677e+00
2.413745e+01	-7.220500e+00
2.427686e+01	-7.260368e+00
2.441709e+01	-7.301363e+00
2.455812e+01	-7.342058e+00
2.469997e+01	-7.382990e+00
2.484263e+01	-7.424227e+00
2.498612e+01	-7.465254e+00
2.513044e+01	-7.506347e+00
2.527559e+01	-7.547251e+00
2.542158e+01	-7.588499e+00
2.556842e+01	-7.629887e+00
2.571610e+01	-7.671224e+00
2.586463e+01	-7.712619e+00
2.601403e+01	-7.754394e+00
2.616428e+01	-7.796232e+00
2.631541e+01	-7.837673e+00
2.646740e+01	-7.879982e+00
2.662028e+01	-7.921751e+00
2.677404e+01	-7.963712e+00
2.692868e+01	-8.005597e+00
2.708422e+01	-8.048192e+00
2.724066e+01	-8.089834e+00
2.739800e+01	-8.132286e+00
2.755625e+01	-8.174823e+00
2.771541e+01	-8.217047e+00
2.787550e+01	-8.259286e+00
2.803650e+01	-8.302861e+00
2.819844e+01	-8.345215e+00
2.836131e+01	-8.387934e+00
2.852513e+01	-8.430317e+00
2.868989e+01	-8.473257e+00
2.885560e+01	-8.516264e+00
2.902227e+01	-8.559153e+00
2.918990e+01	-8.602530e+00
2.935850e+01	-8.645443e+00
2.952807e+01	-8.688638e+00
2.969863e+01	-8.731805e+00
2.987016e+01	-8.775270e+00
3.004269e+01	-8.818775e+00
3.021622e+01	-8.862421e+00
3.039075e+01	-8.906168e+00
3.056628e+01	-8.949769e+00
3.074283e+01	-8.993413e+00
3.092040e+01	-9.036870e+00
3.109900e+01	-9.080833e+00
3.127862e+01	-9.124992e+00
3.145929e+01	-9.168878e+00
3.164099e+01	-9.212605e+00
3.182375e+01	-9.256696e+00
3.200756e+01	-9.300455e+00
3.219244e+01	-9.344605e+00
3.237838e+01	-9.388670e+00
3.256540e+01	-9.433542e+00
3.275349e+01	-9.477724e+00
3.294268e+01	-9.522076e+00
3.313295e+01	-9.567113e+00
3.332433e+01	-9.611719e+00
3.351681e+01	-9.655889e+00
3.371040e+01	-9.700204e+00
3.390511e+01	-9.745182e+00
3.410094e+01	-9.790129e+00
3.429791e+01	-9.834442e+00
3.449601e+01	-9.879715e+00
3.469526e+01	-9.924556e+00
3.489566e+01	-9.969150e+00
3.509721e+01	-1.001493e+01
3.529993e+01	-1.005933e+01
3.550382e+01	-1.010496e+01
3.570889e+01	-1.014995e+01
3.591515e+01	-1.019468e+01
3.612259e+01	-1.024025e+01
3.633123e+01	-1.028549e+01
3.654108e+01	-1.033111e+01
3.675214e+01	-1.037598e+01
3.696442e+01	-1.042264e+01
3.717792e+01	-1.046690e+01
3.739266e+01	-1.051320e+01
3.760864e+01	-1.055816e+01
3.782587e+01	-1.060410e+01
3.804435e+01	-1.065003e+01
3.826409e+01	-1.069589e+01
3.848510e+01	-1.074109e+01
3.870739e+01	-1.078696e+01
3.893096e+01	-1.083301e+01
3.915583e+01	-1.087948e+01
3.938199e+01	-1.092499e+01
3.960946e+01	-1.097091e+01
3.983824e+01	-1.101649e+01
4.006834e+01	-1.106319e+01
4.029978e+01	-1.110898e+01
4.053255e+01	-1.115523e+01
4.076666e+01	-1.120162e+01
4.100213e+01	-1.124835e+01
4.123896e+01	-1.129436e+01
4.147715e+01	-1.134055e+01
4.171672e+01	-1.138690e+01
4.195767e+01	-1.143320e+01
4.220002e+01	-1.148016e+01
4.244377e+01	-1.152642e+01
4.268892e+01	-1.157327e+01
4.293549e+01	-1.161922e+01
4.318348e+01	-1.166611e+01
4.343291e+01	-1.171269e+01
4.368377e+01	-1.175926e+01
4.393609e+01	-1.180608e+01
4.418986e+01	-1.185219e+01
4.444510e+01	-1.189910e+01
4.470182e+01	-1.194687e+01
4.496001e+01	-1.199263e+01
4.521970e+01	-1.203981e+01
4.548089e+01	-1.208738e+01
4.574358e+01	-1.213374e+01
4.600779e+01	-1.218136e+01
4.627353e+01	-1.222804e+01
4.654081e+01	-1.227487e+01
4.680963e+01	-1.232204e+01
4.708000e+01	-1.236840e+01
4.735193e+01	-1.241683e+01
4.762543e+01	-1.246314e+01
4.790051e+01	-1.251124e+01
4.817719e+01	-1.255773e+01
4.845545e+01	-1.260452e+01
4.873533e+01	-1.265232e+01
4.901682e+01	-1.269946e+01
4.929994e+01	-1.274715e+01
4.958470e+01	-1.279482e+01
4.987110e+01	-1.284162e+01
5.015915e+01	-1.288974e+01
5.044887e+01	-1.293596e+01
5.074026e+01	-1.298452e+01
5.103333e+01	-1.303226e+01
5.132810e+01	-1.307983e+01
5.162457e+01	-1.312649e+01
5.192275e+01	-1.317488e+01
5.222265e+01	-1.322225e+01
5.252429e+01	-1.327003e+01
5.282767e+01	-1.331706e+01
5.313280e+01	-1.336482e+01
5.343969e+01	-1.341259e+01
5.374836e+01	-1.346084e+01
5.405880e+01	-1.350880e+01
5.437105e+01	-1.355645e+01
5.468509e+01	-1.360358e+01
5.500095e+01	-1.365157e+01
5.531863e+01	-1.370031e+01
5.563815e+01	-1.374803e+01
5.595951e+01	-1.379622e+01
5.628273e+01	-1.384347e+01
5.660782e+01	-1.389215e+01
5.693479e+01	-1.394001e+01
5.726364e+01	-1.398826e+01
5.759439e+01	-1.403580e+01
5.792705e+01	-1.408398e+01
5.826164e+01	-1.413172e+01
5.859815e+01	-1.417964e+01
5.893662e+01	-1.422741e+01
5.927703e+01	-1.427587e+01
5.961941e+01	-1.432426e+01
5.996377e+01	-1.437229e+01
6.031012e+01	-1.442084e+01
6.065847e+01	-1.446978e+01
6.100883e+01	-1.451693e+01
6.136121e+01	-1.456549e+01
6.171563e+01	-1.461324e+01
6.207210e+01	-1.466192e+01
6.243063e+01	-1.471100e+01
6.279122e+01	-1.475880e+01
6.315390e+01	-1.480814e+01
6.351868e+01	-1.485533e+01
6.388556e+01	-1.490389e+01
6.425456e+01	-1.495208e+01
6.462569e+01	-1.500126e+01
6.499897e+01	-1.504969e+01
6.537440e+01	-1.509746e+01
6.575200e+01	-1.514564e+01
6.613178e+01	-1.519458e+01
6.651375e+01	-1.524318e+01
6.689793e+01	-1.529204e+01
6.728433e+01	-1.534025e+01
6.767297e+01	-1.538953e+01
6.806384e+01	-1.543721e+01
6.845698e+01	-1.548614e+01
6.885238e+01	-1.553478e+01
6.925007e+01	-1.558380e+01
6.965005e+01	-1.563171e+01
7.005235e+01	-1.568131e+01
7.045697e+01	-1.572938e+01
7.086393e+01	-1.577816e+01
7.127323e+01	-1.582722e+01
7.168490e+01	-1.587586e+01
7.209895e+01	-1.592446e+01
7.251539e+01	-1.597306e+01
7.293424e+01	-1.602194e+01
7.335551e+01	-1.607085e+01
7.377920e+01	-1.611962e+01
7.420535e+01	-1.616898e+01
7.463396e+01	-1.621653e+01
7.506504e+01	-1.626569e+01
7.549861e+01	-1.631431e+01
7.593469e+01	-1.636351e+01
7.637328e+01	-1.641227e+01
7.681441e+01	-1.646087e+01
7.725809e+01	-1.650993e+01
7.770433e+01	-1.655895e+01
7.815315e+01	-1.660846e+01
7.860456e+01	-1.665622e+01
7.905857e+01	-1.670567e+01
7.951521e+01	-1.675532e+01
7.997449e+01	-1.680398e+01
8.043642e+01	-1.685388e+01
8.090102e+01	-1.690195e+01
8.136830e+01	-1.695063e+01
8.183828e+01	-1.699955e+01
8.231097e+01	-1.704968e+01
8.278640e+01	-1.709801e+01
8.326457e+01	-1.714623e+01
8.374550e+01	-1.719608e+01
8.422921e+01	-1.724561e+01
8.471572e+01	-1.729357e+01
8.520503e+01	-1.734371e+01
8.569717e+01	-1.739204e+01
8.619215e+01	-1.744165e+01
8.669000e+01	-1.749136e+01
8.719071e+01	-1.753964e+01
8.769432e+01	-1.758912e+01
8.820084e+01	-1.763942e+01
8.871029e+01	-1.768674e+01
8.922267e+01	-1.773706e+01
8.973802e+01	-1.778665e+01
9.025634e+01	-1.783534e+01
9.077766e+01	-1.788465e+01
9.130199e+01	-1.793294e+01
9.182935e+01	-1.798279e+01
9.235975e+01	-1.803124e+01
9.289321e+01	-1.807979e+01
9.342976e+01	-1.813060e+01
9.396941e+01	-1.818014e+01
9.451217e+01	-1.822841e+01
9.505807e+01	-1.827807e+01
9.560712e+01	-1.832796e+01
9.615934e+01	-1.837795e+01
9.671476e+01	-1.842719e+01
9.727338e+01	-1.847509e+01
9.783522e+01	-1.852512e+01
9.840032e+01	-1.857492e+01
9.896867e+01	-1.862311e+01
9.954031e+01	-1.867195e+01
1.001153e+02	-1.872200e+01
1.006935e+02	-1.877197e+01
1.012751e+02	-1.882162e+01
1.018601e+02	-1.887016e+01
1.024484e+02	-1.892071e+01
1.030402e+02	-1.896997e+01
1.036353e+02	-1.901893e+01
1.042339e+02	-1.906823e+01
1.048360e+02	-1.911844e+01
1.054415e+02	-1.916701e+01
1.060505e+02	-1.921451e+01
1.066631e+02	-1.926646e+01
1.072791e+02	-1.931490e+01
1.078988e+02	-1.936590e+01
1.085220e+02	-1.941334e+01
1.091488e+02	-1.946314e+01
1.097793e+02	-1.951353e+01
1.104133e+02	-1.956108e+01
1.110511e+02	-1.961299e+01
1.116925e+02	-1.966126e+01
1.123376e+02	-1.971160e+01
1.129865e+02	-1.976043e+01
1.136391e+02	-1.980928e+01
1.142955e+02	-1.985959e+01
1.149556e+02	-1.990989e+01
1.156196e+02	-1.995834e+01
1.162874e+02	-2.000623e+01
1.169591e+02	-2.005800e+01
1.176347e+02	-2.010691e+01
1.183141e+02	-2.015795e+01
1.189975e+02	-2.020636e+01
1.196848e+02	-2.025517e+01
1.203761e+02	-2.030672e+01
1.210714e+02	-2.035614e+01
1.217707e+02	-2.040443e+01
1.224740e+02	-2.045498e+01
1.231814e+02	-2.050475e+01
1.238929e+02	-2.055301e+01
1.246085e+02	-2.060292e+01
1.253283e+02	-2.065077e+01
1.260522e+02	-2.070433e+01
1.267802e+02	-2.075308e+01
1.275125e+02	-2.080203e+01
1.282490e+02	-2.085077e+01
1.289898e+02	-2.090159e+01
1.297348e+02	-2.095019e+01
1.304842e+02	-2.100159e+01
1.312378e+02	-2.104889e+01
1.319959e+02	-2.109896e+01
1.327583e+02	-2.115093e+01
1.335251e+02	-2.119782e+01
1.342963e+02	-2.124808e+01
1.350720e+02	-2.129759e+01
1.358522e+02	-2.134684e+01
1.366368e+02	-2.139634e+01
1.374260e+02	-2.144788e+01
1.382198e+02	-2.149574e+01
1.390182e+02	-2.154689e+01
1.398211e+02	-2.159594e+01
1.406287e+02	-2.164508e+01
1.414410e+02	-2.169539e+01
1.422579e+02	-2.174560e+01
1.430796e+02	-2.179651e+01
1.439060e+02	-2.184614e+01
1.447372e+02	-2.189327e+01
1.455732e+02	-2.194298e+01
1.464141e+02	-2.199403e+01
1.472597e+02	-2.204249e+01
1.481103e+02	-2.209247e+01
1.489658e+02	-2.214169e+01
1.498262e+02	-2.219379e+01
1.506916e+02	-2.224235e+01
1.515620e+02	-2.229034e+01
1.524374e+02	-2.234184e+01
1.533179e+02	-2.239282e+01
1.542034e+02	-2.244116e+01
1.550941e+02	-2.249161e+01
1.559899e+02	-2.253930e+01
1.568909e+02	-2.259262e+01
1.577971e+02	-2.264165e+01
1.587085e+02	-2.268966e+01
1.596252e+02	-2.274068e+01
1.605472e+02	-2.279133e+01
1.614745e+02	-2.283937e+01
1.624072e+02	-2.289098e+01
1.633453e+02	-2.293810e+01
1.642887e+02	-2.299188e+01
1.652377e+02	-2.303811e+01
1.661921e+02	-2.308841e+01
1.671520e+02	-2.313802e+01
1.681175e+02	-2.318780e+01
1.690885e+02	-2.323695e+01
1.700651e+02	-2.328798e+01
1.710474e+02	-2.333627e+01
1.720354e+02	-2.338593e+01
1.730291e+02	-2.343635e+01
1.740285e+02	-2.348629e+01
1.750337e+02	-2.353746e+01
1.760446e+02	-2.358583e+01
1.770615e+02	-2.363770e+01
1.780842e+02	-2.368716e+01
1.791128e+02	-2.373707e+01
1.801473e+02	-2.378736e+01
1.811878e+02	-2.383644e+01
1.822344e+02	-2.388426e+01
1.832870e+02	-2.393479e+01
1.843456e+02	-2.398554e+01
1.854104e+02	-2.403644e+01
1.864813e+02	-2.408319e+01
1.875584e+02	-2.413527e+01
1.886418e+02	-2.418621e+01
1.897313e+02	-2.423459e+01
1.908272e+02	-2.428508e+01
1.919294e+02	-2.433560e+01
1.930380e+02	-2.438371e+01
1.941530e+02	-2.443493e+01
1.952744e+02	-2.448364e+01
1.964023e+02	-2.453446e+01
1.975367e+02	-2.458291e+01
1.986777e+02	-2.463429e+01
1.998252e+02	-2.468335e+01
2.009794e+02	-2.473539e+01
2.021403e+02	-2.478208e+01
2.033078e+02	-2.483400e+01
2.044821e+02	-2.488592e+01
2.056632e+02	-2.493135e+01
2.068511e+02	-2.498270e+01
2.080459e+02	-2.503091e+01
2.092475e+02	-2.508242e+01
2.104561e+02	-2.513234e+01
2.116717e+02	-2.518287e+01
2.128943e+02	-2.523133e+01
2.141240e+02	-2.528336e+01
2.153608e+02	-2.533389e+01
2.166047e+02	-2.538042e+01
2.178558e+02	-2.543168e+01
2.191141e+02	-2.548317e+01
2.203797e+02	-2.553135e+01
2.216526e+02	-2.558028e+01
2.229329e+02	-2.563319e+01
2.242205e+02	-2.567817e+01
2.255156e+02	-2.573478e+01
2.268182e+02	-2.578260e+01
2.281283e+02	-2.582956e+01
2.294459e+02	-2.588060e+01
2.307712e+02	-2.592854e+01
2.321041e+02	-2.598012e+01
2.334447e+02	-2.602968e+01
2.347931e+02	-2.608117e+01
2.361493e+02	-2.613125e+01
2.375133e+02	-2.618327e+01
2.388851e+02	-2.622983e+01
2.402649e+02	-2.628099e+01
2.416527e+02	-2.633137e+01
2.430484e+02	-2.637974e+01
2.444523e+02	-2.643059e+01
2.458642e+02	-2.647959e+01
2.472843e+02	-2.652993e+01
2.487126e+02	-2.658243e+01
2.501492e+02	-2.662924e+01
2.515940e+02	-2.668264e+01
2.530472e+02	-2.673223e+01
2.545088e+02	-2.678048e+01
2.559789e+02	-2.682921e+01
2.574574e+02	-2.688109e+01
2.589444e+02	-2.692989e+01
2.604401e+02	-2.697974e+01
2.619444e+02	-2.702992e+01
2.634574e+02	-2.707928e+01
2.649791e+02	-2.712709e+01
2.665096e+02	-2.718216e+01
2.680489e+02	-2.723157e+01
2.695972e+02	-2.728180e+01
2.711544e+02	-2.732894e+01
2.727205e+02	-2.738179e+01
2.742958e+02	-2.743231e+01
2.758801e+02	-2.747641e+01
2.774736e+02	-2.753328e+01
2.790762e+02	-2.757716e+01
2.806882e+02	-2.762867e+01
2.823094e+02	-2.767960e+01
2.839400e+02	-2.773137e+01
2.855800e+02	-2.777796e+01
2.872295e+02	-2.783220e+01
2.888886e+02	-2.788294e+01
2.905572e+02	-2.793000e+01
2.922354e+02	-2.797845e+01
2.939234e+02	-2.803427e+01
2.956211e+02	-2.808124e+01
2.973286e+02	-2.812960e+01
2.990459e+02	-2.817975e+01
3.007732e+02	-2.822908e+01
3.025104e+02	-2.828133e+01
3.042577e+02	-2.833234e+01
3.060151e+02	-2.837672e+01
3.077826e+02	-2.842864e+01
3.095604e+02	-2.847939e+01
3.113484e+02	-2.853388e+01
3.131467e+02	-2.858152e+01
3.149554e+02	-2.863019e+01
3.167746e+02	-2.868315e+01
3.186043e+02	-2.873043e+01
3.204445e+02	-2.878259e+01
3.222954e+02	-2.882727e+01
3.241570e+02	-2.888132e+01
3.260293e+02	-2.893299e+01
3.279124e+02	-2.898193e+01
3.298064e+02	-2.902821e+01
3.317114e+02	-2.908150e+01
3.336273e+02	-2.912880e+01
3.355544e+02	-2.918002e+01
3.374925e+02	-2.923638e+01
3.394418e+02	-2.928067e+01
3.414024e+02	-2.933004e+01
3.433744e+02	-2.937727e+01
3.453577e+02	-2.942630e+01
3.473525e+02	-2.948125e+01
3.493588e+02	-2.953597e+01
3.513766e+02	-2.957923e+01
3.534062e+02	-2.963596e+01
3.554474e+02	-2.968218e+01
3.575005e+02	-2.972781e+01
3.595654e+02	-2.978526e+01
3.616422e+02	-2.983006e+01
3.637311e+02	-2.988002e+01
3.658320e+02	-2.993033e+01
3.679450e+02	-2.998302e+01
3.700702e+02	-3.003349e+01
3.722077e+02	-3.007922e+01
3.743576e+02	-3.013624e+01
3.765199e+02	-3.017976e+01
3.786946e+02	-3.022995e+01
3.808820e+02	-3.028166e+01
3.830819e+02	-3.033669e+01
3.852946e+02	-3.038760e+01
3.875200e+02	-3.043254e+01
3.897583e+02	-3.048372e+01
3.920096e+02	-3.053300e+01
3.942738e+02	-3.058395e+01
3.965511e+02	-3.063176e+01
3.988416e+02	-3.068296e+01
4.011452e+02	-3.073141e+01
4.034622e+02	-3.078129e+01
4.057926e+02	-3.083546e+01
4.081365e+02	-3.088724e+01
4.104938e+02	-3.093617e+01
4.128648e+02	-3.098473e+01
4.152495e+02	-3.103730e+01
4.176480e+02	-3.109076e+01
4.200603e+02	-3.112989e+01
4.224866e+02	-3.118465e+01
4.249268e+02	-3.123554e+01
4.273812e+02	-3.128312e+01
4.298497e+02	-3.133757e+01
4.323325e+02	-3.138595e+01
4.348297e+02	-3.143907e+01
4.373412e+02	-3.148841e+01
4.398673e+02	-3.153784e+01
4.424079e+02	-3.158292e+01
4.449633e+02	-3.164410e+01
4.475334e+02	-3.168593e+01
4.501183e+02	-3.173634e+01
4.527182e+02	-3.179005e+01
4.553330e+02	-3.183405e+01
4.579630e+02	-3.188617e+01
4.606082e+02	-3.193934e+01
4.632687e+02	-3.198979e+01
4.659445e+02	-3.203639e+01
4.686358e+02	-3.208602e+01
4.713426e+02	-3.214505e+01
4.740650e+02	-3.218005e+01
4.768032e+02	-3.223274e+01
4.795572e+02	-3.228648e+01
4.823271e+02	-3.234133e+01
4.851130e+02	-3.238583e+01
4.879150e+02	-3.244413e+01
4.907332e+02	-3.249056e+01
4.935676e+02	-3.254393e+01
4.964185e+02	-3.259061e+01
4.992858e+02	-3.263309e+01
5.021696e+02	-3.269145e+01
5.050701e+02	-3.274081e+01
5.079874e+02	-3.278362e+01
5.109215e+02	-3.284880e+01
5.138726e+02	-3.289208e+01
5.168407e+02	-3.294894e+01
5.198259e+02	-3.298420e+01
5.228284e+02	-3.304226e+01
5.258482e+02	-3.309560e+01
5.288855e+02	-3.313771e+01
5.319403e+02	-3.319147e+01
5.350128e+02	-3.323324e+01
5.381030e+02	-3.329467e+01
5.412111e+02	-3.334390e+01
5.443371e+02	-3.339140e+01
5.474812e+02	-3.344502e+01
5.506434e+02	-3.349165e+01
5.538239e+02	-3.355226e+01
5.570228e+02	-3.358567e+01
5.602401e+02	-3.364540e+01
5.634760e+02	-3.369367e+01
5.667306e+02	-3.374707e+01
5.700040e+02	-3.378383e+01
5.732964e+02	-3.384657e+01
5.766077e+02	-3.389288e+01
5.799382e+02	-3.394524e+01
5.832879e+02	-3.400283e+01
5.866569e+02	-3.405289e+01
5.900454e+02	-3.409339e+01
5.934535e+02	-3.413994e+01
5.968813e+02	-3.419986e+01
6.003288e+02	-3.424568e+01
6.037963e+02	-3.430510e+01
6.072838e+02	-3.434971e+01
6.107914e+02	-3.440158e+01
6.143194e+02	-3.444897e+01
6.178676e+02	-3.450292e+01
6.214364e+02	-3.455044e+01
6.250258e+02	-3.460160e+01
6.286359e+02	-3.464444e+01
6.322669e+02	-3.470554e+01
6.359189e+02	-3.475478e+01
6.395919e+02	-3.480280e+01
6.432862e+02	-3.485266e+01
6.470017e+02	-3.489834e+01
6.507388e+02	-3.496559e+01
6.544974e+02	-3.501143e+01
6.582778e+02	-3.505573e+01
6.620800e+02	-3.510271e+01
6.659041e+02	-3.514745e+01
6.697504e+02	-3.520628e+01
6.736188e+02	-3.525177e+01
6.775096e+02	-3.530596e+01
6.814229e+02	-3.535958e+01
6.853587e+02	-3.539711e+01
6.893173e+02	-3.545349e+01
6.932988e+02	-3.550676e+01
6.973033e+02	-3.555219e+01
7.013309e+02	-3.561313e+01
