Frequency(Hz)	Magnitude(dB)
1.000000e+01	-1.997857e+00
1.005776e+01	-2.016292e+00
1.011585e+01	-2.034942e+00
1.017428e+01	-2.053781e+00
1.023305e+01	-2.072614e+00
1.029215e+01	-2.091468e+00
1.035160e+01	-2.110987e+00
1.041139e+01	-2.130286e+00
1.047153e+01	-2.149594e+00
1.053201e+01	-2.169170e+00
1.059284e+01	-2.188891e+00
1.065403e+01	-2.208763e+00
1.071556e+01	-2.228884e+00
1.077746e+01	-2.249132e+00
1.083971e+01	-2.269060e+00
1.090232e+01	-2.289553e+00
1.096529e+01	-2.310600e+00
1.102862e+01	-2.330945e+00
1.109232e+01	-2.351905e+00
1.115639e+01	-2.372869e+00
1.122083e+01	-2.394123e+00
1.128564e+01	-2.415183e+00
1.135083e+01	-2.436744e+00
1.141639e+01	-2.458018e+00
1.148233e+01	-2.479826e+00
1.154865e+01	-2.501738e+00
1.161536e+01	-2.523556e+00
1.168245e+01	-2.545666e+00
1.174992e+01	-2.567921e+00
1.181779e+01	-2.590379e+00
1.188605e+01	-2.612994e+00
1.195470e+01	-2.635883e+00
1.202375e+01	-2.658621e+00
1.209320e+01	-2.681541e+00
1.216305e+01	-2.704424e+00
1.223330e+01	-2.727998e+00
1.230396e+01	-2.751277e+00
1.237503e+01	-2.774578e+00
1.244651e+01	-2.798509e+00
1.251840e+01	-2.822388e+00
1.259070e+01	-2.846501e+00
1.266343e+01	-2.870648e+00
1.273657e+01	-2.894811e+00
1.281014e+01	-2.919080e+00
1.288413e+01	-2.943703e+00
1.295855e+01	-2.968566e+00
1.303339e+01	-2.993219e+00
1.310867e+01	-3.018054e+00
1.318439e+01	-3.043538e+00
1.326054e+01	-3.068866e+00
1.333713e+01	-3.094351e+00
1.341417e+01	-3.119696e+00
1.349165e+01	-3.145304e+00
1.356958e+01	-3.171258e+00
1.364795e+01	-3.197108e+00
1.372678e+01	-3.223522e+00
1.380607e+01	-3.249586e+00
1.388581e+01	-3.275805e+00
1.396602e+01	-3.302359e+00
1.404668e+01	-3.329403e+00
1.412782e+01	-3.356416e+00
1.420942e+01	-3.383211e+00
1.429149e+01	-3.410191e+00
1.437404e+01	-3.437646e+00
1.445706e+01	-3.464897e+00
1.454057e+01	-3.492544e+00
1.462455e+01	-3.520121e+00
1.470902e+01	-3.548131e+00
1.479398e+01	-3.576246e+00
1.487943e+01	-3.604255e+00
1.496537e+01	-3.632750e+00
1.505181e+01	-3.661237e+00
1.513875e+01	-3.689445e+00
1.522619e+01	-3.718266e+00
1.531414e+01	-3.747126e+00
1.540259e+01	-3.775988e+00
1.549156e+01	-3.805139e+00
1.558103e+01	-3.834589e+00
1.567103e+01	-3.863824e+00
1.576155e+01	-3.893494e+00
1.585258e+01	-3.923047e+00
1.594415e+01	-3.953082e+00
1.603624e+01	-3.982871e+00
1.612886e+01	-4.013075e+00
1.622202e+01	-4.043309e+00
1.631572e+01	-4.073666e+00
1.640996e+01	-4.104047e+00
1.650474e+01	-4.134803e+00
1.660008e+01	-4.165551e+00
1.669596e+01	-4.196470e+00
1.679239e+01	-4.227388e+00
1.688938e+01	-4.258721e+00
1.698694e+01	-4.289920e+00
1.708505e+01	-4.321600e+00
1.718373e+01	-4.353160e+00
1.728299e+01	-4.384907e+00
1.738281e+01	-4.416586e+00
1.748322e+01	-4.448813e+00
1.758420e+01	-4.480670e+00
1.768576e+01	-4.513097e+00
1.778792e+01	-4.545498e+00
1.789066e+01	-4.578276e+00
1.799399e+01	-4.610754e+00
1.809793e+01	-4.643384e+00
1.820246e+01	-4.676300e+00
1.830760e+01	-4.709494e+00
1.841334e+01	-4.742643e+00
1.851969e+01	-4.775957e+00
1.862666e+01	-4.809117e+00
1.873425e+01	-4.842991e+00
1.884246e+01	-4.876714e+00
1.895129e+01	-4.910298e+00
1.906075e+01	-4.944253e+00
1.917085e+01	-4.978296e+00
1.928158e+01	-5.012622e+00
1.939295e+01	-5.046986e+00
1.950496e+01	-5.081235e+00
1.961762e+01	-5.116001e+00
1.973093e+01	-5.150676e+00
1.984490e+01	-5.185472e+00
1.995952e+01	-5.220459e+00
2.007480e+01	-5.255490e+00
2.019076e+01	-5.290496e+00
2.030738e+01	-5.325548e+00
2.042467e+01	-5.361143e+00
2.054264e+01	-5.396881e+00
2.066130e+01	-5.432370e+00
2.078064e+01	-5.468325e+00
2.090066e+01	-5.503851e+00
2.102139e+01	-5.540384e+00
2.114280e+01	-5.576208e+00
2.126492e+01	-5.612447e+00
2.138775e+01	-5.648580e+00
2.151128e+01	-5.685473e+00
2.163553e+01	-5.722307e+00
2.176050e+01	-5.758663e+00
2.188619e+01	-5.795483e+00
2.201260e+01	-5.832277e+00
2.213974e+01	-5.869247e+00
2.226762e+01	-5.906255e+00
2.239624e+01	-5.943742e+00
2.252560e+01	-5.980751e+00
2.265571e+01	-6.018289e+00
2.278656e+01	-6.055904e+00
2.291818e+01	-6.093279e+00
2.305055e+01	-6.131263e+00
2.318369e+01	-6.169335e+00
2.331760e+01	-6.207074e+00
2.345228e+01	-6.245556e+00
2.358774e+01	-6.283817e+00
2.372398e+01	-6.321651e+00
2.386101e+01	-6.360273e+00
2.399883e+01	-6.398837e+00
2.413745e+01	-6.436975e+00
2.427686e+01	-6.476432e+00
2.441709e+01	-6.515185e+00
2.455812e+01	-6.553696e+00
2.469997e+01	-6.593047e+00
2.484263e+01	-6.631876e+00
2.498612e+01	-6.671218e+00
2.513044e+01	-6.710435e+00
2.527559e+01	-6.749897e+00
2.542158e+01	-6.789110e+00
2.556842e+01	-6.829055e+00
2.571610e+01	-6.868675e+00
2.586463e+01	-6.908715e+00
2.601403e+01	-6.948714e+00
2.616428e+01	-6.988277e+00
2.631541e+01	-7.028528e+00
2.646740e+01	-7.068314e+00
2.662028e+01	-7.108583e+00
2.677404e+01	-7.149233e+00
2.692868e+01	-7.189399e+00
2.708422e+01	-7.230102e+00
2.724066e+01	-7.270983e+00
2.739800e+01	-7.311658e+00
2.755625e+01	-7.352192e+00
2.771541e+01	-7.393097e+00
2.787550e+01	-7.434068e+00
2.803650e+01	-7.475098e+00
2.819844e+01	-7.516011e+00
2.836131e+01	-7.557061e+00
2.852513e+01	-7.598677e+00
2.868989e+01	-7.639689e+00
2.885560e+01	-7.681460e+00
2.902227e+01	-7.722744e+00
2.918990e+01	-7.764527e+00
2.935850e+01	-7.806324e+00
2.952807e+01	-7.848345e+00
2.969863e+01	-7.890086e+00
2.987016e+01	-7.931779e+00
3.004269e+01	-7.973789e+00
3.021622e+01	-8.015344e+00
3.039075e+01	-8.058382e+00
3.056628e+01	-8.100267e+00
3.074283e+01	-8.142711e+00
3.092040e+01	-8.185139e+00
3.109900e+01	-8.227573e+00
3.127862e+01	-8.270026e+00
3.145929e+01	-8.312875e+00
3.164099e+01	-8.354846e+00
3.182375e+01	-8.398075e+00
3.200756e+01	-8.440937e+00
3.219244e+01	-8.484092e+00
3.237838e+01	-8.526815e+00
3.256540e+01	-8.569553e+00
3.275349e+01	-8.613061e+00
3.294268e+01	-8.655908e+00
3.313295e+01	-8.699385e+00
3.332433e+01	-8.742597e+00
3.351681e+01	-8.786051e+00
3.371040e+01	-8.829462e+00
3.390511e+01	-8.872778e+00
3.410094e+01	-8.916297e+00
3.429791e+01	-8.960482e+00
3.449601e+01	-9.004387e+00
3.469526e+01	-9.047715e+00
3.489566e+01	-9.091632e+00
3.509721e+01	-9.135498e+00
3.529993e+01	-9.179267e+00
3.550382e+01	-9.223304e+00
3.570889e+01	-9.267415e+00
3.591515e+01	-9.311526e+00
3.612259e+01	-9.355555e+00
3.633123e+01	-9.399960e+00
3.654108e+01	-9.444366e+00
3.675214e+01	-9.488732e+00
3.696442e+01	-9.533426e+00
3.717792e+01	-9.577724e+00
3.739266e+01	-9.621891e+00
3.760864e+01	-9.666835e+00
3.782587e+01	-9.711452e+00
3.804435e+01	-9.755842e+00
3.826409e+01	-9.800765e+00
3.848510e+01	-9.845717e+00
3.870739e+01	-9.890656e+00
3.893096e+01	-9.935303e+00
3.915583e+01	-9.980265e+00
3.938199e+01	-1.002573e+01
3.960946e+01	-1.007048e+01
3.983824e+01	-1.011562e+01
4.006834e+01	-1.016048e+01
4.029978e+01	-1.020605e+01
4.053255e+01	-1.025113e+01
4.076666e+01	-1.029643e+01
4.100213e+01	-1.034235e+01
4.123896e+01	-1.038725e+01
4.147715e+01	-1.043339e+01
4.171672e+01	-1.047864e+01
4.195767e+01	-1.052416e+01
4.220002e+01	-1.056959e+01
4.244377e+01	-1.061571e+01
4.268892e+01	-1.066100e+01
4.293549e+01	-1.070667e+01
4.318348e+01	-1.075214e+01
4.343291e+01	-1.079834e+01
4.368377e+01	-1.084342e+01
4.393609e+01	-1.089009e+01
4.418986e+01	-1.093558e+01
4.444510e+01	-1.098214e+01
4.470182e+01	-1.102835e+01
4.496001e+01	-1.107436e+01
4.521970e+01	-1.112041e+01
4.548089e+01	-1.116620e+01
4.574358e+01	-1.121273e+01
4.600779e+01	-1.125932e+01
4.627353e+01	-1.130546e+01
4.654081e+01	-1.135157e+01
4.680963e+01	-1.139829e+01
4.708000e+01	-1.144472e+01
4.735193e+01	-1.149136e+01
4.762543e+01	-1.153745e+01
4.790051e+01	-1.158448e+01
4.817719e+01	-1.163046e+01
4.845545e+01	-1.167736e+01
4.873533e+01	-1.172376e+01
4.901682e+01	-1.177117e+01
4.929994e+01	-1.181723e+01
4.958470e+01	-1.186343e+01
4.987110e+01	-1.191063e+01
5.015915e+01	-1.195734e+01
5.044887e+01	-1.200469e+01
5.074026e+01	-1.205057e+01
5.103333e+01	-1.209810e+01
5.132810e+01	-1.214484e+01
5.162457e+01	-1.219206e+01
5.192275e+01	-1.223900e+01
5.222265e+01	-1.228655e+01
5.252429e+01	-1.233335e+01
5.282767e+01	-1.238076e+01
5.313280e+01	-1.242747e+01
5.343969e+01	-1.247568e+01
5.374836e+01	-1.252184e+01
5.405880e+01	-1.256858e+01
5.437105e+01	-1.261613e+01
5.468509e+01	-1.266330e+01
5.500095e+01	-1.271124e+01
5.531863e+01	-1.275868e+01
5.563815e+01	-1.280681e+01
5.595951e+01	-1.285306e+01
5.628273e+01	-1.290145e+01
5.660782e+01	-1.294856e+01
5.693479e+01	-1.299556e+01
5.726364e+01	-1.304353e+01
5.759439e+01	-1.309164e+01
5.792705e+01	-1.313918e+01
5.826164e+01	-1.318550e+01
5.859815e+01	-1.323444e+01
5.893662e+01	-1.328165e+01
5.927703e+01	-1.332967e+01
5.961941e+01	-1.337690e+01
5.996377e+01	-1.342423e+01
6.031012e+01	-1.347173e+01
6.065847e+01	-1.352031e+01
6.100883e+01	-1.356751e+01
6.136121e+01	-1.361627e+01
6.171563e+01	-1.366342e+01
6.207210e+01	-1.371165e+01
6.243063e+01	-1.375992e+01
6.279122e+01	-1.380699e+01
6.315390e+01	-1.385520e+01
6.351868e+01	-1.390318e+01
6.388556e+01	-1.395219e+01
6.425456e+01	-1.399937e+01
6.462569e+01	-1.404691e+01
6.499897e+01	-1.409601e+01
6.537440e+01	-1.414387e+01
6.575200e+01	-1.419115e+01
6.613178e+01	-1.423994e+01
6.651375e+01	-1.428826e+01
6.689793e+01	-1.433629e+01
6.728433e+01	-1.438377e+01
6.767297e+01	-1.443312e+01
6.806384e+01	-1.448189e+01
6.845698e+01	-1.452887e+01
6.885238e+01	-1.457741e+01
6.925007e+01	-1.462563e+01
6.965005e+01	-1.467389e+01
7.005235e+01	-1.472188e+01
7.045697e+01	-1.477119e+01
7.086393e+01	-1.481905e+01
7.127323e+01	-1.486652e+01
7.168490e+01	-1.491596e+01
7.209895e+01	-1.496417e+01
7.251539e+01	-1.501242e+01
7.293424e+01	-1.506061e+01
7.335551e+01	-1.510996e+01
7.377920e+01	-1.515876e+01
7.420535e+01	-1.520678e+01
7.463396e+01	-1.525532e+01
7.506504e+01	-1.530370e+01
7.549861e+01	-1.535201e+01
7.593469e+01	-1.539988e+01
7.637328e+01	-1.544927e+01
7.681441e+01	-1.549979e+01
7.725809e+01	-1.554653e+01
7.770433e+01	-1.559614e+01
7.815315e+01	-1.564402e+01
7.860456e+01	-1.569302e+01
7.905857e+01	-1.574100e+01
7.951521e+01	-1.579031e+01
7.997449e+01	-1.583888e+01
8.043642e+01	-1.588703e+01
8.090102e+01	-1.593687e+01
8.136830e+01	-1.598575e+01
8.183828e+01	-1.603378e+01
8.231097e+01	-1.608231e+01
8.278640e+01	-1.613033e+01
8.326457e+01	-1.618007e+01
8.374550e+01	-1.622976e+01
8.422921e+01	-1.627693e+01
8.471572e+01	-1.632747e+01
8.520503e+01	-1.637558e+01
8.569717e+01	-1.642505e+01
8.619215e+01	-1.647330e+01
8.669000e+01	-1.652243e+01
8.719071e+01	-1.657291e+01
8.769432e+01	-1.662048e+01
8.820084e+01	-1.666912e+01
8.871029e+01	-1.671749e+01
8.922267e+01	-1.676632e+01
8.973802e+01	-1.681581e+01
9.025634e+01	-1.686493e+01
9.077766e+01	-1.691332e+01
9.130199e+01	-1.696406e+01
9.182935e+01	-1.701362e+01
9.235975e+01	-1.706152e+01
9.289321e+01	-1.710995e+01
9.342976e+01	-1.715926e+01
9.396941e+01	-1.720862e+01
9.451217e+01	-1.725662e+01
9.505807e+01	-1.730718e+01
9.560712e+01	-1.735557e+01
9.615934e+01	-1.740431e+01
9.671476e+01	-1.745386e+01
9.727338e+01	-1.750297e+01
9.783522e+01	-1.755204e+01
9.840032e+01	-1.760045e+01
9.896867e+01	-1.765068e+01
9.954031e+01	-1.769916e+01
1.001153e+02	-1.774790e+01
1.006935e+02	-1.779810e+01
1.012751e+02	-1.784778e+01
1.018601e+02	-1.789616e+01
1.024484e+02	-1.794547e+01
1.030402e+02	-1.799434e+01
1.036353e+02	-1.804482e+01
1.042339e+02	-1.809453e+01
1.048360e+02	-1.814191e+01
1.054415e+02	-1.819310e+01
1.060505e+02	-1.824028e+01
1.066631e+02	-1.829050e+01
1.072791e+02	-1.834042e+01
1.078988e+02	-1.838973e+01
1.085220e+02	-1.843724e+01
1.091488e+02	-1.848787e+01
1.097793e+02	-1.853649e+01
1.104133e+02	-1.858710e+01
1.110511e+02	-1.863498e+01
1.116925e+02	-1.868416e+01
1.123376e+02	-1.873548e+01
1.129865e+02	-1.878479e+01
1.136391e+02	-1.883333e+01
1.142955e+02	-1.888197e+01
1.149556e+02	-1.893227e+01
1.156196e+02	-1.898138e+01
1.162874e+02	-1.903061e+01
1.169591e+02	-1.908155e+01
1.176347e+02	-1.913053e+01
1.183141e+02	-1.917831e+01
1.189975e+02	-1.922799e+01
1.196848e+02	-1.927849e+01
1.203761e+02	-1.932735e+01
1.210714e+02	-1.937628e+01
1.217707e+02	-1.942504e+01
1.224740e+02	-1.947659e+01
1.231814e+02	-1.952633e+01
1.238929e+02	-1.957431e+01
1.246085e+02	-1.962569e+01
1.253283e+02	-1.967415e+01
1.260522e+02	-1.972243e+01
1.267802e+02	-1.977363e+01
1.275125e+02	-1.982458e+01
1.282490e+02	-1.987191e+01
1.289898e+02	-1.991994e+01
1.297348e+02	-1.996985e+01
1.304842e+02	-2.001987e+01
1.312378e+02	-2.006911e+01
1.319959e+02	-2.012006e+01
1.327583e+02	-2.017046e+01
1.335251e+02	-2.021844e+01
1.342963e+02	-2.026833e+01
1.350720e+02	-2.031841e+01
1.358522e+02	-2.036717e+01
1.366368e+02	-2.041675e+01
1.374260e+02	-2.046829e+01
1.382198e+02	-2.051636e+01
1.390182e+02	-2.056605e+01
1.398211e+02	-2.061512e+01
1.406287e+02	-2.066384e+01
1.414410e+02	-2.071433e+01
1.422579e+02	-2.076386e+01
1.430796e+02	-2.081405e+01
1.439060e+02	-2.086278e+01
1.447372e+02	-2.091285e+01
1.455732e+02	-2.096220e+01
1.464141e+02	-2.101152e+01
1.472597e+02	-2.106200e+01
1.481103e+02	-2.111098e+01
1.489658e+02	-2.116169e+01
1.498262e+02	-2.121083e+01
1.506916e+02	-2.126152e+01
1.515620e+02	-2.131072e+01
1.524374e+02	-2.136019e+01
1.533179e+02	-2.140912e+01
1.542034e+02	-2.146138e+01
1.550941e+02	-2.150993e+01
1.559899e+02	-2.155928e+01
1.568909e+02	-2.160737e+01
1.577971e+02	-2.165666e+01
1.587085e+02	-2.170786e+01
1.596252e+02	-2.175572e+01
1.605472e+02	-2.180607e+01
1.614745e+02	-2.185668e+01
1.624072e+02	-2.190463e+01
1.633453e+02	-2.195727e+01
1.642887e+02	-2.200556e+01
1.652377e+02	-2.205606e+01
1.661921e+02	-2.210538e+01
1.671520e+02	-2.215538e+01
1.681175e+02	-2.220309e+01
1.690885e+02	-2.225411e+01
1.700651e+02	-2.230506e+01
1.710474e+02	-2.235348e+01
1.720354e+02	-2.240396e+01
1.730291e+02	-2.245466e+01
1.740285e+02	-2.250154e+01
1.750337e+02	-2.255286e+01
1.760446e+02	-2.260328e+01
1.770615e+02	-2.265313e+01
1.780842e+02	-2.270192e+01
1.791128e+02	-2.275345e+01
1.801473e+02	-2.280355e+01
1.811878e+02	-2.285279e+01
1.822344e+02	-2.290130e+01
1.832870e+02	-2.295295e+01
1.843456e+02	-2.300316e+01
1.854104e+02	-2.305261e+01
1.864813e+02	-2.310011e+01
1.875584e+02	-2.314894e+01
1.886418e+02	-2.320020e+01
1.897313e+02	-2.324685e+01
1.908272e+02	-2.330187e+01
1.919294e+02	-2.335069e+01
1.930380e+02	-2.340000e+01
1.941530e+02	-2.344889e+01
1.952744e+02	-2.349799e+01
1.964023e+02	-2.355087e+01
1.975367e+02	-2.360061e+01
1.986777e+02	-2.365055e+01
1.998252e+02	-2.369921e+01
2.009794e+02	-2.374901e+01
2.021403e+02	-2.379832e+01
2.033078e+02	-2.384493e+01
2.044821e+02	-2.390035e+01
2.056632e+02	-2.394754e+01
2.068511e+02	-2.399798e+01
2.080459e+02	-2.404930e+01
2.092475e+02	-2.409666e+01
2.104561e+02	-2.414646e+01
2.116717e+02	-2.419470e+01
2.128943e+02	-2.424627e+01
2.141240e+02	-2.429623e+01
2.153608e+02	-2.434693e+01
2.166047e+02	-2.439535e+01
2.178558e+02	-2.444879e+01
2.191141e+02	-2.449610e+01
2.203797e+02	-2.454267e+01
2.216526e+02	-2.459727e+01
2.229329e+02	-2.464714e+01
2.242205e+02	-2.469628e+01
2.255156e+02	-2.474565e+01
2.268182e+02	-2.479577e+01
2.281283e+02	-2.484583e+01
2.294459e+02	-2.489752e+01
2.307712e+02	-2.494562e+01
2.321041e+02	-2.499487e+01
2.334447e+02	-2.504614e+01
2.347931e+02	-2.509624e+01
2.361493e+02	-2.514571e+01
2.375133e+02	-2.519614e+01
2.388851e+02	-2.524460e+01
2.402649e+02	-2.529386e+01
2.416527e+02	-2.534692e+01
2.430484e+02	-2.539299e+01
2.444523e+02	-2.544313e+01
2.458642e+02	-2.549202e+01
2.472843e+02	-2.554597e+01
2.487126e+02	-2.559833e+01
2.501492e+02	-2.564275e+01
2.515940e+02	-2.569595e+01
2.530472e+02	-2.574628e+01
2.545088e+02	-2.579431e+01
2.559789e+02	-2.584206e+01
2.574574e+02	-2.589539e+01
2.589444e+02	-2.594489e+01
2.604401e+02	-2.599408e+01
2.619444e+02	-2.604366e+01
2.634574e+02	-2.609594e+01
2.649791e+02	-2.614560e+01
2.665096e+02	-2.619181e+01
2.680489e+02	-2.624686e+01
2.695972e+02	-2.629313e+01
2.711544e+02	-2.634487e+01
2.727205e+02	-2.639334e+01
2.742958e+02	-2.644361e+01
2.758801e+02	-2.649365e+01
2.774736e+02	-2.654343e+01
2.790762e+02	-2.659363e+01
2.806882e+02	-2.664679e+01
2.823094e+02	-2.669619e+01
2.839400e+02	-2.674154e+01
2.855800e+02	-2.679398e+01
2.872295e+02	-2.684399e+01
2.888886e+02	-2.689260e+01
2.905572e+02	-2.694421e+01
2.922354e+02	-2.699259e+01
2.939234e+02	-2.704712e+01
2.956211e+02	-2.709728e+01
2.973286e+02	-2.714198e+01
2.990459e+02	-2.719263e+01
3.007732e+02	-2.724262e+01
3.025104e+02	-2.729334e+01
3.042577e+02	-2.733998e+01
3.060151e+02	-2.739119e+01
3.077826e+02	-2.744233e+01
3.095604e+02	-2.749444e+01
3.113484e+02	-2.754278e+01
3.131467e+02	-2.759501e+01
3.149554e+02	-2.764541e+01
3.167746e+02	-2.769569e+01
3.186043e+02	-2.774292e+01
3.204445e+02	-2.779287e+01
3.222954e+02	-2.784071e+01
3.241570e+02	-2.789642e+01
3.260293e+02	-2.794398e+01
3.279124e+02	-2.799409e+01
3.298064e+02	-2.804075e+01
3.317114e+02	-2.809311e+01
3.336273e+02	-2.814390e+01
3.355544e+02	-2.819338e+01
3.374925e+02	-2.824257e+01
3.394418e+02	-2.829462e+01
3.414024e+02	-2.834473e+01
3.433744e+02	-2.839194e+01
3.453577e+02	-2.844382e+01
3.473525e+02	-2.849175e+01
3.493588e+02	-2.854577e+01
3.513766e+02	-2.859718e+01
3.534062e+02	-2.864075e+01
3.554474e+02	-2.869437e+01
3.575005e+02	-2.874367e+01
3.595654e+02	-2.879214e+01
3.616422e+02	-2.884460e+01
3.637311e+02	-2.889333e+01
3.658320e+02	-2.894820e+01
3.679450e+02	-2.899189e+01
3.700702e+02	-2.904379e+01
3.722077e+02	-2.909366e+01
3.743576e+02	-2.913902e+01
3.765199e+02	-2.919464e+01
3.786946e+02	-2.924123e+01
3.808820e+02	-2.929639e+01
3.830819e+02	-2.934579e+01
3.852946e+02	-2.939012e+01
3.875200e+02	-2.944551e+01
3.897583e+02	-2.949212e+01
3.920096e+02	-2.954740e+01
3.942738e+02	-2.959512e+01
3.965511e+02	-2.964510e+01
3.988416e+02	-2.969380e+01
4.011452e+02	-2.974548e+01
4.034622e+02	-2.979587e+01
4.057926e+02	-2.984586e+01
4.081365e+02	-2.989658e+01
4.104938e+02	-2.994463e+01
4.128648e+02	-2.999601e+01
4.152495e+02	-3.004369e+01
4.176480e+02	-3.009359e+01
4.200603e+02	-3.014711e+01
4.224866e+02	-3.020007e+01
4.249268e+02	-3.024637e+01
4.273812e+02	-3.029411e+01
4.298497e+02	-3.034712e+01
4.323325e+02	-3.039636e+01
4.348297e+02	-3.044538e+01
4.373412e+02	-3.049491e+01
4.398673e+02	-3.054375e+01
4.424079e+02	-3.059442e+01
4.449633e+02	-3.065267e+01
4.475334e+02	-3.069947e+01
4.501183e+02	-3.074649e+01
4.527182e+02	-3.079453e+01
4.553330e+02	-3.084850e+01
4.579630e+02	-3.089862e+01
4.606082e+02	-3.095107e+01
4.632687e+02	-3.099564e+01
4.659445e+02	-3.104593e+01
4.686358e+02	-3.109875e+01
4.713426e+02	-3.114711e+01
4.740650e+02	-3.119334e+01
4.768032e+02	-3.125025e+01
4.795572e+02	-3.130163e+01
4.823271e+02	-3.135212e+01
4.851130e+02	-3.140590e+01
4.879150e+02	-3.144974e+01
4.907332e+02	-3.149745e+01
4.935676e+02	-3.155127e+01
4.964185e+02	-3.159891e+01
4.992858e+02	-3.164987e+01
5.021696e+02	-3.169994e+01
5.050701e+02	-3.174747e+01
5.079874e+02	-3.180561e+01
5.109215e+02	-3.184537e+01
5.138726e+02	-3.189802e+01
5.168407e+02	-3.195401e+01
5.198259e+02	-3.200140e+01
5.228284e+02	-3.205430e+01
5.258482e+02	-3.209719e+01
5.288855e+02	-3.214751e+01
5.319403e+02	-3.219822e+01
5.350128e+02	-3.225426e+01
5.381030e+02	-3.229396e+01
5.412111e+02	-3.234952e+01
5.443371e+02	-3.240381e+01
5.474812e+02	-3.245311e+01
5.506434e+02	-3.250536e+01
5.538239e+02	-3.255036e+01
5.570228e+02	-3.260384e+01
5.602401e+02	-3.265781e+01
5.634760e+02	-3.270542e+01
5.667306e+02	-3.275849e+01
5.700040e+02	-3.280661e+01
5.732964e+02	-3.284987e+01
5.766077e+02	-3.290258e+01
5.799382e+02	-3.295470e+01
5.832879e+02	-3.300583e+01
5.866569e+02	-3.305953e+01
5.900454e+02	-3.310285e+01
5.934535e+02	-3.315777e+01
5.968813e+02	-3.320446e+01
6.003288e+02	-3.325353e+01
6.037963e+02	-3.331492e+01
6.072838e+02	-3.335621e+01
6.107914e+02	-3.341391e+01
6.143194e+02	-3.346436e+01
6.178676e+02	-3.351063e+01
6.214364e+02	-3.355540e+01
6.250258e+02	-3.360920e+01
6.286359e+02	-3.365543e+01
6.322669e+02	-3.371154e+01
6.359189e+02	-3.375941e+01
6.395919e+02	-3.380549e+01
6.432862e+02	-3.385579e+01
6.470017e+02	-3.391039e+01
6.507388e+02	-3.396410e+01
6.544974e+02	-3.402060e+01
6.582778e+02	-3.406866e+01
6.620800e+02	-3.410664e+01
6.659041e+02	-3.415589e+01
6.697504e+02	-3.421496e+01
6.736188e+02	-3.426674e+01
6.775096e+02	-3.431716e+01
6.814229e+02	-3.436651e+01
6.853587e+02	-3.441451e+01
6.893173e+02	-3.446797e+01
6.932988e+02	-3.452097e+01
6.973033e+02	-3.456374e+01
7.013309e+02	-3.461737e+01
