Frequency(Hz)	Magnitude(dB)
1.000000e+01	-2.390465e+00
1.005776e+01	-2.411505e+00
1.011585e+01	-2.433098e+00
1.017428e+01	-2.454790e+00
1.023305e+01	-2.476332e+00
1.029215e+01	-2.498103e+00
1.035160e+01	-2.520140e+00
1.041139e+01	-2.541980e+00
1.047153e+01	-2.564374e+00
1.053201e+01	-2.586733e+00
1.059284e+01	-2.609353e+00
1.065403e+01	-2.631973e+00
1.071556e+01	-2.654892e+00
1.077746e+01	-2.677719e+00
1.083971e+01	-2.700737e+00
1.090232e+01	-2.724383e+00
1.096529e+01	-2.747442e+00
1.102862e+01	-2.771051e+00
1.109232e+01	-2.794683e+00
1.115639e+01	-2.818453e+00
1.122083e+01	-2.842322e+00
1.128564e+01	-2.866709e+00
1.135083e+01	-2.890664e+00
1.141639e+01	-2.915143e+00
1.148233e+01	-2.939652e+00
1.154865e+01	-2.964180e+00
1.161536e+01	-2.989242e+00
1.168245e+01	-3.013929e+00
1.174992e+01	-3.039348e+00
1.181779e+01	-3.064217e+00
1.188605e+01	-3.089771e+00
1.195470e+01	-3.115671e+00
1.202375e+01	-3.141027e+00
1.209320e+01	-3.166828e+00
1.216305e+01	-3.193125e+00
1.223330e+01	-3.218987e+00
1.230396e+01	-3.245422e+00
1.237503e+01	-3.271903e+00
1.244651e+01	-3.298173e+00
1.251840e+01	-3.325001e+00
1.259070e+01	-3.351737e+00
1.266343e+01	-3.378735e+00
1.273657e+01	-3.405755e+00
1.281014e+01	-3.432995e+00
1.288413e+01	-3.460388e+00
1.295855e+01	-3.488102e+00
1.303339e+01	-3.515740e+00
1.310867e+01	-3.543546e+00
1.318439e+01	-3.571537e+00
1.326054e+01	-3.599554e+00
1.333713e+01	-3.627992e+00
1.341417e+01	-3.656276e+00
1.349165e+01	-3.684976e+00
1.356958e+01	-3.713549e+00
1.364795e+01	-3.742437e+00
1.372678e+01	-3.771424e+00
1.380607e+01	-3.800329e+00
1.388581e+01	-3.829598e+00
1.396602e+01	-3.858818e+00
1.404668e+01	-3.888725e+00
1.412782e+01	-3.918413e+00
1.420942e+01	-3.948212e+00
1.429149e+01	-3.977848e+00
1.437404e+01	-4.007909e+00
1.445706e+01	-4.038251e+00
1.454057e+01	-4.068688e+00
1.462455e+01	-4.099013e+00
1.470902e+01	-4.129646e+00
1.479398e+01	-4.160506e+00
1.487943e+01	-4.191450e+00
1.496537e+01	-4.222495e+00
1.505181e+01	-4.253799e+00
1.513875e+01	-4.284863e+00
1.522619e+01	-4.316325e+00
1.531414e+01	-4.347845e+00
1.540259e+01	-4.380002e+00
1.549156e+01	-4.411418e+00
1.558103e+01	-4.443427e+00
1.567103e+01	-4.475624e+00
1.576155e+01	-4.507770e+00
1.585258e+01	-4.540228e+00
1.594415e+01	-4.572536e+00
1.603624e+01	-4.605382e+00
1.612886e+01	-4.638181e+00
1.622202e+01	-4.670997e+00
1.631572e+01	-4.704156e+00
1.640996e+01	-4.737378e+00
1.650474e+01	-4.770285e+00
1.660008e+01	-4.803749e+00
1.669596e+01	-4.837534e+00
1.679239e+01	-4.871026e+00
1.688938e+01	-4.905037e+00
1.698694e+01	-4.938733e+00
1.708505e+01	-4.972641e+00
1.718373e+01	-5.006912e+00
1.728299e+01	-5.041013e+00
1.738281e+01	-5.075468e+00
1.748322e+01	-5.110219e+00
1.758420e+01	-5.144830e+00
1.768576e+01	-5.179621e+00
1.778792e+01	-5.214549e+00
1.789066e+01	-5.249512e+00
1.799399e+01	-5.284632e+00
1.809793e+01	-5.319994e+00
1.820246e+01	-5.355394e+00
1.830760e+01	-5.391161e+00
1.841334e+01	-5.426645e+00
1.851969e+01	-5.462243e+00
1.862666e+01	-5.498083e+00
1.873425e+01	-5.534013e+00
1.884246e+01	-5.570158e+00
1.895129e+01	-5.606254e+00
1.906075e+01	-5.642873e+00
1.917085e+01	-5.679476e+00
1.928158e+01	-5.715535e+00
1.939295e+01	-5.752435e+00
1.950496e+01	-5.789203e+00
1.961762e+01	-5.825705e+00
1.973093e+01	-5.863161e+00
1.984490e+01	-5.900704e+00
1.995952e+01	-5.937225e+00
2.007480e+01	-5.974740e+00
2.019076e+01	-6.012157e+00
2.030738e+01	-6.049626e+00
2.042467e+01	-6.087509e+00
2.054264e+01	-6.125362e+00
2.066130e+01	-6.162906e+00
2.078064e+01	-6.201187e+00
2.090066e+01	-6.239207e+00
2.102139e+01	-6.277230e+00
2.114280e+01	-6.315619e+00
2.126492e+01	-6.353769e+00
2.138775e+01	-6.392234e+00
2.151128e+01	-6.431113e+00
2.163553e+01	-6.469575e+00
2.176050e+01	-6.508627e+00
2.188619e+01	-6.547305e+00
2.201260e+01	-6.586396e+00
2.213974e+01	-6.625708e+00
2.226762e+01	-6.664887e+00
2.239624e+01	-6.703751e+00
2.252560e+01	-6.743437e+00
2.265571e+01	-6.782757e+00
2.278656e+01	-6.822607e+00
2.291818e+01	-6.862053e+00
2.305055e+01	-6.901475e+00
2.318369e+01	-6.941691e+00
2.331760e+01	-6.981938e+00
2.345228e+01	-7.022237e+00
2.358774e+01	-7.062239e+00
2.372398e+01	-7.102039e+00
2.386101e+01	-7.142764e+00
2.399883e+01	-7.183028e+00
2.413745e+01	-7.223377e+00
2.427686e+01	-7.263987e+00
2.441709e+01	-7.304731e+00
2.455812e+01	-7.346122e+00
2.469997e+01	-7.386223e+00
2.484263e+01	-7.427190e+00
2.498612e+01	-7.467975e+00
2.513044e+01	-7.509588e+00
2.527559e+01	-7.550960e+00
2.542158e+01	-7.591884e+00
2.556842e+01	-7.633262e+00
2.571610e+01	-7.674596e+00
2.586463e+01	-7.716304e+00
2.601403e+01	-7.757634e+00
2.616428e+01	-7.799813e+00
2.631541e+01	-7.841145e+00
2.646740e+01	-7.883168e+00
2.662028e+01	-7.924904e+00
2.677404e+01	-7.967140e+00
2.692868e+01	-8.009089e+00
2.708422e+01	-8.051116e+00
2.724066e+01	-8.093217e+00
2.739800e+01	-8.135254e+00
2.755625e+01	-8.178164e+00
2.771541e+01	-8.220977e+00
2.787550e+01	-8.262984e+00
2.803650e+01	-8.305533e+00
2.819844e+01	-8.348658e+00
2.836131e+01	-8.391121e+00
2.852513e+01	-8.434129e+00
2.868989e+01	-8.477391e+00
2.885560e+01	-8.519666e+00
2.902227e+01	-8.563257e+00
2.918990e+01	-8.606055e+00
2.935850e+01	-8.649025e+00
2.952807e+01	-8.692182e+00
2.969863e+01	-8.735213e+00
2.987016e+01	-8.778450e+00
3.004269e+01	-8.822083e+00
3.021622e+01	-8.865707e+00
3.039075e+01	-8.909206e+00
3.056628e+01	-8.953122e+00
3.074283e+01	-8.996892e+00
3.092040e+01	-9.040544e+00
3.109900e+01	-9.083866e+00
3.127862e+01	-9.128855e+00
3.145929e+01	-9.172250e+00
3.164099e+01	-9.216389e+00
3.182375e+01	-9.260524e+00
3.200756e+01	-9.304419e+00
3.219244e+01	-9.348724e+00
3.237838e+01	-9.393276e+00
3.256540e+01	-9.437144e+00
3.275349e+01	-9.481171e+00
3.294268e+01	-9.525814e+00
3.313295e+01	-9.570258e+00
3.332433e+01	-9.614878e+00
3.351681e+01	-9.659866e+00
3.371040e+01	-9.704067e+00
3.390511e+01	-9.748505e+00
3.410094e+01	-9.793394e+00
3.429791e+01	-9.837853e+00
3.449601e+01	-9.883704e+00
3.469526e+01	-9.928328e+00
3.489566e+01	-9.973143e+00
3.509721e+01	-1.001799e+01
3.529993e+01	-1.006331e+01
3.550382e+01	-1.010833e+01
3.570889e+01	-1.015378e+01
3.591515e+01	-1.019868e+01
3.612259e+01	-1.024437e+01
3.633123e+01	-1.028886e+01
3.654108e+01	-1.033495e+01
3.675214e+01	-1.038011e+01
3.696442e+01	-1.042496e+01
3.717792e+01	-1.047076e+01
3.739266e+01	-1.051632e+01
3.760864e+01	-1.056185e+01
3.782587e+01	-1.060768e+01
3.804435e+01	-1.065367e+01
3.826409e+01	-1.069897e+01
3.848510e+01	-1.074498e+01
3.870739e+01	-1.079105e+01
3.893096e+01	-1.083600e+01
3.915583e+01	-1.088259e+01
3.938199e+01	-1.092827e+01
3.960946e+01	-1.097469e+01
3.983824e+01	-1.102084e+01
4.006834e+01	-1.106664e+01
4.029978e+01	-1.111250e+01
4.053255e+01	-1.115909e+01
4.076666e+01	-1.120552e+01
4.100213e+01	-1.125133e+01
4.123896e+01	-1.129779e+01
4.147715e+01	-1.134411e+01
4.171672e+01	-1.139025e+01
4.195767e+01	-1.143693e+01
4.220002e+01	-1.148382e+01
4.244377e+01	-1.152945e+01
4.268892e+01	-1.157671e+01
4.293549e+01	-1.162287e+01
4.318348e+01	-1.166924e+01
4.343291e+01	-1.171589e+01
4.368377e+01	-1.176277e+01
4.393609e+01	-1.180944e+01
4.418986e+01	-1.185663e+01
4.444510e+01	-1.190345e+01
4.470182e+01	-1.195006e+01
4.496001e+01	-1.199712e+01
4.521970e+01	-1.204372e+01
4.548089e+01	-1.208999e+01
4.574358e+01	-1.213761e+01
4.600779e+01	-1.218514e+01
4.627353e+01	-1.223235e+01
4.654081e+01	-1.227884e+01
4.680963e+01	-1.232606e+01
4.708000e+01	-1.237292e+01
4.735193e+01	-1.242011e+01
4.762543e+01	-1.246741e+01
4.790051e+01	-1.251476e+01
4.817719e+01	-1.256252e+01
4.845545e+01	-1.260939e+01
4.873533e+01	-1.265603e+01
4.901682e+01	-1.270321e+01
4.929994e+01	-1.275075e+01
4.958470e+01	-1.279761e+01
4.987110e+01	-1.284553e+01
5.015915e+01	-1.289361e+01
5.044887e+01	-1.294084e+01
5.074026e+01	-1.298846e+01
5.103333e+01	-1.303569e+01
5.132810e+01	-1.308365e+01
5.162457e+01	-1.313107e+01
5.192275e+01	-1.317806e+01
5.222265e+01	-1.322707e+01
5.252429e+01	-1.327336e+01
5.282767e+01	-1.332118e+01
5.313280e+01	-1.336877e+01
5.343969e+01	-1.341708e+01
5.374836e+01	-1.346475e+01
5.405880e+01	-1.351118e+01
5.437105e+01	-1.356119e+01
5.468509e+01	-1.360795e+01
5.500095e+01	-1.365585e+01
5.531863e+01	-1.370347e+01
5.563815e+01	-1.375232e+01
5.595951e+01	-1.380014e+01
5.628273e+01	-1.384761e+01
5.660782e+01	-1.389564e+01
5.693479e+01	-1.394344e+01
5.726364e+01	-1.399129e+01
5.759439e+01	-1.403975e+01
5.792705e+01	-1.408755e+01
5.826164e+01	-1.413491e+01
5.859815e+01	-1.418375e+01
5.893662e+01	-1.423249e+01
5.927703e+01	-1.428008e+01
5.961941e+01	-1.432772e+01
5.996377e+01	-1.437618e+01
6.031012e+01	-1.442512e+01
6.065847e+01	-1.447330e+01
6.100883e+01	-1.452138e+01
6.136121e+01	-1.456958e+01
6.171563e+01	-1.461762e+01
6.207210e+01	-1.466635e+01
6.243063e+01	-1.471479e+01
6.279122e+01	-1.476301e+01
6.315390e+01	-1.481105e+01
6.351868e+01	-1.485976e+01
6.388556e+01	-1.490794e+01
6.425456e+01	-1.495695e+01
6.462569e+01	-1.500539e+01
6.499897e+01	-1.505284e+01
6.537440e+01	-1.510181e+01
6.575200e+01	-1.514977e+01
6.613178e+01	-1.519942e+01
6.651375e+01	-1.524767e+01
6.689793e+01	-1.529555e+01
6.728433e+01	-1.534448e+01
6.767297e+01	-1.539272e+01
6.806384e+01	-1.544199e+01
6.845698e+01	-1.549039e+01
6.885238e+01	-1.553757e+01
6.925007e+01	-1.558769e+01
6.965005e+01	-1.563621e+01
7.005235e+01	-1.568450e+01
7.045697e+01	-1.573356e+01
7.086393e+01	-1.578214e+01
7.127323e+01	-1.582958e+01
7.168490e+01	-1.588007e+01
7.209895e+01	-1.592786e+01
7.251539e+01	-1.597734e+01
7.293424e+01	-1.602524e+01
7.335551e+01	-1.607394e+01
7.377920e+01	-1.612245e+01
7.420535e+01	-1.617178e+01
7.463396e+01	-1.622144e+01
7.506504e+01	-1.627006e+01
7.549861e+01	-1.631884e+01
7.593469e+01	-1.636713e+01
7.637328e+01	-1.641748e+01
7.681441e+01	-1.646515e+01
7.725809e+01	-1.651424e+01
7.770433e+01	-1.656359e+01
7.815315e+01	-1.661270e+01
7.860456e+01	-1.666137e+01
7.905857e+01	-1.671045e+01
7.951521e+01	-1.675915e+01
7.997449e+01	-1.680765e+01
8.043642e+01	-1.685676e+01
8.090102e+01	-1.690546e+01
8.136830e+01	-1.695505e+01
8.183828e+01	-1.700459e+01
8.231097e+01	-1.705371e+01
8.278640e+01	-1.710292e+01
8.326457e+01	-1.715038e+01
8.374550e+01	-1.720071e+01
8.422921e+01	-1.724820e+01
8.471572e+01	-1.729788e+01
8.520503e+01	-1.734738e+01
8.569717e+01	-1.739671e+01
8.619215e+01	-1.744498e+01
8.669000e+01	-1.749559e+01
8.719071e+01	-1.754399e+01
8.769432e+01	-1.759215e+01
8.820084e+01	-1.764159e+01
8.871029e+01	-1.769254e+01
8.922267e+01	-1.774111e+01
8.973802e+01	-1.778951e+01
9.025634e+01	-1.783816e+01
9.077766e+01	-1.788851e+01
9.130199e+01	-1.793717e+01
9.182935e+01	-1.798657e+01
9.235975e+01	-1.803541e+01
9.289321e+01	-1.808653e+01
9.342976e+01	-1.813459e+01
9.396941e+01	-1.818500e+01
9.451217e+01	-1.823443e+01
9.505807e+01	-1.828131e+01
9.560712e+01	-1.833230e+01
9.615934e+01	-1.838046e+01
9.671476e+01	-1.843047e+01
9.727338e+01	-1.848011e+01
9.783522e+01	-1.852815e+01
9.840032e+01	-1.857893e+01
9.896867e+01	-1.862699e+01
9.954031e+01	-1.867783e+01
1.001153e+02	-1.872700e+01
1.006935e+02	-1.877650e+01
1.012751e+02	-1.882428e+01
1.018601e+02	-1.887358e+01
1.024484e+02	-1.892304e+01
1.030402e+02	-1.897243e+01
1.036353e+02	-1.902371e+01
1.042339e+02	-1.907181e+01
1.048360e+02	-1.912157e+01
1.054415e+02	-1.917246e+01
1.060505e+02	-1.921879e+01
1.066631e+02	-1.926881e+01
1.072791e+02	-1.932166e+01
1.078988e+02	-1.936823e+01
1.085220e+02	-1.941715e+01
1.091488e+02	-1.946855e+01
1.097793e+02	-1.951573e+01
1.104133e+02	-1.956589e+01
1.110511e+02	-1.961707e+01
1.116925e+02	-1.966503e+01
1.123376e+02	-1.971571e+01
1.129865e+02	-1.976371e+01
1.136391e+02	-1.981279e+01
1.142955e+02	-1.986402e+01
1.149556e+02	-1.991281e+01
1.156196e+02	-1.996256e+01
1.162874e+02	-2.001037e+01
1.169591e+02	-2.006342e+01
1.176347e+02	-2.011277e+01
1.183141e+02	-2.016115e+01
1.189975e+02	-2.020988e+01
1.196848e+02	-2.026051e+01
1.203761e+02	-2.031098e+01
1.210714e+02	-2.035805e+01
1.217707e+02	-2.041045e+01
1.224740e+02	-2.045909e+01
1.231814e+02	-2.050823e+01
1.238929e+02	-2.055565e+01
1.246085e+02	-2.060783e+01
1.253283e+02	-2.065571e+01
1.260522e+02	-2.070569e+01
1.267802e+02	-2.075712e+01
1.275125e+02	-2.080499e+01
1.282490e+02	-2.085515e+01
1.289898e+02	-2.090589e+01
1.297348e+02	-2.095469e+01
1.304842e+02	-2.100542e+01
1.312378e+02	-2.105294e+01
1.319959e+02	-2.110293e+01
1.327583e+02	-2.115167e+01
1.335251e+02	-2.120437e+01
1.342963e+02	-2.125355e+01
1.350720e+02	-2.130259e+01
1.358522e+02	-2.135025e+01
1.366368e+02	-2.140415e+01
1.374260e+02	-2.145054e+01
1.382198e+02	-2.150044e+01
1.390182e+02	-2.155157e+01
1.398211e+02	-2.160163e+01
1.406287e+02	-2.164957e+01
1.414410e+02	-2.169964e+01
1.422579e+02	-2.174899e+01
1.430796e+02	-2.180285e+01
1.439060e+02	-2.184792e+01
1.447372e+02	-2.189830e+01
1.455732e+02	-2.194865e+01
1.464141e+02	-2.199805e+01
1.472597e+02	-2.204605e+01
1.481103e+02	-2.209743e+01
1.489658e+02	-2.214924e+01
1.498262e+02	-2.219770e+01
1.506916e+02	-2.224682e+01
1.515620e+02	-2.229486e+01
1.524374e+02	-2.234674e+01
1.533179e+02	-2.239537e+01
1.542034e+02	-2.244813e+01
1.550941e+02	-2.249541e+01
1.559899e+02	-2.254351e+01
1.568909e+02	-2.259437e+01
1.577971e+02	-2.264697e+01
1.587085e+02	-2.269363e+01
1.596252e+02	-2.274398e+01
1.605472e+02	-2.279235e+01
1.614745e+02	-2.284336e+01
1.624072e+02	-2.289358e+01
1.633453e+02	-2.294319e+01
1.642887e+02	-2.299218e+01
1.652377e+02	-2.304418e+01
1.661921e+02	-2.309116e+01
1.671520e+02	-2.314232e+01
1.681175e+02	-2.319219e+01
1.690885e+02	-2.324331e+01
1.700651e+02	-2.329275e+01
1.710474e+02	-2.334079e+01
1.720354e+02	-2.339175e+01
1.730291e+02	-2.344160e+01
1.740285e+02	-2.349066e+01
1.750337e+02	-2.354027e+01
1.760446e+02	-2.358966e+01
1.770615e+02	-2.364021e+01
1.780842e+02	-2.368927e+01
1.791128e+02	-2.373971e+01
1.801473e+02	-2.378941e+01
1.811878e+02	-2.384261e+01
1.822344e+02	-2.388977e+01
1.832870e+02	-2.394085e+01
1.843456e+02	-2.398700e+01
1.854104e+02	-2.403815e+01
1.864813e+02	-2.408750e+01
1.875584e+02	-2.413928e+01
1.886418e+02	-2.418961e+01
1.897313e+02	-2.423967e+01
1.908272e+02	-2.428663e+01
1.919294e+02	-2.433874e+01
1.930380e+02	-2.438741e+01
1.941530e+02	-2.443812e+01
1.952744e+02	-2.448882e+01
1.964023e+02	-2.453538e+01
1.975367e+02	-2.458682e+01
1.986777e+02	-2.463637e+01
1.998252e+02	-2.468515e+01
2.009794e+02	-2.473836e+01
2.021403e+02	-2.478946e+01
2.033078e+02	-2.483408e+01
2.044821e+02	-2.488511e+01
2.056632e+02	-2.493687e+01
2.068511e+02	-2.498580e+01
2.080459e+02	-2.503561e+01
2.092475e+02	-2.508677e+01
2.104561e+02	-2.513637e+01
2.116717e+02	-2.518625e+01
2.128943e+02	-2.523614e+01
2.141240e+02	-2.528612e+01
2.153608e+02	-2.533692e+01
2.166047e+02	-2.538708e+01
2.178558e+02	-2.543770e+01
2.191141e+02	-2.548577e+01
2.203797e+02	-2.553687e+01
2.216526e+02	-2.558450e+01
2.229329e+02	-2.563617e+01
2.242205e+02	-2.568476e+01
2.255156e+02	-2.573469e+01
2.268182e+02	-2.578646e+01
2.281283e+02	-2.583399e+01
2.294459e+02	-2.588510e+01
2.307712e+02	-2.593355e+01
2.321041e+02	-2.598267e+01
2.334447e+02	-2.603749e+01
2.347931e+02	-2.608178e+01
2.361493e+02	-2.613619e+01
2.375133e+02	-2.618498e+01
2.388851e+02	-2.623451e+01
2.402649e+02	-2.628574e+01
2.416527e+02	-2.633332e+01
2.430484e+02	-2.638517e+01
2.444523e+02	-2.643318e+01
2.458642e+02	-2.648705e+01
2.472843e+02	-2.653313e+01
2.487126e+02	-2.658251e+01
2.501492e+02	-2.663739e+01
2.515940e+02	-2.668007e+01
2.530472e+02	-2.673384e+01
2.545088e+02	-2.678705e+01
2.559789e+02	-2.683510e+01
2.574574e+02	-2.688610e+01
2.589444e+02	-2.693326e+01
2.604401e+02	-2.698567e+01
2.619444e+02	-2.703716e+01
2.634574e+02	-2.708686e+01
2.649791e+02	-2.713617e+01
2.665096e+02	-2.718196e+01
2.680489e+02	-2.723535e+01
2.695972e+02	-2.728433e+01
2.711544e+02	-2.733632e+01
2.727205e+02	-2.738373e+01
2.742958e+02	-2.743533e+01
2.758801e+02	-2.748312e+01
2.774736e+02	-2.753638e+01
2.790762e+02	-2.758289e+01
2.806882e+02	-2.763659e+01
2.823094e+02	-2.768369e+01
2.839400e+02	-2.773746e+01
2.855800e+02	-2.778398e+01
2.872295e+02	-2.783155e+01
2.888886e+02	-2.788956e+01
2.905572e+02	-2.793473e+01
2.922354e+02	-2.798319e+01
2.939234e+02	-2.803513e+01
2.956211e+02	-2.808311e+01
2.973286e+02	-2.813324e+01
2.990459e+02	-2.818315e+01
3.007732e+02	-2.823229e+01
3.025104e+02	-2.828621e+01
3.042577e+02	-2.833554e+01
3.060151e+02	-2.838101e+01
3.077826e+02	-2.843572e+01
3.095604e+02	-2.848095e+01
3.113484e+02	-2.853440e+01
3.131467e+02	-2.858236e+01
3.149554e+02	-2.863458e+01
3.167746e+02	-2.868497e+01
3.186043e+02	-2.873702e+01
3.204445e+02	-2.878342e+01
3.222954e+02	-2.883989e+01
3.241570e+02	-2.888554e+01
3.260293e+02	-2.893347e+01
3.279124e+02	-2.898699e+01
3.298064e+02	-2.903560e+01
3.317114e+02	-2.908374e+01
3.336273e+02	-2.913516e+01
3.355544e+02	-2.918657e+01
3.374925e+02	-2.923766e+01
3.394418e+02	-2.928747e+01
3.414024e+02	-2.933707e+01
3.433744e+02	-2.939092e+01
3.453577e+02	-2.943798e+01
3.473525e+02	-2.948645e+01
3.493588e+02	-2.953028e+01
3.513766e+02	-2.958774e+01
3.534062e+02	-2.963180e+01
3.554474e+02	-2.968690e+01
3.575005e+02	-2.974228e+01
3.595654e+02	-2.979144e+01
3.616422e+02	-2.983437e+01
3.637311e+02	-2.989047e+01
3.658320e+02	-2.993347e+01
3.679450e+02	-2.998679e+01
3.700702e+02	-3.004092e+01
3.722077e+02	-3.008991e+01
3.743576e+02	-3.013860e+01
3.765199e+02	-3.018927e+01
3.786946e+02	-3.023860e+01
3.808820e+02	-3.028820e+01
3.830819e+02	-3.034224e+01
3.852946e+02	-3.039245e+01
3.875200e+02	-3.043727e+01
3.897583e+02	-3.048347e+01
3.920096e+02	-3.053748e+01
3.942738e+02	-3.058946e+01
3.965511e+02	-3.063565e+01
3.988416e+02	-3.068459e+01
4.011452e+02	-3.073838e+01
4.034622e+02	-3.078228e+01
4.057926e+02	-3.084639e+01
4.081365e+02	-3.088901e+01
4.104938e+02	-3.093663e+01
4.128648e+02	-3.099132e+01
4.152495e+02	-3.104265e+01
4.176480e+02	-3.109148e+01
4.200603e+02	-3.113649e+01
4.224866e+02	-3.118680e+01
4.249268e+02	-3.123580e+01
4.273812e+02	-3.128783e+01
4.298497e+02	-3.133811e+01
4.323325e+02	-3.139149e+01
4.348297e+02	-3.144227e+01
4.373412e+02	-3.148960e+01
4.398673e+02	-3.154216e+01
4.424079e+02	-3.159076e+01
4.449633e+02	-3.164216e+01
4.475334e+02	-3.168904e+01
4.501183e+02	-3.174319e+01
4.527182e+02	-3.178701e+01
4.553330e+02	-3.183780e+01
4.579630e+02	-3.188780e+01
4.606082e+02	-3.194265e+01
4.632687e+02	-3.199170e+01
4.659445e+02	-3.204121e+01
4.686358e+02	-3.209475e+01
4.713426e+02	-3.214049e+01
4.740650e+02	-3.219610e+01
4.768032e+02	-3.223972e+01
4.795572e+02	-3.229303e+01
4.823271e+02	-3.234587e+01
4.851130e+02	-3.239078e+01
4.879150e+02	-3.243659e+01
4.907332e+02	-3.248742e+01
4.935676e+02	-3.254454e+01
4.964185e+02	-3.259507e+01
4.992858e+02	-3.264899e+01
5.021696e+02	-3.268580e+01
5.050701e+02	-3.275095e+01
5.079874e+02	-3.279806e+01
5.109215e+02	-3.284164e+01
5.138726e+02	-3.288951e+01
5.168407e+02	-3.293774e+01
5.198259e+02	-3.299444e+01
5.228284e+02	-3.304131e+01
5.258482e+02	-3.309565e+01
5.288855e+02	-3.314606e+01
5.319403e+02	-3.319435e+01
5.350128e+02	-3.324739e+01
5.381030e+02	-3.329785e+01
5.412111e+02	-3.335024e+01
5.443371e+02	-3.339933e+01
5.474812e+02	-3.344499e+01
5.506434e+02	-3.349199e+01
5.538239e+02	-3.354590e+01
5.570228e+02	-3.359201e+01
5.602401e+02	-3.364316e+01
5.634760e+02	-3.369845e+01
5.667306e+02	-3.374535e+01
5.700040e+02	-3.380152e+01
5.732964e+02	-3.385771e+01
5.766077e+02	-3.390341e+01
5.799382e+02	-3.395250e+01
5.832879e+02	-3.400016e+01
5.866569e+02	-3.405505e+01
5.900454e+02	-3.410390e+01
5.934535e+02	-3.414586e+01
5.968813e+02	-3.420323e+01
6.003288e+02	-3.425526e+01
6.037963e+02	-3.430099e+01
6.072838e+02	-3.435549e+01
6.107914e+02	-3.439973e+01
6.143194e+02	-3.445429e+01
6.178676e+02	-3.451370e+01
6.214364e+02	-3.456053e+01
6.250258e+02	-3.460262e+01
6.286359e+02	-3.465882e+01
6.322669e+02	-3.470578e+01
6.359189e+02	-3.475492e+01
6.395919e+02	-3.480053e+01
6.432862e+02	-3.486440e+01
6.470017e+02	-3.491397e+01
6.507388e+02	-3.495296e+01
6.544974e+02	-3.500887e+01
6.582778e+02	-3.505486e+01
6.620800e+02	-3.511552e+01
6.659041e+02	-3.515306e+01
6.697504e+02	-3.520864e+01
6.736188e+02	-3.526323e+01
6.775096e+02	-3.530994e+01
6.814229e+02	-3.535090e+01
6.853587e+02	-3.541106e+01
6.893173e+02	-3.545926e+01
6.932988e+02	-3.552024e+01
6.973033e+02	-3.555841e+01
7.013309e+02	-3.561159e+01
