Frequency(Hz)	Magnitude(dB)
1.000000e+01	-2.357889e+00
1.005776e+01	-2.378873e+00
1.011585e+01	-2.400154e+00
1.017428e+01	-2.421264e+00
1.023305e+01	-2.442883e+00
1.029215e+01	-2.464264e+00
1.035160e+01	-2.486078e+00
1.041139e+01	-2.507948e+00
1.047153e+01	-2.529905e+00
1.053201e+01	-2.552136e+00
1.059284e+01	-2.574488e+00
1.065403e+01	-2.597112e+00
1.071556e+01	-2.619482e+00
1.077746e+01	-2.642025e+00
1.083971e+01	-2.665040e+00
1.090232e+01	-2.688093e+00
1.096529e+01	-2.711344e+00
1.102862e+01	-2.734611e+00
1.109232e+01	-2.757998e+00
1.115639e+01	-2.781696e+00
1.122083e+01	-2.805153e+00
1.128564e+01	-2.829164e+00
1.135083e+01	-2.852761e+00
1.141639e+01	-2.877675e+00
1.148233e+01	-2.901633e+00
1.154865e+01	-2.926136e+00
1.161536e+01	-2.950772e+00
1.168245e+01	-2.975397e+00
1.174992e+01	-3.000623e+00
1.181779e+01	-3.025475e+00
1.188605e+01	-3.050667e+00
1.195470e+01	-3.075763e+00
1.202375e+01	-3.101421e+00
1.209320e+01	-3.126974e+00
1.216305e+01	-3.152782e+00
1.223330e+01	-3.178784e+00
1.230396e+01	-3.204727e+00
1.237503e+01	-3.230740e+00
1.244651e+01	-3.257280e+00
1.251840e+01	-3.283829e+00
1.259070e+01	-3.310238e+00
1.266343e+01	-3.337125e+00
1.273657e+01	-3.363943e+00
1.281014e+01	-3.390950e+00
1.288413e+01	-3.418204e+00
1.295855e+01	-3.445589e+00
1.303339e+01	-3.472694e+00
1.310867e+01	-3.500555e+00
1.318439e+01	-3.528089e+00
1.326054e+01	-3.556200e+00
1.333713e+01	-3.584084e+00
1.341417e+01	-3.612119e+00
1.349165e+01	-3.640835e+00
1.356958e+01	-3.669354e+00
1.364795e+01	-3.697749e+00
1.372678e+01	-3.726463e+00
1.380607e+01	-3.755465e+00
1.388581e+01	-3.784226e+00
1.396602e+01	-3.813761e+00
1.404668e+01	-3.842788e+00
1.412782e+01	-3.872194e+00
1.420942e+01	-3.901906e+00
1.429149e+01	-3.931601e+00
1.437404e+01	-3.961562e+00
1.445706e+01	-3.991268e+00
1.454057e+01	-4.021742e+00
1.462455e+01	-4.052049e+00
1.470902e+01	-4.082459e+00
1.479398e+01	-4.112906e+00
1.487943e+01	-4.143601e+00
1.496537e+01	-4.174321e+00
1.505181e+01	-4.205274e+00
1.513875e+01	-4.236304e+00
1.522619e+01	-4.267676e+00
1.531414e+01	-4.298935e+00
1.540259e+01	-4.330267e+00
1.549156e+01	-4.362212e+00
1.558103e+01	-4.393926e+00
1.567103e+01	-4.425806e+00
1.576155e+01	-4.457897e+00
1.585258e+01	-4.490225e+00
1.594415e+01	-4.522286e+00
1.603624e+01	-4.555104e+00
1.612886e+01	-4.587583e+00
1.622202e+01	-4.620022e+00
1.631572e+01	-4.652882e+00
1.640996e+01	-4.685785e+00
1.650474e+01	-4.718948e+00
1.660008e+01	-4.752025e+00
1.669596e+01	-4.785491e+00
1.679239e+01	-4.818906e+00
1.688938e+01	-4.852379e+00
1.698694e+01	-4.886488e+00
1.708505e+01	-4.919868e+00
1.718373e+01	-4.954283e+00
1.728299e+01	-4.988284e+00
1.738281e+01	-5.022340e+00
1.748322e+01	-5.056759e+00
1.758420e+01	-5.091002e+00
1.768576e+01	-5.125844e+00
1.778792e+01	-5.160459e+00
1.789066e+01	-5.195329e+00
1.799399e+01	-5.230658e+00
1.809793e+01	-5.265596e+00
1.820246e+01	-5.300672e+00
1.830760e+01	-5.335922e+00
1.841334e+01	-5.371392e+00
1.851969e+01	-5.407016e+00
1.862666e+01	-5.442397e+00
1.873425e+01	-5.477924e+00
1.884246e+01	-5.514080e+00
1.895129e+01	-5.550446e+00
1.906075e+01	-5.586619e+00
1.917085e+01	-5.622864e+00
1.928158e+01	-5.659348e+00
1.939295e+01	-5.695574e+00
1.950496e+01	-5.732262e+00
1.961762e+01	-5.768912e+00
1.973093e+01	-5.806162e+00
1.984490e+01	-5.842845e+00
1.995952e+01	-5.879837e+00
2.007480e+01	-5.916917e+00
2.019076e+01	-5.954018e+00
2.030738e+01	-5.991407e+00
2.042467e+01	-6.028940e+00
2.054264e+01	-6.067069e+00
2.066130e+01	-6.104342e+00
2.078064e+01	-6.142306e+00
2.090066e+01	-6.180067e+00
2.102139e+01	-6.218373e+00
2.114280e+01	-6.256644e+00
2.126492e+01	-6.294705e+00
2.138775e+01	-6.332820e+00
2.151128e+01	-6.371006e+00
2.163553e+01	-6.409979e+00
2.176050e+01	-6.448763e+00
2.188619e+01	-6.487106e+00
2.201260e+01	-6.525827e+00
2.213974e+01	-6.564821e+00
2.226762e+01	-6.603774e+00
2.239624e+01	-6.643351e+00
2.252560e+01	-6.682582e+00
2.265571e+01	-6.722297e+00
2.278656e+01	-6.760998e+00
2.291818e+01	-6.800853e+00
2.305055e+01	-6.840378e+00
2.318369e+01	-6.880082e+00
2.331760e+01	-6.920066e+00
2.345228e+01	-6.959851e+00
2.358774e+01	-6.999451e+00
2.372398e+01	-7.039941e+00
2.386101e+01	-7.080136e+00
2.399883e+01	-7.120556e+00
2.413745e+01	-7.160877e+00
2.427686e+01	-7.201097e+00
2.441709e+01	-7.241923e+00
2.455812e+01	-7.282296e+00
2.469997e+01	-7.323192e+00
2.484263e+01	-7.363596e+00
2.498612e+01	-7.404794e+00
2.513044e+01	-7.446066e+00
2.527559e+01	-7.486173e+00
2.542158e+01	-7.528049e+00
2.556842e+01	-7.569595e+00
2.571610e+01	-7.610508e+00
2.586463e+01	-7.651966e+00
2.601403e+01	-7.693125e+00
2.616428e+01	-7.734909e+00
2.631541e+01	-7.776457e+00
2.646740e+01	-7.818304e+00
2.662028e+01	-7.860424e+00
2.677404e+01	-7.901709e+00
2.692868e+01	-7.944225e+00
2.708422e+01	-7.985898e+00
2.724066e+01	-8.028090e+00
2.739800e+01	-8.069890e+00
2.755625e+01	-8.112246e+00
2.771541e+01	-8.154852e+00
2.787550e+01	-8.196609e+00
2.803650e+01	-8.239955e+00
2.819844e+01	-8.282445e+00
2.836131e+01	-8.325096e+00
2.852513e+01	-8.367544e+00
2.868989e+01	-8.410232e+00
2.885560e+01	-8.453127e+00
2.902227e+01	-8.496402e+00
2.918990e+01	-8.539572e+00
2.935850e+01	-8.581966e+00
2.952807e+01	-8.625364e+00
2.969863e+01	-8.668592e+00
2.987016e+01	-8.711857e+00
3.004269e+01	-8.755121e+00
3.021622e+01	-8.798562e+00
3.039075e+01	-8.842190e+00
3.056628e+01	-8.885227e+00
3.074283e+01	-8.928859e+00
3.092040e+01	-8.972962e+00
3.109900e+01	-9.016589e+00
3.127862e+01	-9.060393e+00
3.145929e+01	-9.103787e+00
3.164099e+01	-9.148407e+00
3.182375e+01	-9.191575e+00
3.200756e+01	-9.236017e+00
3.219244e+01	-9.280437e+00
3.237838e+01	-9.324128e+00
3.256540e+01	-9.368674e+00
3.275349e+01	-9.412624e+00
3.294268e+01	-9.456995e+00
3.313295e+01	-9.501627e+00
3.332433e+01	-9.545505e+00
3.351681e+01	-9.590209e+00
3.371040e+01	-9.634598e+00
3.390511e+01	-9.679094e+00
3.410094e+01	-9.724504e+00
3.429791e+01	-9.768908e+00
3.449601e+01	-9.813666e+00
3.469526e+01	-9.858352e+00
3.489566e+01	-9.903634e+00
3.509721e+01	-9.947947e+00
3.529993e+01	-9.993132e+00
3.550382e+01	-1.003836e+01
3.570889e+01	-1.008377e+01
3.591515e+01	-1.012868e+01
3.612259e+01	-1.017391e+01
3.633123e+01	-1.021883e+01
3.654108e+01	-1.026418e+01
3.675214e+01	-1.030998e+01
3.696442e+01	-1.035483e+01
3.717792e+01	-1.040032e+01
3.739266e+01	-1.044596e+01
3.760864e+01	-1.049135e+01
3.782587e+01	-1.053659e+01
3.804435e+01	-1.058235e+01
3.826409e+01	-1.062811e+01
3.848510e+01	-1.067391e+01
3.870739e+01	-1.071990e+01
3.893096e+01	-1.076590e+01
3.915583e+01	-1.081182e+01
3.938199e+01	-1.085712e+01
3.960946e+01	-1.090346e+01
3.983824e+01	-1.094902e+01
4.006834e+01	-1.099524e+01
4.029978e+01	-1.104185e+01
4.053255e+01	-1.108725e+01
4.076666e+01	-1.113391e+01
4.100213e+01	-1.117986e+01
4.123896e+01	-1.122649e+01
4.147715e+01	-1.127244e+01
4.171672e+01	-1.131838e+01
4.195767e+01	-1.136559e+01
4.220002e+01	-1.141181e+01
4.244377e+01	-1.145815e+01
4.268892e+01	-1.150431e+01
4.293549e+01	-1.155048e+01
4.318348e+01	-1.159740e+01
4.343291e+01	-1.164436e+01
4.368377e+01	-1.169064e+01
4.393609e+01	-1.173733e+01
4.418986e+01	-1.178438e+01
4.444510e+01	-1.183120e+01
4.470182e+01	-1.187738e+01
4.496001e+01	-1.192476e+01
4.521970e+01	-1.197099e+01
4.548089e+01	-1.201771e+01
4.574358e+01	-1.206536e+01
4.600779e+01	-1.211214e+01
4.627353e+01	-1.215833e+01
4.654081e+01	-1.220616e+01
4.680963e+01	-1.225300e+01
4.708000e+01	-1.229966e+01
4.735193e+01	-1.234681e+01
4.762543e+01	-1.239501e+01
4.790051e+01	-1.244065e+01
4.817719e+01	-1.248808e+01
4.845545e+01	-1.253552e+01
4.873533e+01	-1.258306e+01
4.901682e+01	-1.262983e+01
4.929994e+01	-1.267754e+01
4.958470e+01	-1.272497e+01
4.987110e+01	-1.277203e+01
5.015915e+01	-1.281999e+01
5.044887e+01	-1.286724e+01
5.074026e+01	-1.291458e+01
5.103333e+01	-1.296211e+01
5.132810e+01	-1.300982e+01
5.162457e+01	-1.305667e+01
5.192275e+01	-1.310428e+01
5.222265e+01	-1.315186e+01
5.252429e+01	-1.319997e+01
5.282767e+01	-1.324596e+01
5.313280e+01	-1.329473e+01
5.343969e+01	-1.334242e+01
5.374836e+01	-1.339059e+01
5.405880e+01	-1.343887e+01
5.437105e+01	-1.348628e+01
5.468509e+01	-1.353455e+01
5.500095e+01	-1.358173e+01
5.531863e+01	-1.362965e+01
5.563815e+01	-1.367761e+01
5.595951e+01	-1.372531e+01
5.628273e+01	-1.377352e+01
5.660782e+01	-1.382096e+01
5.693479e+01	-1.386945e+01
5.726364e+01	-1.391707e+01
5.759439e+01	-1.396585e+01
5.792705e+01	-1.401299e+01
5.826164e+01	-1.406166e+01
5.859815e+01	-1.410878e+01
5.893662e+01	-1.415759e+01
5.927703e+01	-1.420559e+01
5.961941e+01	-1.425382e+01
5.996377e+01	-1.430151e+01
6.031012e+01	-1.435016e+01
6.065847e+01	-1.439776e+01
6.100883e+01	-1.444651e+01
6.136121e+01	-1.449453e+01
6.171563e+01	-1.454356e+01
6.207210e+01	-1.459072e+01
6.243063e+01	-1.464033e+01
6.279122e+01	-1.468778e+01
6.315390e+01	-1.473606e+01
6.351868e+01	-1.478477e+01
6.388556e+01	-1.483253e+01
6.425456e+01	-1.488130e+01
6.462569e+01	-1.493038e+01
6.499897e+01	-1.497883e+01
6.537440e+01	-1.502702e+01
6.575200e+01	-1.507547e+01
6.613178e+01	-1.512492e+01
6.651375e+01	-1.517238e+01
6.689793e+01	-1.522093e+01
6.728433e+01	-1.526851e+01
6.767297e+01	-1.531804e+01
6.806384e+01	-1.536641e+01
6.845698e+01	-1.541534e+01
6.885238e+01	-1.546338e+01
6.925007e+01	-1.551196e+01
6.965005e+01	-1.556071e+01
7.005235e+01	-1.560923e+01
7.045697e+01	-1.565850e+01
7.086393e+01	-1.570715e+01
7.127323e+01	-1.575497e+01
7.168490e+01	-1.580445e+01
7.209895e+01	-1.585305e+01
7.251539e+01	-1.590109e+01
7.293424e+01	-1.594950e+01
7.335551e+01	-1.599919e+01
7.377920e+01	-1.604955e+01
7.420535e+01	-1.609683e+01
7.463396e+01	-1.614523e+01
7.506504e+01	-1.619453e+01
7.549861e+01	-1.624396e+01
7.593469e+01	-1.629259e+01
7.637328e+01	-1.633986e+01
7.681441e+01	-1.638936e+01
7.725809e+01	-1.643900e+01
7.770433e+01	-1.648678e+01
7.815315e+01	-1.653609e+01
7.860456e+01	-1.658501e+01
7.905857e+01	-1.663392e+01
7.951521e+01	-1.668208e+01
7.997449e+01	-1.673107e+01
8.043642e+01	-1.678124e+01
8.090102e+01	-1.682980e+01
8.136830e+01	-1.687941e+01
8.183828e+01	-1.692720e+01
8.231097e+01	-1.697738e+01
8.278640e+01	-1.702677e+01
8.326457e+01	-1.707499e+01
8.374550e+01	-1.712381e+01
8.422921e+01	-1.717337e+01
8.471572e+01	-1.722246e+01
8.520503e+01	-1.727168e+01
8.569717e+01	-1.731988e+01
8.619215e+01	-1.736920e+01
8.669000e+01	-1.741874e+01
8.719071e+01	-1.746726e+01
8.769432e+01	-1.751752e+01
8.820084e+01	-1.756570e+01
8.871029e+01	-1.761544e+01
8.922267e+01	-1.766616e+01
8.973802e+01	-1.771296e+01
9.025634e+01	-1.776249e+01
9.077766e+01	-1.781236e+01
9.130199e+01	-1.786156e+01
9.182935e+01	-1.791004e+01
9.235975e+01	-1.796073e+01
9.289321e+01	-1.800884e+01
9.342976e+01	-1.805791e+01
9.396941e+01	-1.810795e+01
9.451217e+01	-1.815697e+01
9.505807e+01	-1.820609e+01
9.560712e+01	-1.825644e+01
9.615934e+01	-1.830464e+01
9.671476e+01	-1.835360e+01
9.727338e+01	-1.840286e+01
9.783522e+01	-1.845222e+01
9.840032e+01	-1.850315e+01
9.896867e+01	-1.855101e+01
9.954031e+01	-1.860171e+01
1.001153e+02	-1.865141e+01
1.006935e+02	-1.869833e+01
1.012751e+02	-1.874873e+01
1.018601e+02	-1.879755e+01
1.024484e+02	-1.884704e+01
1.030402e+02	-1.889784e+01
1.036353e+02	-1.894549e+01
1.042339e+02	-1.899498e+01
1.048360e+02	-1.904516e+01
1.054415e+02	-1.909363e+01
1.060505e+02	-1.914420e+01
1.066631e+02	-1.919292e+01
1.072791e+02	-1.924236e+01
1.078988e+02	-1.929223e+01
1.085220e+02	-1.934068e+01
1.091488e+02	-1.939193e+01
1.097793e+02	-1.943963e+01
1.104133e+02	-1.948889e+01
1.110511e+02	-1.953854e+01
1.116925e+02	-1.959073e+01
1.123376e+02	-1.963799e+01
1.129865e+02	-1.968753e+01
1.136391e+02	-1.973706e+01
1.142955e+02	-1.978727e+01
1.149556e+02	-1.983740e+01
1.156196e+02	-1.988754e+01
1.162874e+02	-1.993531e+01
1.169591e+02	-1.998336e+01
1.176347e+02	-2.003394e+01
1.183141e+02	-2.008357e+01
1.189975e+02	-2.013336e+01
1.196848e+02	-2.018364e+01
1.203761e+02	-2.023152e+01
1.210714e+02	-2.028263e+01
1.217707e+02	-2.033003e+01
1.224740e+02	-2.038279e+01
1.231814e+02	-2.043069e+01
1.238929e+02	-2.048123e+01
1.246085e+02	-2.053102e+01
1.253283e+02	-2.057964e+01
1.260522e+02	-2.062826e+01
1.267802e+02	-2.067921e+01
1.275125e+02	-2.072706e+01
1.282490e+02	-2.077765e+01
1.289898e+02	-2.082795e+01
1.297348e+02	-2.087769e+01
1.304842e+02	-2.092744e+01
1.312378e+02	-2.097851e+01
1.319959e+02	-2.102634e+01
1.327583e+02	-2.107568e+01
1.335251e+02	-2.112492e+01
1.342963e+02	-2.117360e+01
1.350720e+02	-2.122414e+01
1.358522e+02	-2.127615e+01
1.366368e+02	-2.132476e+01
1.374260e+02	-2.137226e+01
1.382198e+02	-2.142325e+01
1.390182e+02	-2.147354e+01
1.398211e+02	-2.152200e+01
1.406287e+02	-2.157466e+01
1.414410e+02	-2.162454e+01
1.422579e+02	-2.167060e+01
1.430796e+02	-2.172233e+01
1.439060e+02	-2.177310e+01
1.447372e+02	-2.182363e+01
1.455732e+02	-2.187015e+01
1.464141e+02	-2.192063e+01
1.472597e+02	-2.196863e+01
1.481103e+02	-2.201990e+01
1.489658e+02	-2.206929e+01
1.498262e+02	-2.211960e+01
1.506916e+02	-2.216973e+01
1.515620e+02	-2.221940e+01
1.524374e+02	-2.226933e+01
1.533179e+02	-2.231918e+01
1.542034e+02	-2.236900e+01
1.550941e+02	-2.242088e+01
1.559899e+02	-2.246627e+01
1.568909e+02	-2.251659e+01
1.577971e+02	-2.256380e+01
1.587085e+02	-2.261679e+01
1.596252e+02	-2.266674e+01
1.605472e+02	-2.271661e+01
1.614745e+02	-2.276503e+01
1.624072e+02	-2.281598e+01
1.633453e+02	-2.286546e+01
1.642887e+02	-2.291407e+01
1.652377e+02	-2.296902e+01
1.661921e+02	-2.301604e+01
1.671520e+02	-2.306311e+01
1.681175e+02	-2.311286e+01
1.690885e+02	-2.316517e+01
1.700651e+02	-2.321419e+01
1.710474e+02	-2.326174e+01
1.720354e+02	-2.331292e+01
1.730291e+02	-2.336458e+01
1.740285e+02	-2.341474e+01
1.750337e+02	-2.346591e+01
1.760446e+02	-2.351269e+01
1.770615e+02	-2.356279e+01
1.780842e+02	-2.361092e+01
1.791128e+02	-2.366458e+01
1.801473e+02	-2.371102e+01
1.811878e+02	-2.376316e+01
1.822344e+02	-2.381245e+01
1.832870e+02	-2.386184e+01
1.843456e+02	-2.391116e+01
1.854104e+02	-2.396361e+01
1.864813e+02	-2.400928e+01
1.875584e+02	-2.406148e+01
1.886418e+02	-2.411286e+01
1.897313e+02	-2.416239e+01
1.908272e+02	-2.421271e+01
1.919294e+02	-2.425936e+01
1.930380e+02	-2.431103e+01
1.941530e+02	-2.436116e+01
1.952744e+02	-2.441164e+01
1.964023e+02	-2.446280e+01
1.975367e+02	-2.450988e+01
1.986777e+02	-2.456039e+01
1.998252e+02	-2.460870e+01
2.009794e+02	-2.465902e+01
2.021403e+02	-2.471131e+01
2.033078e+02	-2.475963e+01
2.044821e+02	-2.481117e+01
2.056632e+02	-2.486007e+01
2.068511e+02	-2.490866e+01
2.080459e+02	-2.495894e+01
2.092475e+02	-2.500964e+01
2.104561e+02	-2.505975e+01
2.116717e+02	-2.510975e+01
2.128943e+02	-2.516071e+01
2.141240e+02	-2.520631e+01
2.153608e+02	-2.525891e+01
2.166047e+02	-2.531049e+01
2.178558e+02	-2.535682e+01
2.191141e+02	-2.541081e+01
2.203797e+02	-2.545944e+01
2.216526e+02	-2.551064e+01
2.229329e+02	-2.555807e+01
2.242205e+02	-2.560656e+01
2.255156e+02	-2.565647e+01
2.268182e+02	-2.570919e+01
2.281283e+02	-2.575790e+01
2.294459e+02	-2.580966e+01
2.307712e+02	-2.585974e+01
2.321041e+02	-2.590836e+01
2.334447e+02	-2.595778e+01
2.347931e+02	-2.600961e+01
2.361493e+02	-2.605759e+01
2.375133e+02	-2.610752e+01
2.388851e+02	-2.615970e+01
2.402649e+02	-2.620507e+01
2.416527e+02	-2.625652e+01
2.430484e+02	-2.630719e+01
2.444523e+02	-2.635788e+01
2.458642e+02	-2.640971e+01
2.472843e+02	-2.645736e+01
2.487126e+02	-2.650798e+01
2.501492e+02	-2.655585e+01
2.515940e+02	-2.660365e+01
2.530472e+02	-2.665641e+01
2.545088e+02	-2.670925e+01
2.559789e+02	-2.675671e+01
2.574574e+02	-2.680821e+01
2.589444e+02	-2.685964e+01
2.604401e+02	-2.690693e+01
2.619444e+02	-2.695837e+01
2.634574e+02	-2.700612e+01
2.649791e+02	-2.705880e+01
2.665096e+02	-2.711127e+01
2.680489e+02	-2.715747e+01
2.695972e+02	-2.721142e+01
2.711544e+02	-2.725768e+01
2.727205e+02	-2.731090e+01
2.742958e+02	-2.735455e+01
2.758801e+02	-2.741058e+01
2.774736e+02	-2.745721e+01
2.790762e+02	-2.750648e+01
2.806882e+02	-2.755796e+01
2.823094e+02	-2.760545e+01
2.839400e+02	-2.765853e+01
2.855800e+02	-2.770703e+01
2.872295e+02	-2.775460e+01
2.888886e+02	-2.780767e+01
2.905572e+02	-2.785293e+01
2.922354e+02	-2.790582e+01
2.939234e+02	-2.795671e+01
2.956211e+02	-2.801058e+01
2.973286e+02	-2.805298e+01
2.990459e+02	-2.810861e+01
3.007732e+02	-2.815783e+01
3.025104e+02	-2.820738e+01
3.042577e+02	-2.825880e+01
3.060151e+02	-2.830775e+01
3.077826e+02	-2.836018e+01
3.095604e+02	-2.840799e+01
3.113484e+02	-2.845663e+01
3.131467e+02	-2.850802e+01
3.149554e+02	-2.855824e+01
3.167746e+02	-2.860892e+01
3.186043e+02	-2.865929e+01
3.204445e+02	-2.870842e+01
3.222954e+02	-2.875679e+01
3.241570e+02	-2.880545e+01
3.260293e+02	-2.886138e+01
3.279124e+02	-2.890402e+01
3.298064e+02	-2.895521e+01
3.317114e+02	-2.901339e+01
3.336273e+02	-2.905809e+01
3.355544e+02	-2.910874e+01
3.374925e+02	-2.916099e+01
3.394418e+02	-2.920762e+01
3.414024e+02	-2.925936e+01
3.433744e+02	-2.930782e+01
3.453577e+02	-2.935452e+01
3.473525e+02	-2.940876e+01
3.493588e+02	-2.946067e+01
3.513766e+02	-2.951031e+01
3.534062e+02	-2.955916e+01
3.554474e+02	-2.960817e+01
3.575005e+02	-2.965940e+01
3.595654e+02	-2.971203e+01
3.616422e+02	-2.976128e+01
3.637311e+02	-2.980771e+01
3.658320e+02	-2.985758e+01
3.679450e+02	-2.991158e+01
3.700702e+02	-2.995989e+01
3.722077e+02	-3.000962e+01
3.743576e+02	-3.006000e+01
3.765199e+02	-3.011009e+01
3.786946e+02	-3.016510e+01
3.808820e+02	-3.021218e+01
3.830819e+02	-3.025860e+01
3.852946e+02	-3.031138e+01
3.875200e+02	-3.036553e+01
3.897583e+02	-3.041134e+01
3.920096e+02	-3.046553e+01
3.942738e+02	-3.051272e+01
3.965511e+02	-3.056039e+01
3.988416e+02	-3.061411e+01
4.011452e+02	-3.066442e+01
4.034622e+02	-3.070897e+01
4.057926e+02	-3.076280e+01
4.081365e+02	-3.080778e+01
4.104938e+02	-3.085772e+01
4.128648e+02	-3.090942e+01
4.152495e+02	-3.095962e+01
4.176480e+02	-3.100978e+01
4.200603e+02	-3.106517e+01
4.224866e+02	-3.111223e+01
4.249268e+02	-3.116359e+01
4.273812e+02	-3.120579e+01
4.298497e+02	-3.125286e+01
4.323325e+02	-3.131273e+01
4.348297e+02	-3.136072e+01
4.373412e+02	-3.141651e+01
4.398673e+02	-3.146091e+01
4.424079e+02	-3.151415e+01
4.449633e+02	-3.156862e+01
4.475334e+02	-3.161740e+01
4.501183e+02	-3.166452e+01
4.527182e+02	-3.171391e+01
4.553330e+02	-3.176109e+01
4.579630e+02	-3.181559e+01
4.606082e+02	-3.186832e+01
4.632687e+02	-3.192184e+01
4.659445e+02	-3.196457e+01
4.686358e+02	-3.201516e+01
4.713426e+02	-3.206258e+01
4.740650e+02	-3.211244e+01
4.768032e+02	-3.216950e+01
4.795572e+02	-3.221843e+01
4.823271e+02	-3.226136e+01
4.851130e+02	-3.231738e+01
4.879150e+02	-3.236871e+01
4.907332e+02	-3.241546e+01
4.935676e+02	-3.246666e+01
4.964185e+02	-3.251704e+01
4.992858e+02	-3.256086e+01
5.021696e+02	-3.261493e+01
5.050701e+02	-3.266548e+01
5.079874e+02	-3.271490e+01
5.109215e+02	-3.276477e+01
5.138726e+02	-3.281863e+01
5.168407e+02	-3.286766e+01
5.198259e+02	-3.291888e+01
5.228284e+02	-3.296659e+01
5.258482e+02	-3.301976e+01
5.288855e+02	-3.306569e+01
5.319403e+02	-3.311736e+01
5.350128e+02	-3.316686e+01
5.381030e+02	-3.321838e+01
5.412111e+02	-3.326176e+01
5.443371e+02	-3.331894e+01
5.474812e+02	-3.336603e+01
5.506434e+02	-3.342494e+01
5.538239e+02	-3.347492e+01
5.570228e+02	-3.352241e+01
5.602401e+02	-3.357006e+01
5.634760e+02	-3.362116e+01
5.667306e+02	-3.366469e+01
5.700040e+02	-3.372851e+01
5.732964e+02	-3.377957e+01
5.766077e+02	-3.381898e+01
5.799382e+02	-3.386852e+01
5.832879e+02	-3.391895e+01
5.866569e+02	-3.396917e+01
5.900454e+02	-3.402046e+01
5.934535e+02	-3.406864e+01
5.968813e+02	-3.412392e+01
6.003288e+02	-3.417591e+01
6.037963e+02	-3.422229e+01
6.072838e+02	-3.427387e+01
6.107914e+02	-3.432970e+01
6.143194e+02	-3.436798e+01
6.178676e+02	-3.442891e+01
6.214364e+02	-3.447971e+01
6.250258e+02	-3.452452e+01
6.286359e+02	-3.457537e+01
6.322669e+02	-3.462977e+01
6.359189e+02	-3.467563e+01
6.395919e+02	-3.472205e+01
6.432862e+02	-3.477896e+01
6.470017e+02	-3.483029e+01
6.507388e+02	-3.487313e+01
6.544974e+02	-3.493283e+01
6.582778e+02	-3.498169e+01
6.620800e+02	-3.503413e+01
6.659041e+02	-3.507641e+01
6.697504e+02	-3.512943e+01
6.736188e+02	-3.518913e+01
6.775096e+02	-3.522940e+01
6.814229e+02	-3.528888e+01
6.853587e+02	-3.533264e+01
6.893173e+02	-3.537558e+01
6.932988e+02	-3.542559e+01
6.973033e+02	-3.548001e+01
7.013309e+02	-3.553930e+01
