Frequency(Hz)	Magnitude(dB)
1.000000e+01	-1.534004e-05
1.005776e+01	-1.551776e-05
1.011585e+01	-1.569754e-05
1.017428e+01	-1.587940e-05
1.023305e+01	-1.606336e-05
1.029215e+01	-1.624946e-05
1.035160e+01	-1.643772e-05
1.041139e+01	-1.662815e-05
1.047153e+01	-1.682079e-05
1.053201e+01	-1.701567e-05
1.059284e+01	-1.721280e-05
1.065403e+01	-1.741221e-05
1.071556e+01	-1.761394e-05
1.077746e+01	-1.781800e-05
1.083971e+01	-1.802443e-05
1.090232e+01	-1.823324e-05
1.096529e+01	-1.844448e-05
1.102862e+01	-1.865816e-05
1.109232e+01	-1.887432e-05
1.115639e+01	-1.909299e-05
1.122083e+01	-1.931418e-05
1.128564e+01	-1.953794e-05
1.135083e+01	-1.976430e-05
1.141639e+01	-1.999327e-05
1.148233e+01	-2.022490e-05
1.154865e+01	-2.045921e-05
1.161536e+01	-2.069623e-05
1.168245e+01	-2.093600e-05
1.174992e+01	-2.117855e-05
1.181779e+01	-2.142391e-05
1.188605e+01	-2.167211e-05
1.195470e+01	-2.192319e-05
1.202375e+01	-2.217718e-05
1.209320e+01	-2.243410e-05
1.216305e+01	-2.269401e-05
1.223330e+01	-2.295692e-05
1.230396e+01	-2.322289e-05
1.237503e+01	-2.349193e-05
1.244651e+01	-2.376409e-05
1.251840e+01	-2.403940e-05
1.259070e+01	-2.431790e-05
1.266343e+01	-2.459963e-05
1.273657e+01	-2.488463e-05
1.281014e+01	-2.517292e-05
1.288413e+01	-2.546455e-05
1.295855e+01	-2.575957e-05
1.303339e+01	-2.605800e-05
1.310867e+01	-2.635989e-05
1.318439e+01	-2.666527e-05
1.326054e+01	-2.697420e-05
1.333713e+01	-2.728670e-05
1.341417e+01	-2.760282e-05
1.349165e+01	-2.792261e-05
1.356958e+01	-2.824610e-05
1.364795e+01	-2.857334e-05
1.372678e+01	-2.890437e-05
1.380607e+01	-2.923923e-05
1.388581e+01	-2.957797e-05
1.396602e+01	-2.992064e-05
1.404668e+01	-3.026728e-05
1.412782e+01	-3.061793e-05
1.420942e+01	-3.097265e-05
1.429149e+01	-3.133147e-05
1.437404e+01	-3.169446e-05
1.445706e+01	-3.206164e-05
1.454057e+01	-3.243309e-05
1.462455e+01	-3.280883e-05
1.470902e+01	-3.318893e-05
1.479398e+01	-3.357343e-05
1.487943e+01	-3.396239e-05
1.496537e+01	-3.435585e-05
1.505181e+01	-3.475387e-05
1.513875e+01	-3.515650e-05
1.522619e+01	-3.556380e-05
1.531414e+01	-3.597581e-05
1.540259e+01	-3.639260e-05
1.549156e+01	-3.681422e-05
1.558103e+01	-3.724072e-05
1.567103e+01	-3.767216e-05
1.576155e+01	-3.810860e-05
1.585258e+01	-3.855010e-05
1.594415e+01	-3.899671e-05
1.603624e+01	-3.944850e-05
1.612886e+01	-3.990551e-05
1.622202e+01	-4.036783e-05
1.631572e+01	-4.083550e-05
1.640996e+01	-4.130859e-05
1.650474e+01	-4.178716e-05
1.660008e+01	-4.227127e-05
1.669596e+01	-4.276099e-05
1.679239e+01	-4.325639e-05
1.688938e+01	-4.375752e-05
1.698694e+01	-4.426446e-05
1.708505e+01	-4.477728e-05
1.718373e+01	-4.529603e-05
1.728299e+01	-4.582080e-05
1.738281e+01	-4.635164e-05
1.748322e+01	-4.688863e-05
1.758420e+01	-4.743185e-05
1.768576e+01	-4.798136e-05
1.778792e+01	-4.853723e-05
1.789066e+01	-4.909955e-05
1.799399e+01	-4.966837e-05
1.809793e+01	-5.024379e-05
1.820246e+01	-5.082588e-05
1.830760e+01	-5.141471e-05
1.841334e+01	-5.201036e-05
1.851969e+01	-5.261291e-05
1.862666e+01	-5.322244e-05
1.873425e+01	-5.383903e-05
1.884246e+01	-5.446277e-05
1.895129e+01	-5.509373e-05
1.906075e+01	-5.573200e-05
1.917085e+01	-5.637767e-05
1.928158e+01	-5.703082e-05
1.939295e+01	-5.769153e-05
1.950496e+01	-5.835990e-05
1.961762e+01	-5.903601e-05
1.973093e+01	-5.971995e-05
1.984490e+01	-6.041182e-05
1.995952e+01	-6.111170e-05
2.007480e+01	-6.181970e-05
2.019076e+01	-6.253589e-05
2.030738e+01	-6.326038e-05
2.042467e+01	-6.399326e-05
2.054264e+01	-6.473464e-05
2.066130e+01	-6.548460e-05
2.078064e+01	-6.624325e-05
2.090066e+01	-6.701069e-05
2.102139e+01	-6.778702e-05
2.114280e+01	-6.857235e-05
2.126492e+01	-6.936677e-05
2.138775e+01	-7.017040e-05
2.151128e+01	-7.098334e-05
2.163553e+01	-7.180569e-05
2.176050e+01	-7.263758e-05
2.188619e+01	-7.347909e-05
2.201260e+01	-7.433036e-05
2.213974e+01	-7.519149e-05
2.226762e+01	-7.606260e-05
2.239624e+01	-7.694380e-05
2.252560e+01	-7.783521e-05
2.265571e+01	-7.873694e-05
2.278656e+01	-7.964912e-05
2.291818e+01	-8.057187e-05
2.305055e+01	-8.150531e-05
2.318369e+01	-8.244956e-05
2.331760e+01	-8.340475e-05
2.345228e+01	-8.437101e-05
2.358774e+01	-8.534846e-05
2.372398e+01	-8.633724e-05
2.386101e+01	-8.733747e-05
2.399883e+01	-8.834929e-05
2.413745e+01	-8.937283e-05
2.427686e+01	-9.040823e-05
2.441709e+01	-9.145562e-05
2.455812e+01	-9.251515e-05
2.469997e+01	-9.358695e-05
2.484263e+01	-9.467117e-05
2.498612e+01	-9.576795e-05
2.513044e+01	-9.687744e-05
2.527559e+01	-9.799978e-05
2.542158e+01	-9.913512e-05
2.556842e+01	-1.002836e-04
2.571610e+01	-1.014454e-04
2.586463e+01	-1.026207e-04
2.601403e+01	-1.038095e-04
2.616428e+01	-1.050122e-04
2.631541e+01	-1.062288e-04
2.646740e+01	-1.074595e-04
2.662028e+01	-1.087044e-04
2.677404e+01	-1.099637e-04
2.692868e+01	-1.112377e-04
2.708422e+01	-1.125264e-04
2.724066e+01	-1.138300e-04
2.739800e+01	-1.151488e-04
2.755625e+01	-1.164828e-04
2.771541e+01	-1.178322e-04
2.787550e+01	-1.191973e-04
2.803650e+01	-1.205783e-04
2.819844e+01	-1.219752e-04
2.836131e+01	-1.233883e-04
2.852513e+01	-1.248177e-04
2.868989e+01	-1.262638e-04
2.885560e+01	-1.277265e-04
2.902227e+01	-1.292063e-04
2.918990e+01	-1.307031e-04
2.935850e+01	-1.322173e-04
2.952807e+01	-1.337491e-04
2.969863e+01	-1.352986e-04
2.987016e+01	-1.368660e-04
3.004269e+01	-1.384516e-04
3.021622e+01	-1.400556e-04
3.039075e+01	-1.416782e-04
3.056628e+01	-1.433195e-04
3.074283e+01	-1.449799e-04
3.092040e+01	-1.466595e-04
3.109900e+01	-1.483586e-04
3.127862e+01	-1.500773e-04
3.145929e+01	-1.518160e-04
3.164099e+01	-1.535748e-04
3.182375e+01	-1.553539e-04
3.200756e+01	-1.571537e-04
3.219244e+01	-1.589744e-04
3.237838e+01	-1.608161e-04
3.256540e+01	-1.626792e-04
3.275349e+01	-1.645638e-04
3.294268e+01	-1.664703e-04
3.313295e+01	-1.683988e-04
3.332433e+01	-1.703498e-04
3.351681e+01	-1.723233e-04
3.371040e+01	-1.743196e-04
3.390511e+01	-1.763391e-04
3.410094e+01	-1.783820e-04
3.429791e+01	-1.804486e-04
3.449601e+01	-1.825391e-04
3.469526e+01	-1.846538e-04
3.489566e+01	-1.867930e-04
3.509721e+01	-1.889570e-04
3.529993e+01	-1.911461e-04
3.550382e+01	-1.933605e-04
3.570889e+01	-1.956006e-04
3.591515e+01	-1.978667e-04
3.612259e+01	-2.001590e-04
3.633123e+01	-2.024778e-04
3.654108e+01	-2.048235e-04
3.675214e+01	-2.071964e-04
3.696442e+01	-2.095968e-04
3.717792e+01	-2.120249e-04
3.739266e+01	-2.144812e-04
3.760864e+01	-2.169660e-04
3.782587e+01	-2.194796e-04
3.804435e+01	-2.220222e-04
3.826409e+01	-2.245943e-04
3.848510e+01	-2.271963e-04
3.870739e+01	-2.298283e-04
3.893096e+01	-2.324909e-04
3.915583e+01	-2.351843e-04
3.938199e+01	-2.379089e-04
3.960946e+01	-2.406650e-04
3.983824e+01	-2.434531e-04
4.006834e+01	-2.462735e-04
4.029978e+01	-2.491266e-04
4.053255e+01	-2.520127e-04
4.076666e+01	-2.549323e-04
4.100213e+01	-2.578856e-04
4.123896e+01	-2.608732e-04
4.147715e+01	-2.638954e-04
4.171672e+01	-2.669526e-04
4.195767e+01	-2.700453e-04
4.220002e+01	-2.731737e-04
4.244377e+01	-2.763384e-04
4.268892e+01	-2.795398e-04
4.293549e+01	-2.827782e-04
4.318348e+01	-2.860541e-04
4.343291e+01	-2.893681e-04
4.368377e+01	-2.927204e-04
4.393609e+01	-2.961115e-04
4.418986e+01	-2.995419e-04
4.444510e+01	-3.030121e-04
4.470182e+01	-3.065224e-04
4.496001e+01	-3.100734e-04
4.521970e+01	-3.136656e-04
4.548089e+01	-3.172994e-04
4.574358e+01	-3.209752e-04
4.600779e+01	-3.246937e-04
4.627353e+01	-3.284552e-04
4.654081e+01	-3.322603e-04
4.680963e+01	-3.361095e-04
4.708000e+01	-3.400032e-04
4.735193e+01	-3.439421e-04
4.762543e+01	-3.479266e-04
4.790051e+01	-3.519573e-04
4.817719e+01	-3.560346e-04
4.845545e+01	-3.601592e-04
4.873533e+01	-3.643316e-04
4.901682e+01	-3.685523e-04
4.929994e+01	-3.728219e-04
4.958470e+01	-3.771410e-04
4.987110e+01	-3.815100e-04
5.015915e+01	-3.859298e-04
5.044887e+01	-3.904007e-04
5.074026e+01	-3.949233e-04
5.103333e+01	-3.994984e-04
5.132810e+01	-4.041265e-04
5.162457e+01	-4.088082e-04
5.192275e+01	-4.135441e-04
5.222265e+01	-4.183349e-04
5.252429e+01	-4.231812e-04
5.282767e+01	-4.280837e-04
5.313280e+01	-4.330429e-04
5.343969e+01	-4.380595e-04
5.374836e+01	-4.431343e-04
5.405880e+01	-4.482679e-04
5.437105e+01	-4.534609e-04
5.468509e+01	-4.587141e-04
5.500095e+01	-4.640282e-04
5.531863e+01	-4.694038e-04
5.563815e+01	-4.748417e-04
5.595951e+01	-4.803425e-04
5.628273e+01	-4.859071e-04
5.660782e+01	-4.915362e-04
5.693479e+01	-4.972304e-04
5.726364e+01	-5.029906e-04
5.759439e+01	-5.088176e-04
5.792705e+01	-5.147120e-04
5.826164e+01	-5.206747e-04
5.859815e+01	-5.267065e-04
5.893662e+01	-5.328082e-04
5.927703e+01	-5.389806e-04
5.961941e+01	-5.452244e-04
5.996377e+01	-5.515406e-04
6.031012e+01	-5.579299e-04
6.065847e+01	-5.643933e-04
6.100883e+01	-5.709315e-04
6.136121e+01	-5.775454e-04
6.171563e+01	-5.842360e-04
6.207210e+01	-5.910041e-04
6.243063e+01	-5.978506e-04
6.279122e+01	-6.047763e-04
6.315390e+01	-6.117824e-04
6.351868e+01	-6.188695e-04
6.388556e+01	-6.260388e-04
6.425456e+01	-6.332911e-04
6.462569e+01	-6.406274e-04
6.499897e+01	-6.480487e-04
6.537440e+01	-6.555559e-04
6.575200e+01	-6.631502e-04
6.613178e+01	-6.708323e-04
6.651375e+01	-6.786035e-04
6.689793e+01	-6.864647e-04
6.728433e+01	-6.944169e-04
6.767297e+01	-7.024613e-04
6.806384e+01	-7.105988e-04
6.845698e+01	-7.188306e-04
6.885238e+01	-7.271578e-04
6.925007e+01	-7.355814e-04
6.965005e+01	-7.441026e-04
7.005235e+01	-7.527225e-04
7.045697e+01	-7.614422e-04
7.086393e+01	-7.702629e-04
7.127323e+01	-7.791858e-04
7.168490e+01	-7.882121e-04
7.209895e+01	-7.973429e-04
7.251539e+01	-8.065795e-04
7.293424e+01	-8.159231e-04
7.335551e+01	-8.253749e-04
7.377920e+01	-8.349361e-04
7.420535e+01	-8.446082e-04
7.463396e+01	-8.543922e-04
7.506504e+01	-8.642896e-04
7.549861e+01	-8.743016e-04
7.593469e+01	-8.844296e-04
7.637328e+01	-8.946749e-04
7.681441e+01	-9.050389e-04
7.725809e+01	-9.155229e-04
7.770433e+01	-9.261284e-04
7.815315e+01	-9.368566e-04
7.860456e+01	-9.477092e-04
7.905857e+01	-9.586875e-04
7.951521e+01	-9.697929e-04
7.997449e+01	-9.810269e-04
8.043642e+01	-9.923911e-04
8.090102e+01	-1.003887e-03
8.136830e+01	-1.015516e-03
8.183828e+01	-1.027279e-03
8.231097e+01	-1.039179e-03
8.278640e+01	-1.051217e-03
8.326457e+01	-1.063394e-03
8.374550e+01	-1.075712e-03
8.422921e+01	-1.088173e-03
8.471572e+01	-1.100778e-03
8.520503e+01	-1.113530e-03
8.569717e+01	-1.126428e-03
8.619215e+01	-1.139477e-03
8.669000e+01	-1.152676e-03
8.719071e+01	-1.166028e-03
8.769432e+01	-1.179535e-03
8.820084e+01	-1.193199e-03
8.871029e+01	-1.207020e-03
8.922267e+01	-1.221002e-03
8.973802e+01	-1.235146e-03
9.025634e+01	-1.249453e-03
9.077766e+01	-1.263926e-03
9.130199e+01	-1.278567e-03
9.182935e+01	-1.293377e-03
9.235975e+01	-1.308359e-03
9.289321e+01	-1.323515e-03
9.342976e+01	-1.338845e-03
9.396941e+01	-1.354354e-03
9.451217e+01	-1.370042e-03
9.505807e+01	-1.385912e-03
9.560712e+01	-1.401965e-03
9.615934e+01	-1.418205e-03
9.671476e+01	-1.434632e-03
9.727338e+01	-1.451250e-03
9.783522e+01	-1.468061e-03
9.840032e+01	-1.485066e-03
9.896867e+01	-1.502267e-03
9.954031e+01	-1.519669e-03
1.001153e+02	-1.537271e-03
1.006935e+02	-1.555078e-03
1.012751e+02	-1.573090e-03
1.018601e+02	-1.591312e-03
1.024484e+02	-1.609744e-03
1.030402e+02	-1.628390e-03
1.036353e+02	-1.647252e-03
1.042339e+02	-1.666332e-03
1.048360e+02	-1.685633e-03
1.054415e+02	-1.705158e-03
1.060505e+02	-1.724909e-03
1.066631e+02	-1.744888e-03
1.072791e+02	-1.765099e-03
1.078988e+02	-1.785544e-03
1.085220e+02	-1.806226e-03
1.091488e+02	-1.827147e-03
1.097793e+02	-1.848310e-03
1.104133e+02	-1.869719e-03
1.110511e+02	-1.891375e-03
1.116925e+02	-1.913283e-03
1.123376e+02	-1.935443e-03
1.129865e+02	-1.957861e-03
1.136391e+02	-1.980538e-03
1.142955e+02	-2.003478e-03
1.149556e+02	-2.026683e-03
1.156196e+02	-2.050157e-03
1.162874e+02	-2.073903e-03
1.169591e+02	-2.097924e-03
1.176347e+02	-2.122223e-03
1.183141e+02	-2.146804e-03
1.189975e+02	-2.171669e-03
1.196848e+02	-2.196822e-03
1.203761e+02	-2.222266e-03
1.210714e+02	-2.248005e-03
1.217707e+02	-2.274042e-03
1.224740e+02	-2.300380e-03
1.231814e+02	-2.327024e-03
1.238929e+02	-2.353976e-03
1.246085e+02	-2.381240e-03
1.253283e+02	-2.408819e-03
1.260522e+02	-2.436718e-03
1.267802e+02	-2.464940e-03
1.275125e+02	-2.493489e-03
1.282490e+02	-2.522368e-03
1.289898e+02	-2.551582e-03
1.297348e+02	-2.581134e-03
1.304842e+02	-2.611028e-03
1.312378e+02	-2.641268e-03
1.319959e+02	-2.671859e-03
1.327583e+02	-2.702803e-03
1.335251e+02	-2.734106e-03
1.342963e+02	-2.765771e-03
1.350720e+02	-2.797803e-03
1.358522e+02	-2.830206e-03
1.366368e+02	-2.862984e-03
1.374260e+02	-2.896141e-03
1.382198e+02	-2.929682e-03
1.390182e+02	-2.963612e-03
1.398211e+02	-2.997934e-03
1.406287e+02	-3.032654e-03
1.414410e+02	-3.067775e-03
1.422579e+02	-3.103304e-03
1.430796e+02	-3.139243e-03
1.439060e+02	-3.175599e-03
1.447372e+02	-3.212375e-03
1.455732e+02	-3.249578e-03
1.464141e+02	-3.287211e-03
1.472597e+02	-3.325279e-03
1.481103e+02	-3.363789e-03
1.489658e+02	-3.402744e-03
1.498262e+02	-3.442150e-03
1.506916e+02	-3.482012e-03
1.515620e+02	-3.522336e-03
1.524374e+02	-3.563126e-03
1.533179e+02	-3.604388e-03
1.542034e+02	-3.646129e-03
1.550941e+02	-3.688352e-03
1.559899e+02	-3.731064e-03
1.568909e+02	-3.774271e-03
1.577971e+02	-3.817977e-03
1.587085e+02	-3.862190e-03
1.596252e+02	-3.906914e-03
1.605472e+02	-3.952156e-03
1.614745e+02	-3.997922e-03
1.624072e+02	-4.044217e-03
1.633453e+02	-4.091048e-03
1.642887e+02	-4.138422e-03
1.652377e+02	-4.186343e-03
1.661921e+02	-4.234819e-03
1.671520e+02	-4.283857e-03
1.681175e+02	-4.333461e-03
1.690885e+02	-4.383640e-03
1.700651e+02	-4.434400e-03
1.710474e+02	-4.485747e-03
1.720354e+02	-4.537688e-03
1.730291e+02	-4.590231e-03
1.740285e+02	-4.643381e-03
1.750337e+02	-4.697147e-03
1.760446e+02	-4.751535e-03
1.770615e+02	-4.806552e-03
1.780842e+02	-4.862206e-03
1.791128e+02	-4.918504e-03
1.801473e+02	-4.975453e-03
1.811878e+02	-5.033062e-03
1.822344e+02	-5.091337e-03
1.832870e+02	-5.150286e-03
1.843456e+02	-5.209918e-03
1.854104e+02	-5.270239e-03
1.864813e+02	-5.331259e-03
1.875584e+02	-5.392984e-03
1.886418e+02	-5.455424e-03
1.897313e+02	-5.518586e-03
1.908272e+02	-5.582479e-03
1.919294e+02	-5.647112e-03
1.930380e+02	-5.712492e-03
1.941530e+02	-5.778628e-03
1.952744e+02	-5.845530e-03
1.964023e+02	-5.913206e-03
1.975367e+02	-5.981664e-03
1.986777e+02	-6.050915e-03
1.998252e+02	-6.120967e-03
2.009794e+02	-6.191829e-03
2.021403e+02	-6.263511e-03
2.033078e+02	-6.336023e-03
2.044821e+02	-6.409373e-03
2.056632e+02	-6.483571e-03
2.068511e+02	-6.558628e-03
2.080459e+02	-6.634554e-03
2.092475e+02	-6.711357e-03
2.104561e+02	-6.789049e-03
2.116717e+02	-6.867639e-03
2.128943e+02	-6.947139e-03
2.141240e+02	-7.027558e-03
2.153608e+02	-7.108907e-03
2.166047e+02	-7.191197e-03
2.178558e+02	-7.274439e-03
2.191141e+02	-7.358644e-03
2.203797e+02	-7.443822e-03
2.216526e+02	-7.529986e-03
2.229329e+02	-7.617146e-03
2.242205e+02	-7.705314e-03
2.255156e+02	-7.794502e-03
2.268182e+02	-7.884721e-03
2.281283e+02	-7.975983e-03
2.294459e+02	-8.068301e-03
2.307712e+02	-8.161686e-03
2.321041e+02	-8.256151e-03
2.334447e+02	-8.351709e-03
2.347931e+02	-8.448371e-03
2.361493e+02	-8.546151e-03
2.375133e+02	-8.645061e-03
2.388851e+02	-8.745115e-03
2.402649e+02	-8.846326e-03
2.416527e+02	-8.948707e-03
2.430484e+02	-9.052272e-03
2.444523e+02	-9.157034e-03
2.458642e+02	-9.263007e-03
2.472843e+02	-9.370205e-03
2.487126e+02	-9.478642e-03
2.501492e+02	-9.588333e-03
2.515940e+02	-9.699292e-03
2.530472e+02	-9.811533e-03
2.545088e+02	-9.925072e-03
2.559789e+02	-1.003992e-02
2.574574e+02	-1.015610e-02
2.589444e+02	-1.027362e-02
2.604401e+02	-1.039250e-02
2.619444e+02	-1.051276e-02
2.634574e+02	-1.063440e-02
2.649791e+02	-1.075745e-02
2.665096e+02	-1.088192e-02
2.680489e+02	-1.100783e-02
2.695972e+02	-1.113519e-02
2.711544e+02	-1.126403e-02
2.727205e+02	-1.139436e-02
2.742958e+02	-1.152619e-02
2.758801e+02	-1.165954e-02
2.774736e+02	-1.179443e-02
2.790762e+02	-1.193089e-02
2.806882e+02	-1.206892e-02
2.823094e+02	-1.220854e-02
2.839400e+02	-1.234978e-02
2.855800e+02	-1.249265e-02
2.872295e+02	-1.263717e-02
2.888886e+02	-1.278336e-02
2.905572e+02	-1.293123e-02
2.922354e+02	-1.308082e-02
2.939234e+02	-1.323213e-02
2.956211e+02	-1.338519e-02
2.973286e+02	-1.354002e-02
2.990459e+02	-1.369664e-02
3.007732e+02	-1.385506e-02
3.025104e+02	-1.401532e-02
3.042577e+02	-1.417742e-02
3.060151e+02	-1.434140e-02
3.077826e+02	-1.450727e-02
3.095604e+02	-1.467505e-02
3.113484e+02	-1.484478e-02
3.131467e+02	-1.501646e-02
3.149554e+02	-1.519012e-02
3.167746e+02	-1.536579e-02
3.186043e+02	-1.554349e-02
3.204445e+02	-1.572324e-02
3.222954e+02	-1.590506e-02
3.241570e+02	-1.608898e-02
3.260293e+02	-1.627502e-02
3.279124e+02	-1.646322e-02
3.298064e+02	-1.665358e-02
3.317114e+02	-1.684614e-02
3.336273e+02	-1.704092e-02
3.355544e+02	-1.723795e-02
3.374925e+02	-1.743726e-02
3.394418e+02	-1.763886e-02
3.414024e+02	-1.784279e-02
3.433744e+02	-1.804907e-02
3.453577e+02	-1.825773e-02
3.473525e+02	-1.846880e-02
3.493588e+02	-1.868231e-02
3.513766e+02	-1.889827e-02
3.534062e+02	-1.911673e-02
3.554474e+02	-1.933771e-02
3.575005e+02	-1.956123e-02
3.595654e+02	-1.978734e-02
3.616422e+02	-2.001605e-02
3.637311e+02	-2.024740e-02
3.658320e+02	-2.048141e-02
3.679450e+02	-2.071813e-02
3.700702e+02	-2.095757e-02
3.722077e+02	-2.119978e-02
3.743576e+02	-2.144477e-02
3.765199e+02	-2.169259e-02
3.786946e+02	-2.194327e-02
3.808820e+02	-2.219684e-02
3.830819e+02	-2.245333e-02
3.852946e+02	-2.271277e-02
3.875200e+02	-2.297521e-02
3.897583e+02	-2.324066e-02
3.920096e+02	-2.350918e-02
3.942738e+02	-2.378079e-02
3.965511e+02	-2.405553e-02
3.988416e+02	-2.433344e-02
4.011452e+02	-2.461455e-02
4.034622e+02	-2.489889e-02
4.057926e+02	-2.518651e-02
4.081365e+02	-2.547745e-02
4.104938e+02	-2.577173e-02
4.128648e+02	-2.606940e-02
4.152495e+02	-2.637051e-02
4.176480e+02	-2.667507e-02
4.200603e+02	-2.698315e-02
4.224866e+02	-2.729477e-02
4.249268e+02	-2.760998e-02
4.273812e+02	-2.792881e-02
4.298497e+02	-2.825132e-02
4.323325e+02	-2.857754e-02
4.348297e+02	-2.890751e-02
4.373412e+02	-2.924128e-02
4.398673e+02	-2.957889e-02
4.424079e+02	-2.992039e-02
4.449633e+02	-3.026581e-02
4.475334e+02	-3.061521e-02
4.501183e+02	-3.096862e-02
4.527182e+02	-3.132611e-02
4.553330e+02	-3.168770e-02
4.579630e+02	-3.205345e-02
4.606082e+02	-3.242341e-02
4.632687e+02	-3.279762e-02
4.659445e+02	-3.317613e-02
4.686358e+02	-3.355900e-02
4.713426e+02	-3.394626e-02
4.740650e+02	-3.433798e-02
4.768032e+02	-3.473420e-02
4.795572e+02	-3.513497e-02
4.823271e+02	-3.554035e-02
4.851130e+02	-3.595038e-02
4.879150e+02	-3.636513e-02
4.907332e+02	-3.678464e-02
4.935676e+02	-3.720897e-02
4.964185e+02	-3.763817e-02
4.992858e+02	-3.807230e-02
5.021696e+02	-3.851142e-02
5.050701e+02	-3.895558e-02
5.079874e+02	-3.940483e-02
5.109215e+02	-3.985925e-02
5.138726e+02	-4.031888e-02
5.168407e+02	-4.078379e-02
5.198259e+02	-4.125403e-02
5.228284e+02	-4.172966e-02
5.258482e+02	-4.221076e-02
5.288855e+02	-4.269737e-02
5.319403e+02	-4.318956e-02
5.350128e+02	-4.368740e-02
5.381030e+02	-4.419095e-02
5.412111e+02	-4.470028e-02
5.443371e+02	-4.521544e-02
5.474812e+02	-4.573651e-02
5.506434e+02	-4.626355e-02
5.538239e+02	-4.679663e-02
5.570228e+02	-4.733582e-02
5.602401e+02	-4.788119e-02
5.634760e+02	-4.843280e-02
5.667306e+02	-4.899074e-02
5.700040e+02	-4.955507e-02
5.732964e+02	-5.012585e-02
5.766077e+02	-5.070318e-02
5.799382e+02	-5.128711e-02
5.832879e+02	-5.187773e-02
5.866569e+02	-5.247511e-02
5.900454e+02	-5.307933e-02
5.934535e+02	-5.369046e-02
5.968813e+02	-5.430858e-02
6.003288e+02	-5.493378e-02
6.037963e+02	-5.556612e-02
6.072838e+02	-5.620570e-02
6.107914e+02	-5.685259e-02
6.143194e+02	-5.750687e-02
6.178676e+02	-5.816863e-02
6.214364e+02	-5.883796e-02
6.250258e+02	-5.951494e-02
6.286359e+02	-6.019965e-02
6.322669e+02	-6.089218e-02
6.359189e+02	-6.159263e-02
6.395919e+02	-6.230107e-02
6.432862e+02	-6.301760e-02
6.470017e+02	-6.374232e-02
6.507388e+02	-6.447530e-02
6.544974e+02	-6.521665e-02
6.582778e+02	-6.596646e-02
6.620800e+02	-6.672482e-02
6.659041e+02	-6.749184e-02
6.697504e+02	-6.826760e-02
6.736188e+02	-6.905221e-02
6.775096e+02	-6.984576e-02
6.814229e+02	-7.064835e-02
6.853587e+02	-7.146010e-02
6.893173e+02	-7.228109e-02
6.932988e+02	-7.311143e-02
6.973033e+02	-7.395124e-02
7.013309e+02	-7.480060e-02
