Frequency(Hz)	Magnitude(dB)
1.000000e+01	-2.148432e+00
1.005776e+01	-2.168015e+00
1.011585e+01	-2.187610e+00
1.017428e+01	-2.207645e+00
1.023305e+01	-2.227650e+00
1.029215e+01	-2.247762e+00
1.035160e+01	-2.268074e+00
1.041139e+01	-2.288383e+00
1.047153e+01	-2.308918e+00
1.053201e+01	-2.329714e+00
1.059284e+01	-2.350532e+00
1.065403e+01	-2.371404e+00
1.071556e+01	-2.392820e+00
1.077746e+01	-2.413931e+00
1.083971e+01	-2.435472e+00
1.090232e+01	-2.456991e+00
1.096529e+01	-2.478524e+00
1.102862e+01	-2.500369e+00
1.109232e+01	-2.522446e+00
1.115639e+01	-2.544409e+00
1.122083e+01	-2.566800e+00
1.128564e+01	-2.589231e+00
1.135083e+01	-2.611691e+00
1.141639e+01	-2.634276e+00
1.148233e+01	-2.657176e+00
1.154865e+01	-2.680303e+00
1.161536e+01	-2.703353e+00
1.168245e+01	-2.726599e+00
1.174992e+01	-2.749625e+00
1.181779e+01	-2.773640e+00
1.188605e+01	-2.797035e+00
1.195470e+01	-2.821032e+00
1.202375e+01	-2.844833e+00
1.209320e+01	-2.869070e+00
1.216305e+01	-2.893194e+00
1.223330e+01	-2.917648e+00
1.230396e+01	-2.942366e+00
1.237503e+01	-2.966956e+00
1.244651e+01	-2.991472e+00
1.251840e+01	-3.016707e+00
1.259070e+01	-3.041912e+00
1.266343e+01	-3.067050e+00
1.273657e+01	-3.092262e+00
1.281014e+01	-3.118200e+00
1.288413e+01	-3.143700e+00
1.295855e+01	-3.169551e+00
1.303339e+01	-3.195397e+00
1.310867e+01	-3.221757e+00
1.318439e+01	-3.248026e+00
1.326054e+01	-3.274443e+00
1.333713e+01	-3.301181e+00
1.341417e+01	-3.327998e+00
1.349165e+01	-3.354634e+00
1.356958e+01	-3.381549e+00
1.364795e+01	-3.408637e+00
1.372678e+01	-3.435877e+00
1.380607e+01	-3.463338e+00
1.388581e+01	-3.490877e+00
1.396602e+01	-3.518593e+00
1.404668e+01	-3.546281e+00
1.412782e+01	-3.574513e+00
1.420942e+01	-3.602487e+00
1.429149e+01	-3.630704e+00
1.437404e+01	-3.659167e+00
1.445706e+01	-3.687793e+00
1.454057e+01	-3.716297e+00
1.462455e+01	-3.745469e+00
1.470902e+01	-3.774191e+00
1.479398e+01	-3.803417e+00
1.487943e+01	-3.832785e+00
1.496537e+01	-3.862158e+00
1.505181e+01	-3.891491e+00
1.513875e+01	-3.921526e+00
1.522619e+01	-3.951159e+00
1.531414e+01	-3.981011e+00
1.540259e+01	-4.011138e+00
1.549156e+01	-4.041530e+00
1.558103e+01	-4.071922e+00
1.567103e+01	-4.102307e+00
1.576155e+01	-4.132840e+00
1.585258e+01	-4.164025e+00
1.594415e+01	-4.194802e+00
1.603624e+01	-4.225698e+00
1.612886e+01	-4.256964e+00
1.622202e+01	-4.288256e+00
1.631572e+01	-4.319533e+00
1.640996e+01	-4.351308e+00
1.650474e+01	-4.382903e+00
1.660008e+01	-4.414663e+00
1.669596e+01	-4.446848e+00
1.679239e+01	-4.478917e+00
1.688938e+01	-4.511258e+00
1.698694e+01	-4.543530e+00
1.708505e+01	-4.575999e+00
1.718373e+01	-4.608875e+00
1.728299e+01	-4.641390e+00
1.738281e+01	-4.674406e+00
1.748322e+01	-4.707497e+00
1.758420e+01	-4.740783e+00
1.768576e+01	-4.773816e+00
1.778792e+01	-4.807451e+00
1.789066e+01	-4.841057e+00
1.799399e+01	-4.874530e+00
1.809793e+01	-4.908224e+00
1.820246e+01	-4.942365e+00
1.830760e+01	-4.976440e+00
1.841334e+01	-5.010815e+00
1.851969e+01	-5.044774e+00
1.862666e+01	-5.079429e+00
1.873425e+01	-5.113925e+00
1.884246e+01	-5.148365e+00
1.895129e+01	-5.183432e+00
1.906075e+01	-5.218171e+00
1.917085e+01	-5.253165e+00
1.928158e+01	-5.288402e+00
1.939295e+01	-5.323898e+00
1.950496e+01	-5.359037e+00
1.961762e+01	-5.394801e+00
1.973093e+01	-5.430477e+00
1.984490e+01	-5.466004e+00
1.995952e+01	-5.501941e+00
2.007480e+01	-5.537699e+00
2.019076e+01	-5.574139e+00
2.030738e+01	-5.610310e+00
2.042467e+01	-5.646483e+00
2.054264e+01	-5.683105e+00
2.066130e+01	-5.719596e+00
2.078064e+01	-5.756016e+00
2.090066e+01	-5.793182e+00
2.102139e+01	-5.829974e+00
2.114280e+01	-5.866846e+00
2.126492e+01	-5.903966e+00
2.138775e+01	-5.941367e+00
2.151128e+01	-5.978880e+00
2.163553e+01	-6.016060e+00
2.176050e+01	-6.053448e+00
2.188619e+01	-6.091204e+00
2.201260e+01	-6.129453e+00
2.213974e+01	-6.166859e+00
2.226762e+01	-6.204645e+00
2.239624e+01	-6.243132e+00
2.252560e+01	-6.281199e+00
2.265571e+01	-6.319341e+00
2.278656e+01	-6.358001e+00
2.291818e+01	-6.396459e+00
2.305055e+01	-6.435084e+00
2.318369e+01	-6.473948e+00
2.331760e+01	-6.512259e+00
2.345228e+01	-6.551563e+00
2.358774e+01	-6.590700e+00
2.372398e+01	-6.629637e+00
2.386101e+01	-6.668623e+00
2.399883e+01	-6.707790e+00
2.413745e+01	-6.747494e+00
2.427686e+01	-6.786678e+00
2.441709e+01	-6.826530e+00
2.455812e+01	-6.866023e+00
2.469997e+01	-6.906334e+00
2.484263e+01	-6.946013e+00
2.498612e+01	-6.986022e+00
2.513044e+01	-7.025772e+00
2.527559e+01	-7.066092e+00
2.542158e+01	-7.106604e+00
2.556842e+01	-7.147014e+00
2.571610e+01	-7.187159e+00
2.586463e+01	-7.227606e+00
2.601403e+01	-7.268072e+00
2.616428e+01	-7.308939e+00
2.631541e+01	-7.349719e+00
2.646740e+01	-7.390657e+00
2.662028e+01	-7.431716e+00
2.677404e+01	-7.472591e+00
2.692868e+01	-7.513955e+00
2.708422e+01	-7.554859e+00
2.724066e+01	-7.596065e+00
2.739800e+01	-7.637207e+00
2.755625e+01	-7.678700e+00
2.771541e+01	-7.720215e+00
2.787550e+01	-7.761776e+00
2.803650e+01	-7.803536e+00
2.819844e+01	-7.845437e+00
2.836131e+01	-7.887460e+00
2.852513e+01	-7.929111e+00
2.868989e+01	-7.971375e+00
2.885560e+01	-8.013210e+00
2.902227e+01	-8.055612e+00
2.918990e+01	-8.097342e+00
2.935850e+01	-8.139889e+00
2.952807e+01	-8.182239e+00
2.969863e+01	-8.224849e+00
2.987016e+01	-8.267368e+00
3.004269e+01	-8.310111e+00
3.021622e+01	-8.352776e+00
3.039075e+01	-8.395596e+00
3.056628e+01	-8.438321e+00
3.074283e+01	-8.481110e+00
3.092040e+01	-8.524358e+00
3.109900e+01	-8.567396e+00
3.127862e+01	-8.609949e+00
3.145929e+01	-8.653315e+00
3.164099e+01	-8.696993e+00
3.182375e+01	-8.740021e+00
3.200756e+01	-8.783370e+00
3.219244e+01	-8.826597e+00
3.237838e+01	-8.870514e+00
3.256540e+01	-8.913484e+00
3.275349e+01	-8.957677e+00
3.294268e+01	-9.001821e+00
3.313295e+01	-9.044642e+00
3.332433e+01	-9.088613e+00
3.351681e+01	-9.132694e+00
3.371040e+01	-9.176551e+00
3.390511e+01	-9.220594e+00
3.410094e+01	-9.264511e+00
3.429791e+01	-9.308991e+00
3.449601e+01	-9.353115e+00
3.469526e+01	-9.397705e+00
3.489566e+01	-9.441576e+00
3.509721e+01	-9.486105e+00
3.529993e+01	-9.530513e+00
3.550382e+01	-9.574800e+00
3.570889e+01	-9.619485e+00
3.591515e+01	-9.664233e+00
3.612259e+01	-9.708373e+00
3.633123e+01	-9.753461e+00
3.654108e+01	-9.797780e+00
3.675214e+01	-9.842731e+00
3.696442e+01	-9.887730e+00
3.717792e+01	-9.932793e+00
3.739266e+01	-9.977740e+00
3.760864e+01	-1.002239e+01
3.782587e+01	-1.006816e+01
3.804435e+01	-1.011252e+01
3.826409e+01	-1.015807e+01
3.848510e+01	-1.020366e+01
3.870739e+01	-1.024877e+01
3.893096e+01	-1.029368e+01
3.915583e+01	-1.033938e+01
3.938199e+01	-1.038477e+01
3.960946e+01	-1.043061e+01
3.983824e+01	-1.047580e+01
4.006834e+01	-1.052110e+01
4.029978e+01	-1.056703e+01
4.053255e+01	-1.061283e+01
4.076666e+01	-1.065810e+01
4.100213e+01	-1.070402e+01
4.123896e+01	-1.074976e+01
4.147715e+01	-1.079615e+01
4.171672e+01	-1.084140e+01
4.195767e+01	-1.088762e+01
4.220002e+01	-1.093364e+01
4.244377e+01	-1.097964e+01
4.268892e+01	-1.102556e+01
4.293549e+01	-1.107236e+01
4.318348e+01	-1.111743e+01
4.343291e+01	-1.116428e+01
4.368377e+01	-1.121066e+01
4.393609e+01	-1.125621e+01
4.418986e+01	-1.130289e+01
4.444510e+01	-1.134888e+01
4.470182e+01	-1.139584e+01
4.496001e+01	-1.144144e+01
4.521970e+01	-1.148808e+01
4.548089e+01	-1.153492e+01
4.574358e+01	-1.158111e+01
4.600779e+01	-1.162783e+01
4.627353e+01	-1.167459e+01
4.654081e+01	-1.172158e+01
4.680963e+01	-1.176793e+01
4.708000e+01	-1.181429e+01
4.735193e+01	-1.186136e+01
4.762543e+01	-1.190818e+01
4.790051e+01	-1.195494e+01
4.817719e+01	-1.200162e+01
4.845545e+01	-1.204861e+01
4.873533e+01	-1.209618e+01
4.901682e+01	-1.214238e+01
4.929994e+01	-1.218888e+01
4.958470e+01	-1.223706e+01
4.987110e+01	-1.228417e+01
5.015915e+01	-1.233116e+01
5.044887e+01	-1.237778e+01
5.074026e+01	-1.242450e+01
5.103333e+01	-1.247240e+01
5.132810e+01	-1.251942e+01
5.162457e+01	-1.256635e+01
5.192275e+01	-1.261441e+01
5.222265e+01	-1.266080e+01
5.252429e+01	-1.270867e+01
5.282767e+01	-1.275602e+01
5.313280e+01	-1.280320e+01
5.343969e+01	-1.285077e+01
5.374836e+01	-1.289823e+01
5.405880e+01	-1.294515e+01
5.437105e+01	-1.299265e+01
5.468509e+01	-1.304067e+01
5.500095e+01	-1.308825e+01
5.531863e+01	-1.313577e+01
5.563815e+01	-1.318282e+01
5.595951e+01	-1.323082e+01
5.628273e+01	-1.327832e+01
5.660782e+01	-1.332568e+01
5.693479e+01	-1.337382e+01
5.726364e+01	-1.342156e+01
5.759439e+01	-1.346997e+01
5.792705e+01	-1.351645e+01
5.826164e+01	-1.356491e+01
5.859815e+01	-1.361285e+01
5.893662e+01	-1.366067e+01
5.927703e+01	-1.370899e+01
5.961941e+01	-1.375682e+01
5.996377e+01	-1.380429e+01
6.031012e+01	-1.385291e+01
6.065847e+01	-1.389962e+01
6.100883e+01	-1.394923e+01
6.136121e+01	-1.399593e+01
6.171563e+01	-1.404422e+01
6.207210e+01	-1.409264e+01
6.243063e+01	-1.414051e+01
6.279122e+01	-1.418842e+01
6.315390e+01	-1.423707e+01
6.351868e+01	-1.428468e+01
6.388556e+01	-1.433257e+01
6.425456e+01	-1.438147e+01
6.462569e+01	-1.442952e+01
6.499897e+01	-1.447835e+01
6.537440e+01	-1.452548e+01
6.575200e+01	-1.457440e+01
6.613178e+01	-1.462309e+01
6.651375e+01	-1.467159e+01
6.689793e+01	-1.471964e+01
6.728433e+01	-1.476812e+01
6.767297e+01	-1.481550e+01
6.806384e+01	-1.486443e+01
6.845698e+01	-1.491295e+01
6.885238e+01	-1.496109e+01
6.925007e+01	-1.500998e+01
6.965005e+01	-1.505861e+01
7.005235e+01	-1.510723e+01
7.045697e+01	-1.515614e+01
7.086393e+01	-1.520377e+01
7.127323e+01	-1.525288e+01
7.168490e+01	-1.530137e+01
7.209895e+01	-1.534931e+01
7.251539e+01	-1.539833e+01
7.293424e+01	-1.544554e+01
7.335551e+01	-1.549568e+01
7.377920e+01	-1.554433e+01
7.420535e+01	-1.559224e+01
7.463396e+01	-1.564147e+01
7.506504e+01	-1.569065e+01
7.549861e+01	-1.573864e+01
7.593469e+01	-1.578716e+01
7.637328e+01	-1.583574e+01
7.681441e+01	-1.588392e+01
7.725809e+01	-1.593312e+01
7.770433e+01	-1.598237e+01
7.815315e+01	-1.603075e+01
7.860456e+01	-1.607960e+01
7.905857e+01	-1.612873e+01
7.951521e+01	-1.617773e+01
7.997449e+01	-1.622541e+01
8.043642e+01	-1.627541e+01
8.090102e+01	-1.632332e+01
8.136830e+01	-1.637154e+01
8.183828e+01	-1.642063e+01
8.231097e+01	-1.646933e+01
8.278640e+01	-1.651971e+01
8.326457e+01	-1.656798e+01
8.374550e+01	-1.661747e+01
8.422921e+01	-1.666524e+01
8.471572e+01	-1.671431e+01
8.520503e+01	-1.676522e+01
8.569717e+01	-1.681370e+01
8.619215e+01	-1.686244e+01
8.669000e+01	-1.691122e+01
8.719071e+01	-1.695996e+01
8.769432e+01	-1.700881e+01
8.820084e+01	-1.705885e+01
8.871029e+01	-1.710779e+01
8.922267e+01	-1.715649e+01
8.973802e+01	-1.720552e+01
9.025634e+01	-1.725461e+01
9.077766e+01	-1.730485e+01
9.130199e+01	-1.735192e+01
9.182935e+01	-1.740225e+01
9.235975e+01	-1.745097e+01
9.289321e+01	-1.749939e+01
9.342976e+01	-1.754861e+01
9.396941e+01	-1.759795e+01
9.451217e+01	-1.764798e+01
9.505807e+01	-1.769690e+01
9.560712e+01	-1.774615e+01
9.615934e+01	-1.779562e+01
9.671476e+01	-1.784326e+01
9.727338e+01	-1.789309e+01
9.783522e+01	-1.794187e+01
9.840032e+01	-1.799196e+01
9.896867e+01	-1.804102e+01
9.954031e+01	-1.808943e+01
1.001153e+02	-1.814049e+01
1.006935e+02	-1.818759e+01
1.012751e+02	-1.823851e+01
1.018601e+02	-1.828751e+01
1.024484e+02	-1.833665e+01
1.030402e+02	-1.838727e+01
1.036353e+02	-1.843402e+01
1.042339e+02	-1.848416e+01
1.048360e+02	-1.853434e+01
1.054415e+02	-1.858287e+01
1.060505e+02	-1.863128e+01
1.066631e+02	-1.868316e+01
1.072791e+02	-1.873099e+01
1.078988e+02	-1.878036e+01
1.085220e+02	-1.882904e+01
1.091488e+02	-1.888084e+01
1.097793e+02	-1.892995e+01
1.104133e+02	-1.897816e+01
1.110511e+02	-1.902680e+01
1.116925e+02	-1.907665e+01
1.123376e+02	-1.912570e+01
1.129865e+02	-1.917680e+01
1.136391e+02	-1.922437e+01
1.142955e+02	-1.927385e+01
1.149556e+02	-1.932550e+01
1.156196e+02	-1.937365e+01
1.162874e+02	-1.942227e+01
1.169591e+02	-1.947374e+01
1.176347e+02	-1.952206e+01
1.183141e+02	-1.957173e+01
1.189975e+02	-1.962225e+01
1.196848e+02	-1.967101e+01
1.203761e+02	-1.972069e+01
1.210714e+02	-1.977029e+01
1.217707e+02	-1.981968e+01
1.224740e+02	-1.986970e+01
1.231814e+02	-1.991899e+01
1.238929e+02	-1.996782e+01
1.246085e+02	-2.001730e+01
1.253283e+02	-2.006694e+01
1.260522e+02	-2.011529e+01
1.267802e+02	-2.016695e+01
1.275125e+02	-2.021543e+01
1.282490e+02	-2.026503e+01
1.289898e+02	-2.031316e+01
1.297348e+02	-2.036325e+01
1.304842e+02	-2.041291e+01
1.312378e+02	-2.046282e+01
1.319959e+02	-2.051234e+01
1.327583e+02	-2.056288e+01
1.335251e+02	-2.061151e+01
1.342963e+02	-2.066233e+01
1.350720e+02	-2.071095e+01
1.358522e+02	-2.076009e+01
1.366368e+02	-2.080993e+01
1.374260e+02	-2.086068e+01
1.382198e+02	-2.090879e+01
1.390182e+02	-2.095960e+01
1.398211e+02	-2.100905e+01
1.406287e+02	-2.105911e+01
1.414410e+02	-2.111009e+01
1.422579e+02	-2.115846e+01
1.430796e+02	-2.120805e+01
1.439060e+02	-2.125814e+01
1.447372e+02	-2.130706e+01
1.455732e+02	-2.135575e+01
1.464141e+02	-2.140518e+01
1.472597e+02	-2.145522e+01
1.481103e+02	-2.150739e+01
1.489658e+02	-2.155466e+01
1.498262e+02	-2.160636e+01
1.506916e+02	-2.165595e+01
1.515620e+02	-2.170697e+01
1.524374e+02	-2.175253e+01
1.533179e+02	-2.180480e+01
1.542034e+02	-2.185334e+01
1.550941e+02	-2.190419e+01
1.559899e+02	-2.195294e+01
1.568909e+02	-2.200464e+01
1.577971e+02	-2.205411e+01
1.587085e+02	-2.210160e+01
1.596252e+02	-2.215133e+01
1.605472e+02	-2.219948e+01
1.614745e+02	-2.225119e+01
1.624072e+02	-2.230257e+01
1.633453e+02	-2.235388e+01
1.642887e+02	-2.240049e+01
1.652377e+02	-2.245057e+01
1.661921e+02	-2.249984e+01
1.671520e+02	-2.254836e+01
1.681175e+02	-2.259917e+01
1.690885e+02	-2.264838e+01
1.700651e+02	-2.269946e+01
1.710474e+02	-2.275061e+01
1.720354e+02	-2.279718e+01
1.730291e+02	-2.284933e+01
1.740285e+02	-2.289533e+01
1.750337e+02	-2.294808e+01
1.760446e+02	-2.300120e+01
1.770615e+02	-2.304936e+01
1.780842e+02	-2.309679e+01
1.791128e+02	-2.314722e+01
1.801473e+02	-2.319695e+01
1.811878e+02	-2.324811e+01
1.822344e+02	-2.329605e+01
1.832870e+02	-2.334883e+01
1.843456e+02	-2.339640e+01
1.854104e+02	-2.344561e+01
1.864813e+02	-2.349746e+01
1.875584e+02	-2.354787e+01
1.886418e+02	-2.359764e+01
1.897313e+02	-2.364586e+01
1.908272e+02	-2.369743e+01
1.919294e+02	-2.374704e+01
1.930380e+02	-2.379502e+01
1.941530e+02	-2.384550e+01
1.952744e+02	-2.389593e+01
1.964023e+02	-2.394509e+01
1.975367e+02	-2.399180e+01
1.986777e+02	-2.404197e+01
1.998252e+02	-2.409410e+01
2.009794e+02	-2.414451e+01
2.021403e+02	-2.419631e+01
2.033078e+02	-2.424591e+01
2.044821e+02	-2.429409e+01
2.056632e+02	-2.434314e+01
2.068511e+02	-2.439464e+01
2.080459e+02	-2.444503e+01
2.092475e+02	-2.449321e+01
2.104561e+02	-2.454473e+01
2.116717e+02	-2.459060e+01
2.128943e+02	-2.464499e+01
2.141240e+02	-2.469134e+01
2.153608e+02	-2.474483e+01
2.166047e+02	-2.479359e+01
2.178558e+02	-2.484280e+01
2.191141e+02	-2.489231e+01
2.203797e+02	-2.494047e+01
2.216526e+02	-2.499350e+01
2.229329e+02	-2.504491e+01
2.242205e+02	-2.509437e+01
2.255156e+02	-2.514126e+01
2.268182e+02	-2.519247e+01
2.281283e+02	-2.524190e+01
2.294459e+02	-2.528980e+01
2.307712e+02	-2.534054e+01
2.321041e+02	-2.539362e+01
2.334447e+02	-2.544144e+01
2.347931e+02	-2.549323e+01
2.361493e+02	-2.554317e+01
2.375133e+02	-2.559167e+01
2.388851e+02	-2.564031e+01
2.402649e+02	-2.569098e+01
2.416527e+02	-2.574316e+01
2.430484e+02	-2.579211e+01
2.444523e+02	-2.583997e+01
2.458642e+02	-2.589254e+01
2.472843e+02	-2.594076e+01
2.487126e+02	-2.598954e+01
2.501492e+02	-2.603979e+01
2.515940e+02	-2.608647e+01
2.530472e+02	-2.613870e+01
2.545088e+02	-2.619128e+01
2.559789e+02	-2.623962e+01
2.574574e+02	-2.629263e+01
2.589444e+02	-2.634113e+01
2.604401e+02	-2.638847e+01
2.619444e+02	-2.644128e+01
2.634574e+02	-2.648910e+01
2.649791e+02	-2.654134e+01
2.665096e+02	-2.659310e+01
2.680489e+02	-2.664006e+01
2.695972e+02	-2.668827e+01
2.711544e+02	-2.674135e+01
2.727205e+02	-2.679182e+01
2.742958e+02	-2.684051e+01
2.758801e+02	-2.688730e+01
2.774736e+02	-2.694239e+01
2.790762e+02	-2.699129e+01
2.806882e+02	-2.703766e+01
2.823094e+02	-2.709055e+01
2.839400e+02	-2.713921e+01
2.855800e+02	-2.719053e+01
2.872295e+02	-2.723800e+01
2.888886e+02	-2.728679e+01
2.905572e+02	-2.733817e+01
2.922354e+02	-2.739114e+01
2.939234e+02	-2.743871e+01
2.956211e+02	-2.748675e+01
2.973286e+02	-2.753831e+01
2.990459e+02	-2.759366e+01
3.007732e+02	-2.764444e+01
3.025104e+02	-2.769162e+01
3.042577e+02	-2.773649e+01
3.060151e+02	-2.778957e+01
3.077826e+02	-2.784036e+01
3.095604e+02	-2.789253e+01
3.113484e+02	-2.793745e+01
3.131467e+02	-2.798827e+01
3.149554e+02	-2.804275e+01
3.167746e+02	-2.809084e+01
3.186043e+02	-2.813977e+01
3.204445e+02	-2.819238e+01
3.222954e+02	-2.824218e+01
3.241570e+02	-2.829099e+01
3.260293e+02	-2.833855e+01
3.279124e+02	-2.838975e+01
3.298064e+02	-2.844410e+01
3.317114e+02	-2.849062e+01
3.336273e+02	-2.854025e+01
3.355544e+02	-2.859250e+01
3.374925e+02	-2.864044e+01
3.394418e+02	-2.869312e+01
3.414024e+02	-2.873941e+01
3.433744e+02	-2.878603e+01
3.453577e+02	-2.884158e+01
3.473525e+02	-2.889207e+01
3.493588e+02	-2.894609e+01
3.513766e+02	-2.899024e+01
3.534062e+02	-2.904165e+01
3.554474e+02	-2.908550e+01
3.575005e+02	-2.913884e+01
3.595654e+02	-2.918770e+01
3.616422e+02	-2.924005e+01
3.637311e+02	-2.928893e+01
3.658320e+02	-2.934009e+01
3.679450e+02	-2.939338e+01
3.700702e+02	-2.944041e+01
3.722077e+02	-2.948985e+01
3.743576e+02	-2.954332e+01
3.765199e+02	-2.959451e+01
3.786946e+02	-2.964541e+01
3.808820e+02	-2.969361e+01
3.830819e+02	-2.974464e+01
3.852946e+02	-2.979365e+01
3.875200e+02	-2.984032e+01
3.897583e+02	-2.989499e+01
3.920096e+02	-2.994350e+01
3.942738e+02	-2.999243e+01
3.965511e+02	-3.004043e+01
3.988416e+02	-3.009295e+01
4.011452e+02	-3.014338e+01
4.034622e+02	-3.019773e+01
4.057926e+02	-3.024958e+01
4.081365e+02	-3.029313e+01
4.104938e+02	-3.034061e+01
4.128648e+02	-3.039210e+01
4.152495e+02	-3.044592e+01
4.176480e+02	-3.049437e+01
4.200603e+02	-3.054365e+01
4.224866e+02	-3.059371e+01
4.249268e+02	-3.064300e+01
4.273812e+02	-3.070077e+01
4.298497e+02	-3.074632e+01
4.323325e+02	-3.079669e+01
4.348297e+02	-3.084619e+01
4.373412e+02	-3.089240e+01
4.398673e+02	-3.094534e+01
4.424079e+02	-3.100067e+01
4.449633e+02	-3.104082e+01
4.475334e+02	-3.109420e+01
4.501183e+02	-3.114669e+01
4.527182e+02	-3.119787e+01
4.553330e+02	-3.124828e+01
4.579630e+02	-3.129750e+01
4.606082e+02	-3.134349e+01
4.632687e+02	-3.139968e+01
4.659445e+02	-3.144438e+01
4.686358e+02	-3.149956e+01
4.713426e+02	-3.154809e+01
4.740650e+02	-3.159664e+01
4.768032e+02	-3.165206e+01
4.795572e+02	-3.170534e+01
4.823271e+02	-3.174933e+01
4.851130e+02	-3.179793e+01
4.879150e+02	-3.184255e+01
4.907332e+02	-3.189830e+01
4.935676e+02	-3.194936e+01
4.964185e+02	-3.200462e+01
4.992858e+02	-3.204632e+01
5.021696e+02	-3.209014e+01
5.050701e+02	-3.215292e+01
5.079874e+02	-3.219845e+01
5.109215e+02	-3.225020e+01
5.138726e+02	-3.229881e+01
5.168407e+02	-3.235289e+01
5.198259e+02	-3.240216e+01
5.228284e+02	-3.245130e+01
5.258482e+02	-3.250029e+01
5.288855e+02	-3.255090e+01
5.319403e+02	-3.259758e+01
5.350128e+02	-3.265605e+01
5.381030e+02	-3.269911e+01
5.412111e+02	-3.275411e+01
5.443371e+02	-3.280290e+01
5.474812e+02	-3.285217e+01
5.506434e+02	-3.290397e+01
5.538239e+02	-3.295677e+01
5.570228e+02	-3.300604e+01
5.602401e+02	-3.305585e+01
5.634760e+02	-3.311337e+01
5.667306e+02	-3.315544e+01
5.700040e+02	-3.320729e+01
5.732964e+02	-3.325028e+01
5.766077e+02	-3.330041e+01
5.799382e+02	-3.335492e+01
5.832879e+02	-3.339797e+01
5.866569e+02	-3.345473e+01
5.900454e+02	-3.350458e+01
5.934535e+02	-3.354959e+01
5.968813e+02	-3.360343e+01
6.003288e+02	-3.365320e+01
6.037963e+02	-3.370425e+01
6.072838e+02	-3.375400e+01
6.107914e+02	-3.380326e+01
6.143194e+02	-3.385416e+01
6.178676e+02	-3.391008e+01
6.214364e+02	-3.396170e+01
6.250258e+02	-3.400665e+01
6.286359e+02	-3.406685e+01
6.322669e+02	-3.411517e+01
6.359189e+02	-3.415685e+01
6.395919e+02	-3.420627e+01
6.432862e+02	-3.425532e+01
6.470017e+02	-3.430985e+01
6.507388e+02	-3.435787e+01
6.544974e+02	-3.440795e+01
6.582778e+02	-3.446896e+01
6.620800e+02	-3.450285e+01
6.659041e+02	-3.456324e+01
6.697504e+02	-3.461585e+01
6.736188e+02	-3.466284e+01
6.775096e+02	-3.471827e+01
6.814229e+02	-3.476199e+01
6.853587e+02	-3.480794e+01
6.893173e+02	-3.486732e+01
6.932988e+02	-3.491106e+01
6.973033e+02	-3.496230e+01
7.013309e+02	-3.500638e+01
