Frequency(Hz)	Magnitude(dB)
1.000000e+01	-2.071073e+00
1.005776e+01	-2.089990e+00
1.011585e+01	-2.109096e+00
1.017428e+01	-2.128392e+00
1.023305e+01	-2.148125e+00
1.029215e+01	-2.167631e+00
1.035160e+01	-2.187210e+00
1.041139e+01	-2.207241e+00
1.047153e+01	-2.227195e+00
1.053201e+01	-2.247271e+00
1.059284e+01	-2.267735e+00
1.065403e+01	-2.288061e+00
1.071556e+01	-2.308629e+00
1.077746e+01	-2.329403e+00
1.083971e+01	-2.350022e+00
1.090232e+01	-2.371018e+00
1.096529e+01	-2.392137e+00
1.102862e+01	-2.413552e+00
1.109232e+01	-2.434790e+00
1.115639e+01	-2.456487e+00
1.122083e+01	-2.478145e+00
1.128564e+01	-2.499693e+00
1.135083e+01	-2.521778e+00
1.141639e+01	-2.543990e+00
1.148233e+01	-2.566151e+00
1.154865e+01	-2.588659e+00
1.161536e+01	-2.611180e+00
1.168245e+01	-2.633934e+00
1.174992e+01	-2.656680e+00
1.181779e+01	-2.679556e+00
1.188605e+01	-2.702548e+00
1.195470e+01	-2.725967e+00
1.202375e+01	-2.749371e+00
1.209320e+01	-2.772792e+00
1.216305e+01	-2.796432e+00
1.223330e+01	-2.820283e+00
1.230396e+01	-2.844429e+00
1.237503e+01	-2.868427e+00
1.244651e+01	-2.892854e+00
1.251840e+01	-2.916970e+00
1.259070e+01	-2.941658e+00
1.266343e+01	-2.966224e+00
1.273657e+01	-2.991208e+00
1.281014e+01	-3.016126e+00
1.288413e+01	-3.041385e+00
1.295855e+01	-3.066217e+00
1.303339e+01	-3.091973e+00
1.310867e+01	-3.117304e+00
1.318439e+01	-3.143386e+00
1.326054e+01	-3.168919e+00
1.333713e+01	-3.194932e+00
1.341417e+01	-3.221172e+00
1.349165e+01	-3.247326e+00
1.356958e+01	-3.273852e+00
1.364795e+01	-3.300303e+00
1.372678e+01	-3.326884e+00
1.380607e+01	-3.353886e+00
1.388581e+01	-3.380689e+00
1.396602e+01	-3.408078e+00
1.404668e+01	-3.435484e+00
1.412782e+01	-3.462668e+00
1.420942e+01	-3.490454e+00
1.429149e+01	-3.518037e+00
1.437404e+01	-3.545869e+00
1.445706e+01	-3.573505e+00
1.454057e+01	-3.601786e+00
1.462455e+01	-3.630252e+00
1.470902e+01	-3.658946e+00
1.479398e+01	-3.687162e+00
1.487943e+01	-3.715882e+00
1.496537e+01	-3.744782e+00
1.505181e+01	-3.773377e+00
1.513875e+01	-3.802874e+00
1.522619e+01	-3.832058e+00
1.531414e+01	-3.861220e+00
1.540259e+01	-3.890712e+00
1.549156e+01	-3.920725e+00
1.558103e+01	-3.950433e+00
1.567103e+01	-3.980451e+00
1.576155e+01	-4.010503e+00
1.585258e+01	-4.040624e+00
1.594415e+01	-4.071293e+00
1.603624e+01	-4.101517e+00
1.612886e+01	-4.132170e+00
1.622202e+01	-4.162798e+00
1.631572e+01	-4.193971e+00
1.640996e+01	-4.225103e+00
1.650474e+01	-4.256069e+00
1.660008e+01	-4.287534e+00
1.669596e+01	-4.319122e+00
1.679239e+01	-4.350478e+00
1.688938e+01	-4.382083e+00
1.698694e+01	-4.413831e+00
1.708505e+01	-4.446093e+00
1.718373e+01	-4.478328e+00
1.728299e+01	-4.510634e+00
1.738281e+01	-4.542472e+00
1.748322e+01	-4.575148e+00
1.758420e+01	-4.608113e+00
1.768576e+01	-4.640942e+00
1.778792e+01	-4.673555e+00
1.789066e+01	-4.706716e+00
1.799399e+01	-4.740044e+00
1.809793e+01	-4.772952e+00
1.820246e+01	-4.806607e+00
1.830760e+01	-4.840012e+00
1.841334e+01	-4.873768e+00
1.851969e+01	-4.907561e+00
1.862666e+01	-4.941299e+00
1.873425e+01	-4.975614e+00
1.884246e+01	-5.009853e+00
1.895129e+01	-5.043940e+00
1.906075e+01	-5.078400e+00
1.917085e+01	-5.113123e+00
1.928158e+01	-5.147721e+00
1.939295e+01	-5.182459e+00
1.950496e+01	-5.217500e+00
1.961762e+01	-5.252399e+00
1.973093e+01	-5.287403e+00
1.984490e+01	-5.322577e+00
1.995952e+01	-5.358244e+00
2.007480e+01	-5.393648e+00
2.019076e+01	-5.429243e+00
2.030738e+01	-5.465309e+00
2.042467e+01	-5.501006e+00
2.054264e+01	-5.537039e+00
2.066130e+01	-5.573127e+00
2.078064e+01	-5.609312e+00
2.090066e+01	-5.645923e+00
2.102139e+01	-5.681850e+00
2.114280e+01	-5.718705e+00
2.126492e+01	-5.755011e+00
2.138775e+01	-5.792337e+00
2.151128e+01	-5.829105e+00
2.163553e+01	-5.865990e+00
2.176050e+01	-5.903333e+00
2.188619e+01	-5.940716e+00
2.201260e+01	-5.978020e+00
2.213974e+01	-6.015154e+00
2.226762e+01	-6.052908e+00
2.239624e+01	-6.090765e+00
2.252560e+01	-6.128311e+00
2.265571e+01	-6.165897e+00
2.278656e+01	-6.203974e+00
2.291818e+01	-6.242104e+00
2.305055e+01	-6.280318e+00
2.318369e+01	-6.318571e+00
2.331760e+01	-6.356936e+00
2.345228e+01	-6.395730e+00
2.358774e+01	-6.434201e+00
2.372398e+01	-6.472771e+00
2.386101e+01	-6.511681e+00
2.399883e+01	-6.550635e+00
2.413745e+01	-6.589263e+00
2.427686e+01	-6.628511e+00
2.441709e+01	-6.667931e+00
2.455812e+01	-6.707133e+00
2.469997e+01	-6.746744e+00
2.484263e+01	-6.786141e+00
2.498612e+01	-6.825752e+00
2.513044e+01	-6.865398e+00
2.527559e+01	-6.905340e+00
2.542158e+01	-6.945193e+00
2.556842e+01	-6.985035e+00
2.571610e+01	-7.024977e+00
2.586463e+01	-7.064936e+00
2.601403e+01	-7.105574e+00
2.616428e+01	-7.145333e+00
2.631541e+01	-7.186113e+00
2.646740e+01	-7.226671e+00
2.662028e+01	-7.267100e+00
2.677404e+01	-7.307972e+00
2.692868e+01	-7.348625e+00
2.708422e+01	-7.389187e+00
2.724066e+01	-7.430594e+00
2.739800e+01	-7.471575e+00
2.755625e+01	-7.512729e+00
2.771541e+01	-7.553995e+00
2.787550e+01	-7.595265e+00
2.803650e+01	-7.636663e+00
2.819844e+01	-7.677712e+00
2.836131e+01	-7.719243e+00
2.852513e+01	-7.761237e+00
2.868989e+01	-7.802545e+00
2.885560e+01	-7.844621e+00
2.902227e+01	-7.886348e+00
2.918990e+01	-7.928150e+00
2.935850e+01	-7.970051e+00
2.952807e+01	-8.011953e+00
2.969863e+01	-8.054285e+00
2.987016e+01	-8.096640e+00
3.004269e+01	-8.139431e+00
3.021622e+01	-8.181940e+00
3.039075e+01	-8.224374e+00
3.056628e+01	-8.266432e+00
3.074283e+01	-8.308778e+00
3.092040e+01	-8.351562e+00
3.109900e+01	-8.394251e+00
3.127862e+01	-8.437112e+00
3.145929e+01	-8.480127e+00
3.164099e+01	-8.523362e+00
3.182375e+01	-8.566134e+00
3.200756e+01	-8.609747e+00
3.219244e+01	-8.652431e+00
3.237838e+01	-8.695879e+00
3.256540e+01	-8.739057e+00
3.275349e+01	-8.782132e+00
3.294268e+01	-8.826052e+00
3.313295e+01	-8.868974e+00
3.332433e+01	-8.913008e+00
3.351681e+01	-8.956283e+00
3.371040e+01	-9.000148e+00
3.390511e+01	-9.044059e+00
3.410094e+01	-9.087618e+00
3.429791e+01	-9.131621e+00
3.449601e+01	-9.175709e+00
3.469526e+01	-9.219953e+00
3.489566e+01	-9.263339e+00
3.509721e+01	-9.307544e+00
3.529993e+01	-9.352116e+00
3.550382e+01	-9.396509e+00
3.570889e+01	-9.440606e+00
3.591515e+01	-9.485170e+00
3.612259e+01	-9.529564e+00
3.633123e+01	-9.574349e+00
3.654108e+01	-9.618412e+00
3.675214e+01	-9.663051e+00
3.696442e+01	-9.707490e+00
3.717792e+01	-9.752081e+00
3.739266e+01	-9.796864e+00
3.760864e+01	-9.842296e+00
3.782587e+01	-9.886752e+00
3.804435e+01	-9.931906e+00
3.826409e+01	-9.976541e+00
3.848510e+01	-1.002106e+01
3.870739e+01	-1.006677e+01
3.893096e+01	-1.011172e+01
3.915583e+01	-1.015702e+01
3.938199e+01	-1.020280e+01
3.960946e+01	-1.024742e+01
3.983824e+01	-1.029320e+01
4.006834e+01	-1.033834e+01
4.029978e+01	-1.038371e+01
4.053255e+01	-1.042908e+01
4.076666e+01	-1.047460e+01
4.100213e+01	-1.052060e+01
4.123896e+01	-1.056597e+01
4.147715e+01	-1.061153e+01
4.171672e+01	-1.065716e+01
4.195767e+01	-1.070256e+01
4.220002e+01	-1.074878e+01
4.244377e+01	-1.079469e+01
4.268892e+01	-1.084047e+01
4.293549e+01	-1.088647e+01
4.318348e+01	-1.093340e+01
4.343291e+01	-1.097762e+01
4.368377e+01	-1.102449e+01
4.393609e+01	-1.107044e+01
4.418986e+01	-1.111670e+01
4.444510e+01	-1.116290e+01
4.470182e+01	-1.120855e+01
4.496001e+01	-1.125515e+01
4.521970e+01	-1.130212e+01
4.548089e+01	-1.134786e+01
4.574358e+01	-1.139466e+01
4.600779e+01	-1.144062e+01
4.627353e+01	-1.148762e+01
4.654081e+01	-1.153375e+01
4.680963e+01	-1.158014e+01
4.708000e+01	-1.162710e+01
4.735193e+01	-1.167440e+01
4.762543e+01	-1.171998e+01
4.790051e+01	-1.176722e+01
4.817719e+01	-1.181369e+01
4.845545e+01	-1.186072e+01
4.873533e+01	-1.190645e+01
4.901682e+01	-1.195403e+01
4.929994e+01	-1.200066e+01
4.958470e+01	-1.204722e+01
4.987110e+01	-1.209392e+01
5.015915e+01	-1.214127e+01
5.044887e+01	-1.218812e+01
5.074026e+01	-1.223506e+01
5.103333e+01	-1.228238e+01
5.132810e+01	-1.232973e+01
5.162457e+01	-1.237695e+01
5.192275e+01	-1.242311e+01
5.222265e+01	-1.247144e+01
5.252429e+01	-1.251843e+01
5.282767e+01	-1.256547e+01
5.313280e+01	-1.261280e+01
5.343969e+01	-1.265990e+01
5.374836e+01	-1.270718e+01
5.405880e+01	-1.275492e+01
5.437105e+01	-1.280234e+01
5.468509e+01	-1.284971e+01
5.500095e+01	-1.289708e+01
5.531863e+01	-1.294450e+01
5.563815e+01	-1.299138e+01
5.595951e+01	-1.303934e+01
5.628273e+01	-1.308606e+01
5.660782e+01	-1.313438e+01
5.693479e+01	-1.318321e+01
5.726364e+01	-1.322905e+01
5.759439e+01	-1.327704e+01
5.792705e+01	-1.332465e+01
5.826164e+01	-1.337383e+01
5.859815e+01	-1.342041e+01
5.893662e+01	-1.346820e+01
5.927703e+01	-1.351567e+01
5.961941e+01	-1.356382e+01
5.996377e+01	-1.361208e+01
6.031012e+01	-1.365993e+01
6.065847e+01	-1.370686e+01
6.100883e+01	-1.375576e+01
6.136121e+01	-1.380383e+01
6.171563e+01	-1.385172e+01
6.207210e+01	-1.389925e+01
6.243063e+01	-1.394837e+01
6.279122e+01	-1.399562e+01
6.315390e+01	-1.404377e+01
6.351868e+01	-1.409109e+01
6.388556e+01	-1.413904e+01
6.425456e+01	-1.418805e+01
6.462569e+01	-1.423479e+01
6.499897e+01	-1.428389e+01
6.537440e+01	-1.433269e+01
6.575200e+01	-1.438064e+01
6.613178e+01	-1.442931e+01
6.651375e+01	-1.447619e+01
6.689793e+01	-1.452535e+01
6.728433e+01	-1.457271e+01
6.767297e+01	-1.462156e+01
6.806384e+01	-1.466980e+01
6.845698e+01	-1.471829e+01
6.885238e+01	-1.476667e+01
6.925007e+01	-1.481498e+01
6.965005e+01	-1.486430e+01
7.005235e+01	-1.491264e+01
7.045697e+01	-1.496063e+01
7.086393e+01	-1.500901e+01
7.127323e+01	-1.505670e+01
7.168490e+01	-1.510500e+01
7.209895e+01	-1.515437e+01
7.251539e+01	-1.520277e+01
7.293424e+01	-1.525025e+01
7.335551e+01	-1.529985e+01
7.377920e+01	-1.534859e+01
7.420535e+01	-1.539680e+01
7.463396e+01	-1.544559e+01
7.506504e+01	-1.549366e+01
7.549861e+01	-1.554363e+01
7.593469e+01	-1.559083e+01
7.637328e+01	-1.563959e+01
7.681441e+01	-1.568867e+01
7.725809e+01	-1.573778e+01
7.770433e+01	-1.578625e+01
7.815315e+01	-1.583434e+01
7.860456e+01	-1.588385e+01
7.905857e+01	-1.593243e+01
7.951521e+01	-1.598072e+01
7.997449e+01	-1.602924e+01
8.043642e+01	-1.607829e+01
8.090102e+01	-1.612863e+01
8.136830e+01	-1.617644e+01
8.183828e+01	-1.622532e+01
8.231097e+01	-1.627365e+01
8.278640e+01	-1.632275e+01
8.326457e+01	-1.637021e+01
8.374550e+01	-1.642013e+01
8.422921e+01	-1.646828e+01
8.471572e+01	-1.651850e+01
8.520503e+01	-1.656751e+01
8.569717e+01	-1.661648e+01
8.619215e+01	-1.666490e+01
8.669000e+01	-1.671452e+01
8.719071e+01	-1.676387e+01
8.769432e+01	-1.681307e+01
8.820084e+01	-1.686166e+01
8.871029e+01	-1.690870e+01
8.922267e+01	-1.695842e+01
8.973802e+01	-1.700751e+01
9.025634e+01	-1.705673e+01
9.077766e+01	-1.710610e+01
9.130199e+01	-1.715509e+01
9.182935e+01	-1.720398e+01
9.235975e+01	-1.725269e+01
9.289321e+01	-1.730184e+01
9.342976e+01	-1.735103e+01
9.396941e+01	-1.740038e+01
9.451217e+01	-1.744863e+01
9.505807e+01	-1.749876e+01
9.560712e+01	-1.754789e+01
9.615934e+01	-1.759620e+01
9.671476e+01	-1.764579e+01
9.727338e+01	-1.769537e+01
9.783522e+01	-1.774481e+01
9.840032e+01	-1.779470e+01
9.896867e+01	-1.784352e+01
9.954031e+01	-1.789121e+01
1.001153e+02	-1.794150e+01
1.006935e+02	-1.799186e+01
1.012751e+02	-1.804035e+01
1.018601e+02	-1.808953e+01
1.024484e+02	-1.813793e+01
1.030402e+02	-1.818768e+01
1.036353e+02	-1.823588e+01
1.042339e+02	-1.828654e+01
1.048360e+02	-1.833526e+01
1.054415e+02	-1.838411e+01
1.060505e+02	-1.843289e+01
1.066631e+02	-1.848423e+01
1.072791e+02	-1.853242e+01
1.078988e+02	-1.858099e+01
1.085220e+02	-1.863061e+01
1.091488e+02	-1.868154e+01
1.097793e+02	-1.873033e+01
1.104133e+02	-1.878024e+01
1.110511e+02	-1.882977e+01
1.116925e+02	-1.887758e+01
1.123376e+02	-1.892852e+01
1.129865e+02	-1.897660e+01
1.136391e+02	-1.902690e+01
1.142955e+02	-1.907621e+01
1.149556e+02	-1.912472e+01
1.156196e+02	-1.917433e+01
1.162874e+02	-1.922537e+01
1.169591e+02	-1.927290e+01
1.176347e+02	-1.932377e+01
1.183141e+02	-1.937299e+01
1.189975e+02	-1.942061e+01
1.196848e+02	-1.947285e+01
1.203761e+02	-1.952210e+01
1.210714e+02	-1.957057e+01
1.217707e+02	-1.962150e+01
1.224740e+02	-1.966829e+01
1.231814e+02	-1.971931e+01
1.238929e+02	-1.976873e+01
1.246085e+02	-1.981924e+01
1.253283e+02	-1.986831e+01
1.260522e+02	-1.991660e+01
1.267802e+02	-1.996708e+01
1.275125e+02	-2.001604e+01
1.282490e+02	-2.006444e+01
1.289898e+02	-2.011620e+01
1.297348e+02	-2.016547e+01
1.304842e+02	-2.021477e+01
1.312378e+02	-2.026479e+01
1.319959e+02	-2.031457e+01
1.327583e+02	-2.036411e+01
1.335251e+02	-2.041272e+01
1.342963e+02	-2.046141e+01
1.350720e+02	-2.051340e+01
1.358522e+02	-2.056294e+01
1.366368e+02	-2.061067e+01
1.374260e+02	-2.066044e+01
1.382198e+02	-2.071054e+01
1.390182e+02	-2.076008e+01
1.398211e+02	-2.080997e+01
1.406287e+02	-2.085980e+01
1.414410e+02	-2.090846e+01
1.422579e+02	-2.095906e+01
1.430796e+02	-2.100638e+01
1.439060e+02	-2.105675e+01
1.447372e+02	-2.110786e+01
1.455732e+02	-2.115766e+01
1.464141e+02	-2.120580e+01
1.472597e+02	-2.125659e+01
1.481103e+02	-2.130428e+01
1.489658e+02	-2.135678e+01
1.498262e+02	-2.140439e+01
1.506916e+02	-2.145552e+01
1.515620e+02	-2.150571e+01
1.524374e+02	-2.155387e+01
1.533179e+02	-2.160516e+01
1.542034e+02	-2.165461e+01
1.550941e+02	-2.170347e+01
1.559899e+02	-2.175379e+01
1.568909e+02	-2.180374e+01
1.577971e+02	-2.185335e+01
1.587085e+02	-2.190278e+01
1.596252e+02	-2.195283e+01
1.605472e+02	-2.200073e+01
1.614745e+02	-2.205211e+01
1.624072e+02	-2.210228e+01
1.633453e+02	-2.215018e+01
1.642887e+02	-2.220105e+01
1.652377e+02	-2.225279e+01
1.661921e+02	-2.229992e+01
1.671520e+02	-2.234887e+01
1.681175e+02	-2.240041e+01
1.690885e+02	-2.245077e+01
1.700651e+02	-2.249817e+01
1.710474e+02	-2.254955e+01
1.720354e+02	-2.259797e+01
1.730291e+02	-2.264954e+01
1.740285e+02	-2.269723e+01
1.750337e+02	-2.274691e+01
1.760446e+02	-2.279834e+01
1.770615e+02	-2.284743e+01
1.780842e+02	-2.289701e+01
1.791128e+02	-2.294567e+01
1.801473e+02	-2.299639e+01
1.811878e+02	-2.304739e+01
1.822344e+02	-2.309731e+01
1.832870e+02	-2.314683e+01
1.843456e+02	-2.319651e+01
1.854104e+02	-2.324468e+01
1.864813e+02	-2.329469e+01
1.875584e+02	-2.334657e+01
1.886418e+02	-2.339400e+01
1.897313e+02	-2.344528e+01
1.908272e+02	-2.349539e+01
1.919294e+02	-2.354619e+01
1.930380e+02	-2.359552e+01
1.941530e+02	-2.364433e+01
1.952744e+02	-2.369333e+01
1.964023e+02	-2.374636e+01
1.975367e+02	-2.379350e+01
1.986777e+02	-2.384199e+01
1.998252e+02	-2.389511e+01
2.009794e+02	-2.394542e+01
2.021403e+02	-2.399303e+01
2.033078e+02	-2.404571e+01
2.044821e+02	-2.409388e+01
2.056632e+02	-2.414376e+01
2.068511e+02	-2.419224e+01
2.080459e+02	-2.424525e+01
2.092475e+02	-2.429433e+01
2.104561e+02	-2.434128e+01
2.116717e+02	-2.439130e+01
2.128943e+02	-2.444039e+01
2.141240e+02	-2.449122e+01
2.153608e+02	-2.454230e+01
2.166047e+02	-2.459250e+01
2.178558e+02	-2.464287e+01
2.191141e+02	-2.469336e+01
2.203797e+02	-2.474249e+01
2.216526e+02	-2.479306e+01
2.229329e+02	-2.484246e+01
2.242205e+02	-2.489198e+01
2.255156e+02	-2.494439e+01
2.268182e+02	-2.499512e+01
2.281283e+02	-2.503928e+01
2.294459e+02	-2.508966e+01
2.307712e+02	-2.514172e+01
2.321041e+02	-2.518828e+01
2.334447e+02	-2.524166e+01
2.347931e+02	-2.529117e+01
2.361493e+02	-2.534359e+01
2.375133e+02	-2.539124e+01
2.388851e+02	-2.544010e+01
2.402649e+02	-2.548925e+01
2.416527e+02	-2.553956e+01
2.430484e+02	-2.559250e+01
2.444523e+02	-2.564322e+01
2.458642e+02	-2.568887e+01
2.472843e+02	-2.574049e+01
2.487126e+02	-2.579273e+01
2.501492e+02	-2.583854e+01
2.515940e+02	-2.589048e+01
2.530472e+02	-2.594327e+01
2.545088e+02	-2.599052e+01
2.559789e+02	-2.604140e+01
2.574574e+02	-2.609128e+01
2.589444e+02	-2.613833e+01
2.604401e+02	-2.619054e+01
2.619444e+02	-2.623807e+01
2.634574e+02	-2.629078e+01
2.649791e+02	-2.634113e+01
2.665096e+02	-2.639352e+01
2.680489e+02	-2.644015e+01
2.695972e+02	-2.649065e+01
2.711544e+02	-2.654184e+01
2.727205e+02	-2.658994e+01
2.742958e+02	-2.664169e+01
2.758801e+02	-2.669345e+01
2.774736e+02	-2.673656e+01
2.790762e+02	-2.678885e+01
2.806882e+02	-2.683840e+01
2.823094e+02	-2.688909e+01
2.839400e+02	-2.693880e+01
2.855800e+02	-2.699202e+01
2.872295e+02	-2.704277e+01
2.888886e+02	-2.709254e+01
2.905572e+02	-2.713852e+01
2.922354e+02	-2.718824e+01
2.939234e+02	-2.724190e+01
2.956211e+02	-2.729253e+01
2.973286e+02	-2.733856e+01
2.990459e+02	-2.738904e+01
3.007732e+02	-2.743700e+01
3.025104e+02	-2.748984e+01
3.042577e+02	-2.754063e+01
3.060151e+02	-2.759038e+01
3.077826e+02	-2.763977e+01
3.095604e+02	-2.769115e+01
3.113484e+02	-2.774375e+01
3.131467e+02	-2.778768e+01
3.149554e+02	-2.783675e+01
3.167746e+02	-2.788965e+01
3.186043e+02	-2.793841e+01
3.204445e+02	-2.798981e+01
3.222954e+02	-2.804112e+01
3.241570e+02	-2.808858e+01
3.260293e+02	-2.813938e+01
3.279124e+02	-2.818696e+01
3.298064e+02	-2.823531e+01
3.317114e+02	-2.829140e+01
3.336273e+02	-2.834467e+01
3.355544e+02	-2.839202e+01
3.374925e+02	-2.843897e+01
3.394418e+02	-2.849165e+01
3.414024e+02	-2.854641e+01
3.433744e+02	-2.859123e+01
3.453577e+02	-2.864340e+01
3.473525e+02	-2.868983e+01
3.493588e+02	-2.874087e+01
3.513766e+02	-2.879008e+01
3.534062e+02	-2.884130e+01
3.554474e+02	-2.889241e+01
3.575005e+02	-2.894345e+01
3.595654e+02	-2.898780e+01
3.616422e+02	-2.904009e+01
3.637311e+02	-2.908908e+01
3.658320e+02	-2.914116e+01
3.679450e+02	-2.918842e+01
3.700702e+02	-2.923913e+01
3.722077e+02	-2.928915e+01
3.743576e+02	-2.934078e+01
3.765199e+02	-2.939594e+01
3.786946e+02	-2.944163e+01
3.808820e+02	-2.949084e+01
3.830819e+02	-2.953925e+01
3.852946e+02	-2.958506e+01
3.875200e+02	-2.964504e+01
3.897583e+02	-2.969503e+01
3.920096e+02	-2.974556e+01
3.942738e+02	-2.979199e+01
3.965511e+02	-2.984129e+01
3.988416e+02	-2.989308e+01
4.011452e+02	-2.994145e+01
4.034622e+02	-2.999203e+01
4.057926e+02	-3.004343e+01
4.081365e+02	-3.009050e+01
4.104938e+02	-3.014129e+01
4.128648e+02	-3.018865e+01
4.152495e+02	-3.023756e+01
4.176480e+02	-3.028958e+01
4.200603e+02	-3.034060e+01
4.224866e+02	-3.039251e+01
4.249268e+02	-3.044685e+01
4.273812e+02	-3.049262e+01
4.298497e+02	-3.054427e+01
4.323325e+02	-3.059469e+01
4.348297e+02	-3.064718e+01
4.373412e+02	-3.069522e+01
4.398673e+02	-3.074287e+01
4.424079e+02	-3.079945e+01
4.449633e+02	-3.084535e+01
4.475334e+02	-3.089122e+01
4.501183e+02	-3.094151e+01
4.527182e+02	-3.099452e+01
4.553330e+02	-3.104456e+01
4.579630e+02	-3.109133e+01
4.606082e+02	-3.114698e+01
4.632687e+02	-3.119321e+01
4.659445e+02	-3.123981e+01
4.686358e+02	-3.129432e+01
4.713426e+02	-3.134471e+01
4.740650e+02	-3.139571e+01
4.768032e+02	-3.144470e+01
4.795572e+02	-3.149520e+01
4.823271e+02	-3.154899e+01
4.851130e+02	-3.160012e+01
4.879150e+02	-3.164331e+01
4.907332e+02	-3.169629e+01
4.935676e+02	-3.175351e+01
4.964185e+02	-3.179870e+01
4.992858e+02	-3.184664e+01
5.021696e+02	-3.190064e+01
5.050701e+02	-3.195626e+01
5.079874e+02	-3.199542e+01
5.109215e+02	-3.204726e+01
5.138726e+02	-3.209944e+01
5.168407e+02	-3.214668e+01
5.198259e+02	-3.219743e+01
5.228284e+02	-3.224525e+01
5.258482e+02	-3.229820e+01
5.288855e+02	-3.235124e+01
5.319403e+02	-3.240705e+01
5.350128e+02	-3.244960e+01
5.381030e+02	-3.250351e+01
5.412111e+02	-3.255719e+01
5.443371e+02	-3.260370e+01
5.474812e+02	-3.265106e+01
5.506434e+02	-3.269896e+01
5.538239e+02	-3.275068e+01
5.570228e+02	-3.280403e+01
5.602401e+02	-3.285100e+01
5.634760e+02	-3.290555e+01
5.667306e+02	-3.294887e+01
5.700040e+02	-3.300699e+01
5.732964e+02	-3.304973e+01
5.766077e+02	-3.310190e+01
5.799382e+02	-3.315318e+01
5.832879e+02	-3.320701e+01
5.866569e+02	-3.325286e+01
5.900454e+02	-3.330122e+01
5.934535e+02	-3.335854e+01
5.968813e+02	-3.339427e+01
6.003288e+02	-3.345802e+01
6.037963e+02	-3.350164e+01
6.072838e+02	-3.355385e+01
6.107914e+02	-3.360592e+01
6.143194e+02	-3.365770e+01
6.178676e+02	-3.371161e+01
6.214364e+02	-3.375907e+01
6.250258e+02	-3.379863e+01
6.286359e+02	-3.386467e+01
6.322669e+02	-3.391300e+01
6.359189e+02	-3.395746e+01
6.395919e+02	-3.400796e+01
6.432862e+02	-3.405772e+01
6.470017e+02	-3.411252e+01
6.507388e+02	-3.416563e+01
6.544974e+02	-3.421255e+01
6.582778e+02	-3.426566e+01
6.620800e+02	-3.430902e+01
6.659041e+02	-3.436538e+01
6.697504e+02	-3.441773e+01
6.736188e+02	-3.445435e+01
6.775096e+02	-3.450860e+01
6.814229e+02	-3.456069e+01
6.853587e+02	-3.461106e+01
6.893173e+02	-3.466837e+01
6.932988e+02	-3.471139e+01
6.973033e+02	-3.475466e+01
7.013309e+02	-3.481691e+01
