Frequency(Hz)	Magnitude(dB)
1.000000e+01	-2.353177e+00
1.005776e+01	-2.374211e+00
1.011585e+01	-2.395446e+00
1.017428e+01	-2.416506e+00
1.023305e+01	-2.438184e+00
1.029215e+01	-2.459483e+00
1.035160e+01	-2.480973e+00
1.041139e+01	-2.503230e+00
1.047153e+01	-2.525201e+00
1.053201e+01	-2.547161e+00
1.059284e+01	-2.569776e+00
1.065403e+01	-2.592168e+00
1.071556e+01	-2.614324e+00
1.077746e+01	-2.637292e+00
1.083971e+01	-2.660161e+00
1.090232e+01	-2.682883e+00
1.096529e+01	-2.706277e+00
1.102862e+01	-2.729275e+00
1.109232e+01	-2.752933e+00
1.115639e+01	-2.776622e+00
1.122083e+01	-2.800092e+00
1.128564e+01	-2.823870e+00
1.135083e+01	-2.847839e+00
1.141639e+01	-2.871762e+00
1.148233e+01	-2.896137e+00
1.154865e+01	-2.920502e+00
1.161536e+01	-2.945323e+00
1.168245e+01	-2.970082e+00
1.174992e+01	-2.994659e+00
1.181779e+01	-3.020216e+00
1.188605e+01	-3.044918e+00
1.195470e+01	-3.070042e+00
1.202375e+01	-3.095806e+00
1.209320e+01	-3.121328e+00
1.216305e+01	-3.146921e+00
1.223330e+01	-3.172905e+00
1.230396e+01	-3.198995e+00
1.237503e+01	-3.225123e+00
1.244651e+01	-3.251386e+00
1.251840e+01	-3.277709e+00
1.259070e+01	-3.304337e+00
1.266343e+01	-3.331226e+00
1.273657e+01	-3.357906e+00
1.281014e+01	-3.385126e+00
1.288413e+01	-3.412057e+00
1.295855e+01	-3.439266e+00
1.303339e+01	-3.466809e+00
1.310867e+01	-3.494221e+00
1.318439e+01	-3.522236e+00
1.326054e+01	-3.549828e+00
1.333713e+01	-3.578164e+00
1.341417e+01	-3.606060e+00
1.349165e+01	-3.634232e+00
1.356958e+01	-3.662676e+00
1.364795e+01	-3.691360e+00
1.372678e+01	-3.720148e+00
1.380607e+01	-3.748954e+00
1.388581e+01	-3.778088e+00
1.396602e+01	-3.807097e+00
1.404668e+01	-3.836457e+00
1.412782e+01	-3.865651e+00
1.420942e+01	-3.895308e+00
1.429149e+01	-3.925188e+00
1.437404e+01	-3.955045e+00
1.445706e+01	-3.984776e+00
1.454057e+01	-4.014784e+00
1.462455e+01	-4.045346e+00
1.470902e+01	-4.075569e+00
1.479398e+01	-4.106095e+00
1.487943e+01	-4.136697e+00
1.496537e+01	-4.167695e+00
1.505181e+01	-4.198508e+00
1.513875e+01	-4.229458e+00
1.522619e+01	-4.260674e+00
1.531414e+01	-4.291992e+00
1.540259e+01	-4.323332e+00
1.549156e+01	-4.355304e+00
1.558103e+01	-4.386931e+00
1.567103e+01	-4.418745e+00
1.576155e+01	-4.450763e+00
1.585258e+01	-4.483026e+00
1.594415e+01	-4.515109e+00
1.603624e+01	-4.547407e+00
1.612886e+01	-4.580002e+00
1.622202e+01	-4.612809e+00
1.631572e+01	-4.645572e+00
1.640996e+01	-4.678569e+00
1.650474e+01	-4.711445e+00
1.660008e+01	-4.744903e+00
1.669596e+01	-4.778391e+00
1.679239e+01	-4.811846e+00
1.688938e+01	-4.845033e+00
1.698694e+01	-4.878957e+00
1.708505e+01	-4.912478e+00
1.718373e+01	-4.946527e+00
1.728299e+01	-4.980479e+00
1.738281e+01	-5.015007e+00
1.748322e+01	-5.049020e+00
1.758420e+01	-5.083401e+00
1.768576e+01	-5.117921e+00
1.778792e+01	-5.152857e+00
1.789066e+01	-5.187324e+00
1.799399e+01	-5.222407e+00
1.809793e+01	-5.257469e+00
1.820246e+01	-5.292956e+00
1.830760e+01	-5.327812e+00
1.841334e+01	-5.363667e+00
1.851969e+01	-5.399027e+00
1.862666e+01	-5.434701e+00
1.873425e+01	-5.470517e+00
1.884246e+01	-5.506380e+00
1.895129e+01	-5.542523e+00
1.906075e+01	-5.578371e+00
1.917085e+01	-5.614778e+00
1.928158e+01	-5.650932e+00
1.939295e+01	-5.687672e+00
1.950496e+01	-5.724345e+00
1.961762e+01	-5.760748e+00
1.973093e+01	-5.797381e+00
1.984490e+01	-5.834416e+00
1.995952e+01	-5.871552e+00
2.007480e+01	-5.908628e+00
2.019076e+01	-5.946056e+00
2.030738e+01	-5.983463e+00
2.042467e+01	-6.020709e+00
2.054264e+01	-6.058443e+00
2.066130e+01	-6.096053e+00
2.078064e+01	-6.133750e+00
2.090066e+01	-6.171619e+00
2.102139e+01	-6.209901e+00
2.114280e+01	-6.247750e+00
2.126492e+01	-6.285965e+00
2.138775e+01	-6.324467e+00
2.151128e+01	-6.362983e+00
2.163553e+01	-6.401249e+00
2.176050e+01	-6.439669e+00
2.188619e+01	-6.478663e+00
2.201260e+01	-6.517468e+00
2.213974e+01	-6.556592e+00
2.226762e+01	-6.595620e+00
2.239624e+01	-6.634461e+00
2.252560e+01	-6.673481e+00
2.265571e+01	-6.713213e+00
2.278656e+01	-6.752034e+00
2.291818e+01	-6.792118e+00
2.305055e+01	-6.831522e+00
2.318369e+01	-6.871054e+00
2.331760e+01	-6.911132e+00
2.345228e+01	-6.951008e+00
2.358774e+01	-6.991033e+00
2.372398e+01	-7.030919e+00
2.386101e+01	-7.071061e+00
2.399883e+01	-7.111775e+00
2.413745e+01	-7.151931e+00
2.427686e+01	-7.192391e+00
2.441709e+01	-7.232984e+00
2.455812e+01	-7.273417e+00
2.469997e+01	-7.313588e+00
2.484263e+01	-7.354791e+00
2.498612e+01	-7.395633e+00
2.513044e+01	-7.436406e+00
2.527559e+01	-7.477717e+00
2.542158e+01	-7.518645e+00
2.556842e+01	-7.559930e+00
2.571610e+01	-7.601471e+00
2.586463e+01	-7.642673e+00
2.601403e+01	-7.683989e+00
2.616428e+01	-7.725658e+00
2.631541e+01	-7.767228e+00
2.646740e+01	-7.808723e+00
2.662028e+01	-7.850904e+00
2.677404e+01	-7.892898e+00
2.692868e+01	-7.934648e+00
2.708422e+01	-7.976896e+00
2.724066e+01	-8.019101e+00
2.739800e+01	-8.061107e+00
2.755625e+01	-8.103057e+00
2.771541e+01	-8.145449e+00
2.787550e+01	-8.187766e+00
2.803650e+01	-8.230296e+00
2.819844e+01	-8.273004e+00
2.836131e+01	-8.315640e+00
2.852513e+01	-8.358314e+00
2.868989e+01	-8.400558e+00
2.885560e+01	-8.443490e+00
2.902227e+01	-8.486826e+00
2.918990e+01	-8.529128e+00
2.935850e+01	-8.572383e+00
2.952807e+01	-8.615320e+00
2.969863e+01	-8.658686e+00
2.987016e+01	-8.702059e+00
3.004269e+01	-8.745190e+00
3.021622e+01	-8.788867e+00
3.039075e+01	-8.832437e+00
3.056628e+01	-8.875687e+00
3.074283e+01	-8.919341e+00
3.092040e+01	-8.962894e+00
3.109900e+01	-9.006938e+00
3.127862e+01	-9.050952e+00
3.145929e+01	-9.094172e+00
3.164099e+01	-9.138427e+00
3.182375e+01	-9.182319e+00
3.200756e+01	-9.226277e+00
3.219244e+01	-9.270555e+00
3.237838e+01	-9.314344e+00
3.256540e+01	-9.358761e+00
3.275349e+01	-9.403293e+00
3.294268e+01	-9.446733e+00
3.313295e+01	-9.491428e+00
3.332433e+01	-9.535693e+00
3.351681e+01	-9.580458e+00
3.371040e+01	-9.625107e+00
3.390511e+01	-9.669625e+00
3.410094e+01	-9.713928e+00
3.429791e+01	-9.759325e+00
3.449601e+01	-9.803281e+00
3.469526e+01	-9.848570e+00
3.489566e+01	-9.893343e+00
3.509721e+01	-9.938691e+00
3.529993e+01	-9.983029e+00
3.550382e+01	-1.002815e+01
3.570889e+01	-1.007330e+01
3.591515e+01	-1.011856e+01
3.612259e+01	-1.016374e+01
3.633123e+01	-1.020928e+01
3.654108e+01	-1.025417e+01
3.675214e+01	-1.029989e+01
3.696442e+01	-1.034497e+01
3.717792e+01	-1.039030e+01
3.739266e+01	-1.043612e+01
3.760864e+01	-1.048078e+01
3.782587e+01	-1.052721e+01
3.804435e+01	-1.057248e+01
3.826409e+01	-1.061829e+01
3.848510e+01	-1.066367e+01
3.870739e+01	-1.070924e+01
3.893096e+01	-1.075661e+01
3.915583e+01	-1.080132e+01
3.938199e+01	-1.084725e+01
3.960946e+01	-1.089337e+01
3.983824e+01	-1.093944e+01
4.006834e+01	-1.098515e+01
4.029978e+01	-1.103112e+01
4.053255e+01	-1.107786e+01
4.076666e+01	-1.112344e+01
4.100213e+01	-1.116967e+01
4.123896e+01	-1.121564e+01
4.147715e+01	-1.126236e+01
4.171672e+01	-1.130881e+01
4.195767e+01	-1.135508e+01
4.220002e+01	-1.140136e+01
4.244377e+01	-1.144732e+01
4.268892e+01	-1.149442e+01
4.293549e+01	-1.154018e+01
4.318348e+01	-1.158713e+01
4.343291e+01	-1.163439e+01
4.368377e+01	-1.167999e+01
4.393609e+01	-1.172749e+01
4.418986e+01	-1.177296e+01
4.444510e+01	-1.182116e+01
4.470182e+01	-1.186742e+01
4.496001e+01	-1.191395e+01
4.521970e+01	-1.196070e+01
4.548089e+01	-1.200773e+01
4.574358e+01	-1.205475e+01
4.600779e+01	-1.210126e+01
4.627353e+01	-1.214798e+01
4.654081e+01	-1.219527e+01
4.680963e+01	-1.224287e+01
4.708000e+01	-1.228918e+01
4.735193e+01	-1.233691e+01
4.762543e+01	-1.238433e+01
4.790051e+01	-1.243063e+01
4.817719e+01	-1.247798e+01
4.845545e+01	-1.252489e+01
4.873533e+01	-1.257235e+01
4.901682e+01	-1.261973e+01
4.929994e+01	-1.266705e+01
4.958470e+01	-1.271416e+01
4.987110e+01	-1.276183e+01
5.015915e+01	-1.280975e+01
5.044887e+01	-1.285630e+01
5.074026e+01	-1.290356e+01
5.103333e+01	-1.295206e+01
5.132810e+01	-1.299941e+01
5.162457e+01	-1.304683e+01
5.192275e+01	-1.309500e+01
5.222265e+01	-1.314118e+01
5.252429e+01	-1.318982e+01
5.282767e+01	-1.323741e+01
5.313280e+01	-1.328487e+01
5.343969e+01	-1.333209e+01
5.374836e+01	-1.337951e+01
5.405880e+01	-1.342806e+01
5.437105e+01	-1.347553e+01
5.468509e+01	-1.352372e+01
5.500095e+01	-1.357187e+01
5.531863e+01	-1.361892e+01
5.563815e+01	-1.366768e+01
5.595951e+01	-1.371465e+01
5.628273e+01	-1.376309e+01
5.660782e+01	-1.380985e+01
5.693479e+01	-1.385819e+01
5.726364e+01	-1.390671e+01
5.759439e+01	-1.395573e+01
5.792705e+01	-1.400282e+01
5.826164e+01	-1.404997e+01
5.859815e+01	-1.409952e+01
5.893662e+01	-1.414708e+01
5.927703e+01	-1.419429e+01
5.961941e+01	-1.424349e+01
5.996377e+01	-1.429158e+01
6.031012e+01	-1.433923e+01
6.065847e+01	-1.438688e+01
6.100883e+01	-1.443525e+01
6.136121e+01	-1.448311e+01
6.171563e+01	-1.453287e+01
6.207210e+01	-1.458113e+01
6.243063e+01	-1.462948e+01
6.279122e+01	-1.467643e+01
6.315390e+01	-1.472543e+01
6.351868e+01	-1.477437e+01
6.388556e+01	-1.482249e+01
6.425456e+01	-1.487061e+01
6.462569e+01	-1.491901e+01
6.499897e+01	-1.496835e+01
6.537440e+01	-1.501643e+01
6.575200e+01	-1.506397e+01
6.613178e+01	-1.511255e+01
6.651375e+01	-1.516078e+01
6.689793e+01	-1.520940e+01
6.728433e+01	-1.525783e+01
6.767297e+01	-1.530718e+01
6.806384e+01	-1.535557e+01
6.845698e+01	-1.540409e+01
6.885238e+01	-1.545219e+01
6.925007e+01	-1.550119e+01
6.965005e+01	-1.554967e+01
7.005235e+01	-1.559835e+01
7.045697e+01	-1.564702e+01
7.086393e+01	-1.569586e+01
7.127323e+01	-1.574523e+01
7.168490e+01	-1.579352e+01
7.209895e+01	-1.584217e+01
7.251539e+01	-1.589134e+01
7.293424e+01	-1.593955e+01
7.335551e+01	-1.598851e+01
7.377920e+01	-1.603578e+01
7.420535e+01	-1.608616e+01
7.463396e+01	-1.613457e+01
7.506504e+01	-1.618403e+01
7.549861e+01	-1.623262e+01
7.593469e+01	-1.628033e+01
7.637328e+01	-1.633005e+01
7.681441e+01	-1.637942e+01
7.725809e+01	-1.642611e+01
7.770433e+01	-1.647658e+01
7.815315e+01	-1.652526e+01
7.860456e+01	-1.657421e+01
7.905857e+01	-1.662348e+01
7.951521e+01	-1.667118e+01
7.997449e+01	-1.672089e+01
8.043642e+01	-1.677092e+01
8.090102e+01	-1.682019e+01
8.136830e+01	-1.686785e+01
8.183828e+01	-1.691628e+01
8.231097e+01	-1.696661e+01
8.278640e+01	-1.701408e+01
8.326457e+01	-1.706438e+01
8.374550e+01	-1.711373e+01
8.422921e+01	-1.716267e+01
8.471572e+01	-1.721101e+01
8.520503e+01	-1.726046e+01
8.569717e+01	-1.731035e+01
8.619215e+01	-1.735879e+01
8.669000e+01	-1.740854e+01
8.719071e+01	-1.745733e+01
8.769432e+01	-1.750504e+01
8.820084e+01	-1.755465e+01
8.871029e+01	-1.760434e+01
8.922267e+01	-1.765471e+01
8.973802e+01	-1.770328e+01
9.025634e+01	-1.775268e+01
9.077766e+01	-1.780113e+01
9.130199e+01	-1.785086e+01
9.182935e+01	-1.789947e+01
9.235975e+01	-1.794830e+01
9.289321e+01	-1.799735e+01
9.342976e+01	-1.804536e+01
9.396941e+01	-1.809732e+01
9.451217e+01	-1.814608e+01
9.505807e+01	-1.819514e+01
9.560712e+01	-1.824505e+01
9.615934e+01	-1.829270e+01
9.671476e+01	-1.834244e+01
9.727338e+01	-1.839175e+01
9.783522e+01	-1.844243e+01
9.840032e+01	-1.848994e+01
9.896867e+01	-1.854104e+01
9.954031e+01	-1.858920e+01
1.001153e+02	-1.863943e+01
1.006935e+02	-1.868826e+01
1.012751e+02	-1.873698e+01
1.018601e+02	-1.878733e+01
1.024484e+02	-1.883790e+01
1.030402e+02	-1.888532e+01
1.036353e+02	-1.893559e+01
1.042339e+02	-1.898435e+01
1.048360e+02	-1.903447e+01
1.054415e+02	-1.908372e+01
1.060505e+02	-1.913324e+01
1.066631e+02	-1.918217e+01
1.072791e+02	-1.923347e+01
1.078988e+02	-1.928087e+01
1.085220e+02	-1.933081e+01
1.091488e+02	-1.937775e+01
1.097793e+02	-1.943050e+01
1.104133e+02	-1.947837e+01
1.110511e+02	-1.952857e+01
1.116925e+02	-1.957798e+01
1.123376e+02	-1.962535e+01
1.129865e+02	-1.967491e+01
1.136391e+02	-1.972476e+01
1.142955e+02	-1.977493e+01
1.149556e+02	-1.982567e+01
1.156196e+02	-1.987506e+01
1.162874e+02	-1.992664e+01
1.169591e+02	-1.997446e+01
1.176347e+02	-2.002182e+01
1.183141e+02	-2.007409e+01
1.189975e+02	-2.012180e+01
1.196848e+02	-2.017305e+01
1.203761e+02	-2.022207e+01
1.210714e+02	-2.027010e+01
1.217707e+02	-2.032291e+01
1.224740e+02	-2.037088e+01
1.231814e+02	-2.042011e+01
1.238929e+02	-2.046963e+01
1.246085e+02	-2.052198e+01
1.253283e+02	-2.056862e+01
1.260522e+02	-2.061819e+01
1.267802e+02	-2.066815e+01
1.275125e+02	-2.071855e+01
1.282490e+02	-2.076808e+01
1.289898e+02	-2.081750e+01
1.297348e+02	-2.086609e+01
1.304842e+02	-2.091595e+01
1.312378e+02	-2.096422e+01
1.319959e+02	-2.101481e+01
1.327583e+02	-2.106386e+01
1.335251e+02	-2.111526e+01
1.342963e+02	-2.116355e+01
1.350720e+02	-2.121448e+01
1.358522e+02	-2.126393e+01
1.366368e+02	-2.131357e+01
1.374260e+02	-2.136326e+01
1.382198e+02	-2.141263e+01
1.390182e+02	-2.146198e+01
1.398211e+02	-2.151276e+01
1.406287e+02	-2.156466e+01
1.414410e+02	-2.161317e+01
1.422579e+02	-2.166274e+01
1.430796e+02	-2.171198e+01
1.439060e+02	-2.175982e+01
1.447372e+02	-2.181150e+01
1.455732e+02	-2.186031e+01
1.464141e+02	-2.190927e+01
1.472597e+02	-2.195879e+01
1.481103e+02	-2.200722e+01
1.489658e+02	-2.205879e+01
1.498262e+02	-2.210869e+01
1.506916e+02	-2.215904e+01
1.515620e+02	-2.220742e+01
1.524374e+02	-2.225964e+01
1.533179e+02	-2.230757e+01
1.542034e+02	-2.235612e+01
1.550941e+02	-2.240507e+01
1.559899e+02	-2.245667e+01
1.568909e+02	-2.250771e+01
1.577971e+02	-2.255596e+01
1.587085e+02	-2.260626e+01
1.596252e+02	-2.265611e+01
1.605472e+02	-2.270514e+01
1.614745e+02	-2.275643e+01
1.624072e+02	-2.280507e+01
1.633453e+02	-2.285475e+01
1.642887e+02	-2.290490e+01
1.652377e+02	-2.295461e+01
1.661921e+02	-2.300453e+01
1.671520e+02	-2.305222e+01
1.681175e+02	-2.310427e+01
1.690885e+02	-2.315454e+01
1.700651e+02	-2.320230e+01
1.710474e+02	-2.325427e+01
1.720354e+02	-2.330469e+01
1.730291e+02	-2.335437e+01
1.740285e+02	-2.340183e+01
1.750337e+02	-2.345222e+01
1.760446e+02	-2.350204e+01
1.770615e+02	-2.355047e+01
1.780842e+02	-2.360377e+01
1.791128e+02	-2.365209e+01
1.801473e+02	-2.370202e+01
1.811878e+02	-2.375028e+01
1.822344e+02	-2.380106e+01
1.832870e+02	-2.385152e+01
1.843456e+02	-2.390120e+01
1.854104e+02	-2.394942e+01
1.864813e+02	-2.400157e+01
1.875584e+02	-2.405081e+01
1.886418e+02	-2.410036e+01
1.897313e+02	-2.415032e+01
1.908272e+02	-2.419966e+01
1.919294e+02	-2.425105e+01
1.930380e+02	-2.429901e+01
1.941530e+02	-2.435014e+01
1.952744e+02	-2.440025e+01
1.964023e+02	-2.444828e+01
1.975367e+02	-2.450044e+01
1.986777e+02	-2.455093e+01
1.998252e+02	-2.459926e+01
2.009794e+02	-2.465037e+01
2.021403e+02	-2.470113e+01
2.033078e+02	-2.475119e+01
2.044821e+02	-2.480110e+01
2.056632e+02	-2.484962e+01
2.068511e+02	-2.490130e+01
2.080459e+02	-2.494814e+01
2.092475e+02	-2.499863e+01
2.104561e+02	-2.504797e+01
2.116717e+02	-2.509699e+01
2.128943e+02	-2.514868e+01
2.141240e+02	-2.519872e+01
2.153608e+02	-2.524665e+01
2.166047e+02	-2.529703e+01
2.178558e+02	-2.535042e+01
2.191141e+02	-2.540176e+01
2.203797e+02	-2.544937e+01
2.216526e+02	-2.549765e+01
2.229329e+02	-2.554787e+01
2.242205e+02	-2.559526e+01
2.255156e+02	-2.564693e+01
2.268182e+02	-2.569567e+01
2.281283e+02	-2.574642e+01
2.294459e+02	-2.579594e+01
2.307712e+02	-2.584799e+01
2.321041e+02	-2.589831e+01
2.334447e+02	-2.594494e+01
2.347931e+02	-2.599632e+01
2.361493e+02	-2.604765e+01
2.375133e+02	-2.609628e+01
2.388851e+02	-2.614655e+01
2.402649e+02	-2.619524e+01
2.416527e+02	-2.624934e+01
2.430484e+02	-2.629582e+01
2.444523e+02	-2.634578e+01
2.458642e+02	-2.639745e+01
2.472843e+02	-2.644741e+01
2.487126e+02	-2.649785e+01
2.501492e+02	-2.654627e+01
2.515940e+02	-2.659785e+01
2.530472e+02	-2.665036e+01
2.545088e+02	-2.669945e+01
2.559789e+02	-2.674506e+01
2.574574e+02	-2.679711e+01
2.589444e+02	-2.684619e+01
2.604401e+02	-2.689627e+01
2.619444e+02	-2.694647e+01
2.634574e+02	-2.699706e+01
2.649791e+02	-2.704684e+01
2.665096e+02	-2.709607e+01
2.680489e+02	-2.714592e+01
2.695972e+02	-2.720043e+01
2.711544e+02	-2.724572e+01
2.727205e+02	-2.729354e+01
2.742958e+02	-2.734389e+01
2.758801e+02	-2.739668e+01
2.774736e+02	-2.744612e+01
2.790762e+02	-2.749486e+01
2.806882e+02	-2.754911e+01
2.823094e+02	-2.759666e+01
2.839400e+02	-2.764936e+01
2.855800e+02	-2.769499e+01
2.872295e+02	-2.774411e+01
2.888886e+02	-2.779676e+01
2.905572e+02	-2.784765e+01
2.922354e+02	-2.789320e+01
2.939234e+02	-2.794414e+01
2.956211e+02	-2.799740e+01
2.973286e+02	-2.804765e+01
2.990459e+02	-2.809815e+01
3.007732e+02	-2.814654e+01
3.025104e+02	-2.819540e+01
3.042577e+02	-2.824247e+01
3.060151e+02	-2.829518e+01
3.077826e+02	-2.834729e+01
3.095604e+02	-2.840008e+01
3.113484e+02	-2.844895e+01
3.131467e+02	-2.849593e+01
3.149554e+02	-2.854566e+01
3.167746e+02	-2.860110e+01
3.186043e+02	-2.864926e+01
3.204445e+02	-2.870021e+01
3.222954e+02	-2.874713e+01
3.241570e+02	-2.879754e+01
3.260293e+02	-2.884841e+01
3.279124e+02	-2.889894e+01
3.298064e+02	-2.895153e+01
3.317114e+02	-2.899487e+01
3.336273e+02	-2.904666e+01
3.355544e+02	-2.909647e+01
3.374925e+02	-2.914991e+01
3.394418e+02	-2.919825e+01
3.414024e+02	-2.924536e+01
3.433744e+02	-2.929942e+01
3.453577e+02	-2.934575e+01
3.473525e+02	-2.939920e+01
3.493588e+02	-2.944537e+01
3.513766e+02	-2.949723e+01
3.534062e+02	-2.955532e+01
3.554474e+02	-2.960202e+01
3.575005e+02	-2.964957e+01
3.595654e+02	-2.970094e+01
3.616422e+02	-2.975140e+01
3.637311e+02	-2.980274e+01
3.658320e+02	-2.984530e+01
3.679450e+02	-2.989981e+01
3.700702e+02	-2.995017e+01
3.722077e+02	-2.999886e+01
3.743576e+02	-3.005564e+01
3.765199e+02	-3.009972e+01
3.786946e+02	-3.015148e+01
3.808820e+02	-3.020360e+01
3.830819e+02	-3.024754e+01
3.852946e+02	-3.029779e+01
3.875200e+02	-3.034656e+01
3.897583e+02	-3.040309e+01
3.920096e+02	-3.044902e+01
3.942738e+02	-3.050268e+01
3.965511e+02	-3.055697e+01
3.988416e+02	-3.060061e+01
4.011452e+02	-3.065330e+01
4.034622e+02	-3.069609e+01
4.057926e+02	-3.074739e+01
4.081365e+02	-3.080083e+01
4.104938e+02	-3.084957e+01
4.128648e+02	-3.090035e+01
4.152495e+02	-3.095015e+01
4.176480e+02	-3.100031e+01
4.200603e+02	-3.105389e+01
4.224866e+02	-3.110108e+01
4.249268e+02	-3.115114e+01
4.273812e+02	-3.120186e+01
4.298497e+02	-3.124948e+01
4.323325e+02	-3.130687e+01
4.348297e+02	-3.135018e+01
4.373412e+02	-3.140771e+01
4.398673e+02	-3.145040e+01
4.424079e+02	-3.150319e+01
4.449633e+02	-3.155317e+01
4.475334e+02	-3.160275e+01
4.501183e+02	-3.164784e+01
4.527182e+02	-3.170168e+01
4.553330e+02	-3.174930e+01
4.579630e+02	-3.180080e+01
4.606082e+02	-3.185678e+01
4.632687e+02	-3.190010e+01
4.659445e+02	-3.194618e+01
4.686358e+02	-3.200482e+01
4.713426e+02	-3.204893e+01
4.740650e+02	-3.210811e+01
4.768032e+02	-3.216067e+01
4.795572e+02	-3.220872e+01
4.823271e+02	-3.226319e+01
4.851130e+02	-3.230566e+01
4.879150e+02	-3.236157e+01
4.907332e+02	-3.240754e+01
4.935676e+02	-3.245678e+01
4.964185e+02	-3.250684e+01
4.992858e+02	-3.255185e+01
5.021696e+02	-3.260657e+01
5.050701e+02	-3.265501e+01
5.079874e+02	-3.271026e+01
5.109215e+02	-3.275710e+01
5.138726e+02	-3.280326e+01
5.168407e+02	-3.285398e+01
5.198259e+02	-3.291149e+01
5.228284e+02	-3.295508e+01
5.258482e+02	-3.301053e+01
5.288855e+02	-3.305637e+01
5.319403e+02	-3.310660e+01
5.350128e+02	-3.316303e+01
5.381030e+02	-3.320977e+01
5.412111e+02	-3.325866e+01
5.443371e+02	-3.331059e+01
5.474812e+02	-3.336211e+01
5.506434e+02	-3.341147e+01
5.538239e+02	-3.346856e+01
5.570228e+02	-3.351848e+01
5.602401e+02	-3.356630e+01
5.634760e+02	-3.361427e+01
5.667306e+02	-3.366599e+01
5.700040e+02	-3.370946e+01
5.732964e+02	-3.376889e+01
5.766077e+02	-3.381732e+01
5.799382e+02	-3.386181e+01
5.832879e+02	-3.391302e+01
5.866569e+02	-3.396588e+01
5.900454e+02	-3.400751e+01
5.934535e+02	-3.407312e+01
5.968813e+02	-3.411943e+01
6.003288e+02	-3.416478e+01
6.037963e+02	-3.421573e+01
6.072838e+02	-3.427202e+01
6.107914e+02	-3.431473e+01
6.143194e+02	-3.436880e+01
6.178676e+02	-3.441827e+01
6.214364e+02	-3.446883e+01
6.250258e+02	-3.451379e+01
6.286359e+02	-3.456657e+01
6.322669e+02	-3.462320e+01
6.359189e+02	-3.467479e+01
6.395919e+02	-3.472000e+01
6.432862e+02	-3.476779e+01
6.470017e+02	-3.481911e+01
6.507388e+02	-3.486741e+01
6.544974e+02	-3.493084e+01
6.582778e+02	-3.497128e+01
6.620800e+02	-3.501856e+01
6.659041e+02	-3.507267e+01
6.697504e+02	-3.512388e+01
6.736188e+02	-3.517372e+01
6.775096e+02	-3.522782e+01
6.814229e+02	-3.526870e+01
6.853587e+02	-3.532063e+01
6.893173e+02	-3.536783e+01
6.932988e+02	-3.542080e+01
6.973033e+02	-3.547605e+01
7.013309e+02	-3.553208e+01
