Frequency(Hz)	Magnitude(dB)
1.000000e+01	-2.233836e+00
1.005776e+01	-2.254219e+00
1.011585e+01	-2.274449e+00
1.017428e+01	-2.295031e+00
1.023305e+01	-2.315529e+00
1.029215e+01	-2.336252e+00
1.035160e+01	-2.357255e+00
1.041139e+01	-2.378278e+00
1.047153e+01	-2.399461e+00
1.053201e+01	-2.420616e+00
1.059284e+01	-2.442355e+00
1.065403e+01	-2.463494e+00
1.071556e+01	-2.485334e+00
1.077746e+01	-2.507338e+00
1.083971e+01	-2.529370e+00
1.090232e+01	-2.551690e+00
1.096529e+01	-2.573749e+00
1.102862e+01	-2.596228e+00
1.109232e+01	-2.618855e+00
1.115639e+01	-2.641464e+00
1.122083e+01	-2.664548e+00
1.128564e+01	-2.687297e+00
1.135083e+01	-2.710491e+00
1.141639e+01	-2.733877e+00
1.148233e+01	-2.757347e+00
1.154865e+01	-2.780786e+00
1.161536e+01	-2.804549e+00
1.168245e+01	-2.828503e+00
1.174992e+01	-2.852560e+00
1.181779e+01	-2.876691e+00
1.188605e+01	-2.900773e+00
1.195470e+01	-2.925422e+00
1.202375e+01	-2.949946e+00
1.209320e+01	-2.974668e+00
1.216305e+01	-2.999654e+00
1.223330e+01	-3.024747e+00
1.230396e+01	-3.049700e+00
1.237503e+01	-3.075063e+00
1.244651e+01	-3.100560e+00
1.251840e+01	-3.126121e+00
1.259070e+01	-3.152060e+00
1.266343e+01	-3.177767e+00
1.273657e+01	-3.203698e+00
1.281014e+01	-3.229994e+00
1.288413e+01	-3.256141e+00
1.295855e+01	-3.282789e+00
1.303339e+01	-3.309376e+00
1.310867e+01	-3.336350e+00
1.318439e+01	-3.363115e+00
1.326054e+01	-3.389998e+00
1.333713e+01	-3.417319e+00
1.341417e+01	-3.444508e+00
1.349165e+01	-3.472001e+00
1.356958e+01	-3.499446e+00
1.364795e+01	-3.527403e+00
1.372678e+01	-3.555345e+00
1.380607e+01	-3.583002e+00
1.388581e+01	-3.611258e+00
1.396602e+01	-3.640100e+00
1.404668e+01	-3.668210e+00
1.412782e+01	-3.697092e+00
1.420942e+01	-3.725458e+00
1.429149e+01	-3.754597e+00
1.437404e+01	-3.783471e+00
1.445706e+01	-3.812472e+00
1.454057e+01	-3.841891e+00
1.462455e+01	-3.871472e+00
1.470902e+01	-3.901145e+00
1.479398e+01	-3.930623e+00
1.487943e+01	-3.960556e+00
1.496537e+01	-3.990529e+00
1.505181e+01	-4.020757e+00
1.513875e+01	-4.051160e+00
1.522619e+01	-4.081463e+00
1.531414e+01	-4.112055e+00
1.540259e+01	-4.142551e+00
1.549156e+01	-4.173195e+00
1.558103e+01	-4.204237e+00
1.567103e+01	-4.235518e+00
1.576155e+01	-4.266700e+00
1.585258e+01	-4.298032e+00
1.594415e+01	-4.329541e+00
1.603624e+01	-4.361027e+00
1.612886e+01	-4.393014e+00
1.622202e+01	-4.424830e+00
1.631572e+01	-4.456970e+00
1.640996e+01	-4.488942e+00
1.650474e+01	-4.521369e+00
1.660008e+01	-4.553923e+00
1.669596e+01	-4.586363e+00
1.679239e+01	-4.619100e+00
1.688938e+01	-4.651742e+00
1.698694e+01	-4.684873e+00
1.708505e+01	-4.717865e+00
1.718373e+01	-4.751008e+00
1.728299e+01	-4.784284e+00
1.738281e+01	-4.817856e+00
1.748322e+01	-4.851698e+00
1.758420e+01	-4.885385e+00
1.768576e+01	-4.919184e+00
1.778792e+01	-4.952892e+00
1.789066e+01	-4.987200e+00
1.799399e+01	-5.021225e+00
1.809793e+01	-5.055579e+00
1.820246e+01	-5.090108e+00
1.830760e+01	-5.124908e+00
1.841334e+01	-5.159750e+00
1.851969e+01	-5.194463e+00
1.862666e+01	-5.229185e+00
1.873425e+01	-5.264319e+00
1.884246e+01	-5.299628e+00
1.895129e+01	-5.334874e+00
1.906075e+01	-5.370447e+00
1.917085e+01	-5.405625e+00
1.928158e+01	-5.441551e+00
1.939295e+01	-5.477261e+00
1.950496e+01	-5.513221e+00
1.961762e+01	-5.549406e+00
1.973093e+01	-5.585495e+00
1.984490e+01	-5.621621e+00
1.995952e+01	-5.658169e+00
2.007480e+01	-5.694793e+00
2.019076e+01	-5.731238e+00
2.030738e+01	-5.767801e+00
2.042467e+01	-5.804609e+00
2.054264e+01	-5.841814e+00
2.066130e+01	-5.878548e+00
2.078064e+01	-5.915968e+00
2.090066e+01	-5.952758e+00
2.102139e+01	-5.990198e+00
2.114280e+01	-6.028087e+00
2.126492e+01	-6.065576e+00
2.138775e+01	-6.103237e+00
2.151128e+01	-6.141067e+00
2.163553e+01	-6.179065e+00
2.176050e+01	-6.217121e+00
2.188619e+01	-6.255046e+00
2.201260e+01	-6.293392e+00
2.213974e+01	-6.331886e+00
2.226762e+01	-6.370139e+00
2.239624e+01	-6.408101e+00
2.252560e+01	-6.447425e+00
2.265571e+01	-6.486187e+00
2.278656e+01	-6.524843e+00
2.291818e+01	-6.564165e+00
2.305055e+01	-6.602601e+00
2.318369e+01	-6.641837e+00
2.331760e+01	-6.681035e+00
2.345228e+01	-6.720381e+00
2.358774e+01	-6.759792e+00
2.372398e+01	-6.799712e+00
2.386101e+01	-6.839105e+00
2.399883e+01	-6.878921e+00
2.413745e+01	-6.919040e+00
2.427686e+01	-6.958688e+00
2.441709e+01	-6.998389e+00
2.455812e+01	-7.038581e+00
2.469997e+01	-7.078739e+00
2.484263e+01	-7.119589e+00
2.498612e+01	-7.159577e+00
2.513044e+01	-7.199976e+00
2.527559e+01	-7.240566e+00
2.542158e+01	-7.281149e+00
2.556842e+01	-7.321816e+00
2.571610e+01	-7.362263e+00
2.586463e+01	-7.403094e+00
2.601403e+01	-7.444540e+00
2.616428e+01	-7.485616e+00
2.631541e+01	-7.526461e+00
2.646740e+01	-7.568096e+00
2.662028e+01	-7.609162e+00
2.677404e+01	-7.650381e+00
2.692868e+01	-7.692026e+00
2.708422e+01	-7.733557e+00
2.724066e+01	-7.775322e+00
2.739800e+01	-7.817052e+00
2.755625e+01	-7.858748e+00
2.771541e+01	-7.900424e+00
2.787550e+01	-7.942605e+00
2.803650e+01	-7.984531e+00
2.819844e+01	-8.026689e+00
2.836131e+01	-8.068743e+00
2.852513e+01	-8.111380e+00
2.868989e+01	-8.153292e+00
2.885560e+01	-8.196120e+00
2.902227e+01	-8.238410e+00
2.918990e+01	-8.280902e+00
2.935850e+01	-8.323404e+00
2.952807e+01	-8.366470e+00
2.969863e+01	-8.409234e+00
2.987016e+01	-8.452086e+00
3.004269e+01	-8.494442e+00
3.021622e+01	-8.537491e+00
3.039075e+01	-8.580753e+00
3.056628e+01	-8.623996e+00
3.074283e+01	-8.667044e+00
3.092040e+01	-8.710353e+00
3.109900e+01	-8.753629e+00
3.127862e+01	-8.797416e+00
3.145929e+01	-8.840563e+00
3.164099e+01	-8.884238e+00
3.182375e+01	-8.927436e+00
3.200756e+01	-8.971229e+00
3.219244e+01	-9.015288e+00
3.237838e+01	-9.058875e+00
3.256540e+01	-9.102451e+00
3.275349e+01	-9.146294e+00
3.294268e+01	-9.191033e+00
3.313295e+01	-9.234835e+00
3.332433e+01	-9.278983e+00
3.351681e+01	-9.322325e+00
3.371040e+01	-9.367175e+00
3.390511e+01	-9.410779e+00
3.410094e+01	-9.456077e+00
3.429791e+01	-9.500014e+00
3.449601e+01	-9.544784e+00
3.469526e+01	-9.588665e+00
3.489566e+01	-9.634064e+00
3.509721e+01	-9.678003e+00
3.529993e+01	-9.722924e+00
3.550382e+01	-9.767735e+00
3.570889e+01	-9.812254e+00
3.591515e+01	-9.857152e+00
3.612259e+01	-9.902265e+00
3.633123e+01	-9.946815e+00
3.654108e+01	-9.991943e+00
3.675214e+01	-1.003751e+01
3.696442e+01	-1.008230e+01
3.717792e+01	-1.012712e+01
3.739266e+01	-1.017240e+01
3.760864e+01	-1.021732e+01
3.782587e+01	-1.026271e+01
3.804435e+01	-1.030864e+01
3.826409e+01	-1.035342e+01
3.848510e+01	-1.039909e+01
3.870739e+01	-1.044490e+01
3.893096e+01	-1.049017e+01
3.915583e+01	-1.053592e+01
3.938199e+01	-1.058159e+01
3.960946e+01	-1.062721e+01
3.983824e+01	-1.067217e+01
4.006834e+01	-1.071863e+01
4.029978e+01	-1.076427e+01
4.053255e+01	-1.081076e+01
4.076666e+01	-1.085557e+01
4.100213e+01	-1.090228e+01
4.123896e+01	-1.094759e+01
4.147715e+01	-1.099358e+01
4.171672e+01	-1.103994e+01
4.195767e+01	-1.108625e+01
4.220002e+01	-1.113244e+01
4.244377e+01	-1.117863e+01
4.268892e+01	-1.122495e+01
4.293549e+01	-1.127099e+01
4.318348e+01	-1.131737e+01
4.343291e+01	-1.136348e+01
4.368377e+01	-1.141026e+01
4.393609e+01	-1.145660e+01
4.418986e+01	-1.150289e+01
4.444510e+01	-1.154967e+01
4.470182e+01	-1.159583e+01
4.496001e+01	-1.164260e+01
4.521970e+01	-1.168891e+01
4.548089e+01	-1.173680e+01
4.574358e+01	-1.178241e+01
4.600779e+01	-1.182932e+01
4.627353e+01	-1.187611e+01
4.654081e+01	-1.192241e+01
4.680963e+01	-1.196995e+01
4.708000e+01	-1.201663e+01
4.735193e+01	-1.206357e+01
4.762543e+01	-1.211045e+01
4.790051e+01	-1.215792e+01
4.817719e+01	-1.220442e+01
4.845545e+01	-1.225105e+01
4.873533e+01	-1.229880e+01
4.901682e+01	-1.234540e+01
4.929994e+01	-1.239277e+01
4.958470e+01	-1.243949e+01
4.987110e+01	-1.248715e+01
5.015915e+01	-1.253432e+01
5.044887e+01	-1.258192e+01
5.074026e+01	-1.262857e+01
5.103333e+01	-1.267538e+01
5.132810e+01	-1.272383e+01
5.162457e+01	-1.277053e+01
5.192275e+01	-1.281790e+01
5.222265e+01	-1.286533e+01
5.252429e+01	-1.291352e+01
5.282767e+01	-1.296017e+01
5.313280e+01	-1.300811e+01
5.343969e+01	-1.305586e+01
5.374836e+01	-1.310239e+01
5.405880e+01	-1.315141e+01
5.437105e+01	-1.319830e+01
5.468509e+01	-1.324618e+01
5.500095e+01	-1.329310e+01
5.531863e+01	-1.334134e+01
5.563815e+01	-1.338864e+01
5.595951e+01	-1.343695e+01
5.628273e+01	-1.348400e+01
5.660782e+01	-1.353283e+01
5.693479e+01	-1.357992e+01
5.726364e+01	-1.362846e+01
5.759439e+01	-1.367632e+01
5.792705e+01	-1.372325e+01
5.826164e+01	-1.377196e+01
5.859815e+01	-1.382020e+01
5.893662e+01	-1.386735e+01
5.927703e+01	-1.391580e+01
5.961941e+01	-1.396371e+01
5.996377e+01	-1.401214e+01
6.031012e+01	-1.405957e+01
6.065847e+01	-1.410769e+01
6.100883e+01	-1.415559e+01
6.136121e+01	-1.420424e+01
6.171563e+01	-1.425190e+01
6.207210e+01	-1.430050e+01
6.243063e+01	-1.434852e+01
6.279122e+01	-1.439668e+01
6.315390e+01	-1.444606e+01
6.351868e+01	-1.449285e+01
6.388556e+01	-1.454107e+01
6.425456e+01	-1.458934e+01
6.462569e+01	-1.463871e+01
6.499897e+01	-1.468639e+01
6.537440e+01	-1.473402e+01
6.575200e+01	-1.478237e+01
6.613178e+01	-1.483231e+01
6.651375e+01	-1.488004e+01
6.689793e+01	-1.492746e+01
6.728433e+01	-1.497635e+01
6.767297e+01	-1.502510e+01
6.806384e+01	-1.507324e+01
6.845698e+01	-1.512213e+01
6.885238e+01	-1.516988e+01
6.925007e+01	-1.521849e+01
6.965005e+01	-1.526774e+01
7.005235e+01	-1.531543e+01
7.045697e+01	-1.536447e+01
7.086393e+01	-1.541311e+01
7.127323e+01	-1.546236e+01
7.168490e+01	-1.551080e+01
7.209895e+01	-1.555806e+01
7.251539e+01	-1.560762e+01
7.293424e+01	-1.565674e+01
7.335551e+01	-1.570525e+01
7.377920e+01	-1.575409e+01
7.420535e+01	-1.580212e+01
7.463396e+01	-1.585098e+01
7.506504e+01	-1.590237e+01
7.549861e+01	-1.594911e+01
7.593469e+01	-1.599763e+01
7.637328e+01	-1.604641e+01
7.681441e+01	-1.609629e+01
7.725809e+01	-1.614350e+01
7.770433e+01	-1.619227e+01
7.815315e+01	-1.624131e+01
7.860456e+01	-1.629023e+01
7.905857e+01	-1.633957e+01
7.951521e+01	-1.638793e+01
7.997449e+01	-1.643705e+01
8.043642e+01	-1.648666e+01
8.090102e+01	-1.653431e+01
8.136830e+01	-1.658444e+01
8.183828e+01	-1.663275e+01
8.231097e+01	-1.668151e+01
8.278640e+01	-1.673011e+01
8.326457e+01	-1.678020e+01
8.374550e+01	-1.682818e+01
8.422921e+01	-1.687706e+01
8.471572e+01	-1.692624e+01
8.520503e+01	-1.697387e+01
8.569717e+01	-1.702533e+01
8.619215e+01	-1.707337e+01
8.669000e+01	-1.712381e+01
8.719071e+01	-1.717189e+01
8.769432e+01	-1.722089e+01
8.820084e+01	-1.727012e+01
8.871029e+01	-1.731874e+01
8.922267e+01	-1.736825e+01
8.973802e+01	-1.741769e+01
9.025634e+01	-1.746715e+01
9.077766e+01	-1.751670e+01
9.130199e+01	-1.756474e+01
9.182935e+01	-1.761336e+01
9.235975e+01	-1.766343e+01
9.289321e+01	-1.771154e+01
9.342976e+01	-1.776036e+01
9.396941e+01	-1.781062e+01
9.451217e+01	-1.785935e+01
9.505807e+01	-1.790988e+01
9.560712e+01	-1.795669e+01
9.615934e+01	-1.800789e+01
9.671476e+01	-1.805557e+01
9.727338e+01	-1.810589e+01
9.783522e+01	-1.815420e+01
9.840032e+01	-1.820491e+01
9.896867e+01	-1.825385e+01
9.954031e+01	-1.830231e+01
1.001153e+02	-1.835173e+01
1.006935e+02	-1.840268e+01
1.012751e+02	-1.845217e+01
1.018601e+02	-1.849966e+01
1.024484e+02	-1.854940e+01
1.030402e+02	-1.859919e+01
1.036353e+02	-1.865009e+01
1.042339e+02	-1.869627e+01
1.048360e+02	-1.874684e+01
1.054415e+02	-1.879598e+01
1.060505e+02	-1.884659e+01
1.066631e+02	-1.889480e+01
1.072791e+02	-1.894565e+01
1.078988e+02	-1.899337e+01
1.085220e+02	-1.904355e+01
1.091488e+02	-1.909490e+01
1.097793e+02	-1.914282e+01
1.104133e+02	-1.919201e+01
1.110511e+02	-1.924191e+01
1.116925e+02	-1.929005e+01
1.123376e+02	-1.933983e+01
1.129865e+02	-1.939046e+01
1.136391e+02	-1.943987e+01
1.142955e+02	-1.948612e+01
1.149556e+02	-1.953740e+01
1.156196e+02	-1.958806e+01
1.162874e+02	-1.963693e+01
1.169591e+02	-1.968671e+01
1.176347e+02	-1.973671e+01
1.183141e+02	-1.978609e+01
1.189975e+02	-1.983399e+01
1.196848e+02	-1.988579e+01
1.203761e+02	-1.993324e+01
1.210714e+02	-1.998399e+01
1.217707e+02	-2.003403e+01
1.224740e+02	-2.008119e+01
1.231814e+02	-2.013207e+01
1.238929e+02	-2.018196e+01
1.246085e+02	-2.022971e+01
1.253283e+02	-2.028075e+01
1.260522e+02	-2.032946e+01
1.267802e+02	-2.038036e+01
1.275125e+02	-2.043115e+01
1.282490e+02	-2.047915e+01
1.289898e+02	-2.052899e+01
1.297348e+02	-2.057961e+01
1.304842e+02	-2.062848e+01
1.312378e+02	-2.067784e+01
1.319959e+02	-2.072724e+01
1.327583e+02	-2.077564e+01
1.335251e+02	-2.082546e+01
1.342963e+02	-2.087745e+01
1.350720e+02	-2.092496e+01
1.358522e+02	-2.097695e+01
1.366368e+02	-2.102528e+01
1.374260e+02	-2.107649e+01
1.382198e+02	-2.112315e+01
1.390182e+02	-2.117305e+01
1.398211e+02	-2.122260e+01
1.406287e+02	-2.127277e+01
1.414410e+02	-2.132377e+01
1.422579e+02	-2.137197e+01
1.430796e+02	-2.142124e+01
1.439060e+02	-2.147244e+01
1.447372e+02	-2.152113e+01
1.455732e+02	-2.157057e+01
1.464141e+02	-2.162277e+01
1.472597e+02	-2.167162e+01
1.481103e+02	-2.172092e+01
1.489658e+02	-2.177022e+01
1.498262e+02	-2.182037e+01
1.506916e+02	-2.187021e+01
1.515620e+02	-2.191860e+01
1.524374e+02	-2.196971e+01
1.533179e+02	-2.201970e+01
1.542034e+02	-2.206753e+01
1.550941e+02	-2.211736e+01
1.559899e+02	-2.216762e+01
1.568909e+02	-2.221874e+01
1.577971e+02	-2.226703e+01
1.587085e+02	-2.231754e+01
1.596252e+02	-2.236604e+01
1.605472e+02	-2.241790e+01
1.614745e+02	-2.246619e+01
1.624072e+02	-2.251613e+01
1.633453e+02	-2.256807e+01
1.642887e+02	-2.261714e+01
1.652377e+02	-2.266460e+01
1.661921e+02	-2.271557e+01
1.671520e+02	-2.276541e+01
1.681175e+02	-2.281447e+01
1.690885e+02	-2.286367e+01
1.700651e+02	-2.291593e+01
1.710474e+02	-2.296503e+01
1.720354e+02	-2.301407e+01
1.730291e+02	-2.306413e+01
1.740285e+02	-2.311383e+01
1.750337e+02	-2.316427e+01
1.760446e+02	-2.321261e+01
1.770615e+02	-2.326121e+01
1.780842e+02	-2.331495e+01
1.791128e+02	-2.336223e+01
1.801473e+02	-2.340903e+01
1.811878e+02	-2.346280e+01
1.822344e+02	-2.351448e+01
1.832870e+02	-2.356094e+01
1.843456e+02	-2.361268e+01
1.854104e+02	-2.366194e+01
1.864813e+02	-2.371083e+01
1.875584e+02	-2.376126e+01
1.886418e+02	-2.381239e+01
1.897313e+02	-2.386134e+01
1.908272e+02	-2.391137e+01
1.919294e+02	-2.396095e+01
1.930380e+02	-2.401030e+01
1.941530e+02	-2.406038e+01
1.952744e+02	-2.411153e+01
1.964023e+02	-2.415974e+01
1.975367e+02	-2.420959e+01
1.986777e+02	-2.425865e+01
1.998252e+02	-2.431083e+01
2.009794e+02	-2.435971e+01
2.021403e+02	-2.440896e+01
2.033078e+02	-2.445743e+01
2.044821e+02	-2.450876e+01
2.056632e+02	-2.455853e+01
2.068511e+02	-2.460966e+01
2.080459e+02	-2.465608e+01
2.092475e+02	-2.470983e+01
2.104561e+02	-2.475979e+01
2.116717e+02	-2.480481e+01
2.128943e+02	-2.485664e+01
2.141240e+02	-2.490950e+01
2.153608e+02	-2.495806e+01
2.166047e+02	-2.500696e+01
2.178558e+02	-2.505685e+01
2.191141e+02	-2.510681e+01
2.203797e+02	-2.515626e+01
2.216526e+02	-2.520825e+01
2.229329e+02	-2.526027e+01
2.242205e+02	-2.530820e+01
2.255156e+02	-2.535604e+01
2.268182e+02	-2.540861e+01
2.281283e+02	-2.545597e+01
2.294459e+02	-2.550704e+01
2.307712e+02	-2.556017e+01
2.321041e+02	-2.560809e+01
2.334447e+02	-2.565796e+01
2.347931e+02	-2.570992e+01
2.361493e+02	-2.575737e+01
2.375133e+02	-2.580808e+01
2.388851e+02	-2.585777e+01
2.402649e+02	-2.590732e+01
2.416527e+02	-2.595646e+01
2.430484e+02	-2.600703e+01
2.444523e+02	-2.605583e+01
2.458642e+02	-2.610364e+01
2.472843e+02	-2.615756e+01
2.487126e+02	-2.620485e+01
2.501492e+02	-2.625683e+01
2.515940e+02	-2.630629e+01
2.530472e+02	-2.635853e+01
2.545088e+02	-2.640680e+01
2.559789e+02	-2.645818e+01
2.574574e+02	-2.650714e+01
2.589444e+02	-2.655502e+01
2.604401e+02	-2.660873e+01
2.619444e+02	-2.665388e+01
2.634574e+02	-2.670460e+01
2.649791e+02	-2.675572e+01
2.665096e+02	-2.680606e+01
2.680489e+02	-2.685386e+01
2.695972e+02	-2.690671e+01
2.711544e+02	-2.695836e+01
2.727205e+02	-2.700790e+01
2.742958e+02	-2.705564e+01
2.758801e+02	-2.710672e+01
2.774736e+02	-2.715434e+01
2.790762e+02	-2.720459e+01
2.806882e+02	-2.725361e+01
2.823094e+02	-2.730706e+01
2.839400e+02	-2.735307e+01
2.855800e+02	-2.740425e+01
2.872295e+02	-2.745542e+01
2.888886e+02	-2.750386e+01
2.905572e+02	-2.756103e+01
2.922354e+02	-2.760779e+01
2.939234e+02	-2.765986e+01
2.956211e+02	-2.770814e+01
2.973286e+02	-2.775297e+01
2.990459e+02	-2.780414e+01
3.007732e+02	-2.785509e+01
3.025104e+02	-2.790488e+01
3.042577e+02	-2.795416e+01
3.060151e+02	-2.800566e+01
3.077826e+02	-2.805370e+01
3.095604e+02	-2.810828e+01
3.113484e+02	-2.815583e+01
3.131467e+02	-2.820913e+01
3.149554e+02	-2.825430e+01
3.167746e+02	-2.830469e+01
3.186043e+02	-2.835635e+01
3.204445e+02	-2.840634e+01
3.222954e+02	-2.845232e+01
3.241570e+02	-2.851062e+01
3.260293e+02	-2.855214e+01
3.279124e+02	-2.860735e+01
3.298064e+02	-2.865741e+01
3.317114e+02	-2.870914e+01
3.336273e+02	-2.875516e+01
3.355544e+02	-2.880580e+01
3.374925e+02	-2.885861e+01
3.394418e+02	-2.890823e+01
3.414024e+02	-2.895822e+01
3.433744e+02	-2.900387e+01
3.453577e+02	-2.905520e+01
3.473525e+02	-2.910615e+01
3.493588e+02	-2.915533e+01
3.513766e+02	-2.920582e+01
3.534062e+02	-2.925728e+01
3.554474e+02	-2.930344e+01
3.575005e+02	-2.935709e+01
3.595654e+02	-2.940773e+01
3.616422e+02	-2.946049e+01
3.637311e+02	-2.950599e+01
3.658320e+02	-2.955979e+01
3.679450e+02	-2.960901e+01
3.700702e+02	-2.966699e+01
3.722077e+02	-2.971001e+01
3.743576e+02	-2.975726e+01
3.765199e+02	-2.980705e+01
3.786946e+02	-2.986134e+01
3.808820e+02	-2.990913e+01
3.830819e+02	-2.995485e+01
3.852946e+02	-3.000946e+01
3.875200e+02	-3.005970e+01
3.897583e+02	-3.010651e+01
3.920096e+02	-3.015582e+01
3.942738e+02	-3.020553e+01
3.965511e+02	-3.025814e+01
3.988416e+02	-3.031133e+01
4.011452e+02	-3.036135e+01
4.034622e+02	-3.040947e+01
4.057926e+02	-3.046341e+01
4.081365e+02	-3.050748e+01
4.104938e+02	-3.055727e+01
4.128648e+02	-3.061021e+01
4.152495e+02	-3.065478e+01
4.176480e+02	-3.070880e+01
4.200603e+02	-3.075968e+01
4.224866e+02	-3.080482e+01
4.249268e+02	-3.085637e+01
4.273812e+02	-3.091145e+01
4.298497e+02	-3.096452e+01
4.323325e+02	-3.100925e+01
4.348297e+02	-3.105937e+01
4.373412e+02	-3.111144e+01
4.398673e+02	-3.116069e+01
4.424079e+02	-3.121405e+01
4.449633e+02	-3.125687e+01
4.475334e+02	-3.131231e+01
4.501183e+02	-3.136261e+01
4.527182e+02	-3.141145e+01
4.553330e+02	-3.145777e+01
4.579630e+02	-3.151583e+01
4.606082e+02	-3.156142e+01
4.632687e+02	-3.161006e+01
4.659445e+02	-3.166010e+01
4.686358e+02	-3.171330e+01
4.713426e+02	-3.176385e+01
4.740650e+02	-3.181141e+01
4.768032e+02	-3.186407e+01
4.795572e+02	-3.190797e+01
4.823271e+02	-3.197014e+01
4.851130e+02	-3.201775e+01
4.879150e+02	-3.206360e+01
4.907332e+02	-3.211362e+01
4.935676e+02	-3.216187e+01
4.964185e+02	-3.221287e+01
4.992858e+02	-3.227204e+01
5.021696e+02	-3.231136e+01
5.050701e+02	-3.236271e+01
5.079874e+02	-3.241759e+01
5.109215e+02	-3.246394e+01
5.138726e+02	-3.250892e+01
5.168407e+02	-3.256563e+01
5.198259e+02	-3.261298e+01
5.228284e+02	-3.267188e+01
5.258482e+02	-3.271535e+01
5.288855e+02	-3.276948e+01
5.319403e+02	-3.281675e+01
5.350128e+02	-3.286579e+01
5.381030e+02	-3.291821e+01
5.412111e+02	-3.296851e+01
5.443371e+02	-3.301428e+01
5.474812e+02	-3.306421e+01
5.506434e+02	-3.311760e+01
5.538239e+02	-3.317342e+01
5.570228e+02	-3.321590e+01
5.602401e+02	-3.327445e+01
5.634760e+02	-3.332152e+01
5.667306e+02	-3.337382e+01
5.700040e+02	-3.341722e+01
5.732964e+02	-3.347047e+01
5.766077e+02	-3.352304e+01
5.799382e+02	-3.357078e+01
5.832879e+02	-3.362525e+01
5.866569e+02	-3.368144e+01
5.900454e+02	-3.372076e+01
5.934535e+02	-3.377323e+01
5.968813e+02	-3.382402e+01
6.003288e+02	-3.387516e+01
6.037963e+02	-3.392917e+01
6.072838e+02	-3.397458e+01
6.107914e+02	-3.402470e+01
6.143194e+02	-3.407000e+01
6.178676e+02	-3.412253e+01
6.214364e+02	-3.417009e+01
6.250258e+02	-3.422658e+01
6.286359e+02	-3.427769e+01
6.322669e+02	-3.432584e+01
6.359189e+02	-3.437396e+01
6.395919e+02	-3.441889e+01
6.432862e+02	-3.447828e+01
6.470017e+02	-3.453046e+01
6.507388e+02	-3.457513e+01
6.544974e+02	-3.463388e+01
6.582778e+02	-3.467684e+01
6.620800e+02	-3.473645e+01
6.659041e+02	-3.477410e+01
6.697504e+02	-3.483381e+01
6.736188e+02	-3.487697e+01
6.775096e+02	-3.492694e+01
6.814229e+02	-3.498252e+01
6.853587e+02	-3.503459e+01
6.893173e+02	-3.507673e+01
6.932988e+02	-3.513502e+01
6.973033e+02	-3.517979e+01
7.013309e+02	-3.523036e+01
