Frequency(Hz)	Magnitude(dB)
1.000000e+01	-1.947420e+00
1.005776e+01	-1.965647e+00
1.011585e+01	-1.983915e+00
1.017428e+01	-2.002234e+00
1.023305e+01	-2.020701e+00
1.029215e+01	-2.039418e+00
1.035160e+01	-2.058292e+00
1.041139e+01	-2.077503e+00
1.047153e+01	-2.096184e+00
1.053201e+01	-2.115379e+00
1.059284e+01	-2.135002e+00
1.065403e+01	-2.154427e+00
1.071556e+01	-2.174018e+00
1.077746e+01	-2.193825e+00
1.083971e+01	-2.213633e+00
1.090232e+01	-2.233768e+00
1.096529e+01	-2.253922e+00
1.102862e+01	-2.274241e+00
1.109232e+01	-2.294617e+00
1.115639e+01	-2.315414e+00
1.122083e+01	-2.335951e+00
1.128564e+01	-2.356955e+00
1.135083e+01	-2.377787e+00
1.141639e+01	-2.399112e+00
1.148233e+01	-2.420505e+00
1.154865e+01	-2.441612e+00
1.161536e+01	-2.463271e+00
1.168245e+01	-2.485213e+00
1.174992e+01	-2.506981e+00
1.181779e+01	-2.529034e+00
1.188605e+01	-2.551273e+00
1.195470e+01	-2.573521e+00
1.202375e+01	-2.595863e+00
1.209320e+01	-2.618559e+00
1.216305e+01	-2.641244e+00
1.223330e+01	-2.664162e+00
1.230396e+01	-2.687044e+00
1.237503e+01	-2.710255e+00
1.244651e+01	-2.733596e+00
1.251840e+01	-2.756852e+00
1.259070e+01	-2.780799e+00
1.266343e+01	-2.804358e+00
1.273657e+01	-2.828109e+00
1.281014e+01	-2.852193e+00
1.288413e+01	-2.876311e+00
1.295855e+01	-2.900636e+00
1.303339e+01	-2.925073e+00
1.310867e+01	-2.949710e+00
1.318439e+01	-2.974404e+00
1.326054e+01	-2.999162e+00
1.333713e+01	-3.024052e+00
1.341417e+01	-3.049453e+00
1.349165e+01	-3.074736e+00
1.356958e+01	-3.100276e+00
1.364795e+01	-3.125861e+00
1.372678e+01	-3.151759e+00
1.380607e+01	-3.177323e+00
1.388581e+01	-3.203453e+00
1.396602e+01	-3.229622e+00
1.404668e+01	-3.255717e+00
1.412782e+01	-3.282602e+00
1.420942e+01	-3.308927e+00
1.429149e+01	-3.335416e+00
1.437404e+01	-3.362643e+00
1.445706e+01	-3.389637e+00
1.454057e+01	-3.416705e+00
1.462455e+01	-3.444146e+00
1.470902e+01	-3.471680e+00
1.479398e+01	-3.499303e+00
1.487943e+01	-3.526977e+00
1.496537e+01	-3.555022e+00
1.505181e+01	-3.582882e+00
1.513875e+01	-3.611305e+00
1.522619e+01	-3.639448e+00
1.531414e+01	-3.667812e+00
1.540259e+01	-3.696536e+00
1.549156e+01	-3.725063e+00
1.558103e+01	-3.753743e+00
1.567103e+01	-3.783057e+00
1.576155e+01	-3.812273e+00
1.585258e+01	-3.841521e+00
1.594415e+01	-3.870890e+00
1.603624e+01	-3.900372e+00
1.612886e+01	-3.930307e+00
1.622202e+01	-3.960455e+00
1.631572e+01	-3.989769e+00
1.640996e+01	-4.020242e+00
1.650474e+01	-4.050623e+00
1.660008e+01	-4.080970e+00
1.669596e+01	-4.111388e+00
1.679239e+01	-4.142021e+00
1.688938e+01	-4.173091e+00
1.698694e+01	-4.204049e+00
1.708505e+01	-4.235227e+00
1.718373e+01	-4.266182e+00
1.728299e+01	-4.297639e+00
1.738281e+01	-4.328913e+00
1.748322e+01	-4.360847e+00
1.758420e+01	-4.392421e+00
1.768576e+01	-4.424645e+00
1.778792e+01	-4.456508e+00
1.789066e+01	-4.488843e+00
1.799399e+01	-4.520938e+00
1.809793e+01	-4.553403e+00
1.820246e+01	-4.585721e+00
1.830760e+01	-4.618614e+00
1.841334e+01	-4.651481e+00
1.851969e+01	-4.684251e+00
1.862666e+01	-4.717615e+00
1.873425e+01	-4.750434e+00
1.884246e+01	-4.783939e+00
1.895129e+01	-4.817494e+00
1.906075e+01	-4.851011e+00
1.917085e+01	-4.884834e+00
1.928158e+01	-4.918514e+00
1.939295e+01	-4.952489e+00
1.950496e+01	-4.986410e+00
1.961762e+01	-5.020612e+00
1.973093e+01	-5.055109e+00
1.984490e+01	-5.089817e+00
1.995952e+01	-5.124289e+00
2.007480e+01	-5.159061e+00
2.019076e+01	-5.193903e+00
2.030738e+01	-5.228788e+00
2.042467e+01	-5.263929e+00
2.054264e+01	-5.299124e+00
2.066130e+01	-5.334599e+00
2.078064e+01	-5.369950e+00
2.090066e+01	-5.405505e+00
2.102139e+01	-5.440990e+00
2.114280e+01	-5.476604e+00
2.126492e+01	-5.512617e+00
2.138775e+01	-5.548549e+00
2.151128e+01	-5.584751e+00
2.163553e+01	-5.621190e+00
2.176050e+01	-5.657540e+00
2.188619e+01	-5.693861e+00
2.201260e+01	-5.730525e+00
2.213974e+01	-5.767301e+00
2.226762e+01	-5.804075e+00
2.239624e+01	-5.841035e+00
2.252560e+01	-5.877910e+00
2.265571e+01	-5.915400e+00
2.278656e+01	-5.952653e+00
2.291818e+01	-5.990122e+00
2.305055e+01	-6.027016e+00
2.318369e+01	-6.064874e+00
2.331760e+01	-6.102639e+00
2.345228e+01	-6.140359e+00
2.358774e+01	-6.178267e+00
2.372398e+01	-6.216320e+00
2.386101e+01	-6.254828e+00
2.399883e+01	-6.292501e+00
2.413745e+01	-6.330979e+00
2.427686e+01	-6.369506e+00
2.441709e+01	-6.408019e+00
2.455812e+01	-6.446794e+00
2.469997e+01	-6.485334e+00
2.484263e+01	-6.524531e+00
2.498612e+01	-6.563272e+00
2.513044e+01	-6.602318e+00
2.527559e+01	-6.641549e+00
2.542158e+01	-6.680708e+00
2.556842e+01	-6.719787e+00
2.571610e+01	-6.759469e+00
2.586463e+01	-6.798926e+00
2.601403e+01	-6.838440e+00
2.616428e+01	-6.878509e+00
2.631541e+01	-6.918198e+00
2.646740e+01	-6.958059e+00
2.662028e+01	-6.997884e+00
2.677404e+01	-7.038310e+00
2.692868e+01	-7.078341e+00
2.708422e+01	-7.118640e+00
2.724066e+01	-7.158922e+00
2.739800e+01	-7.199068e+00
2.755625e+01	-7.239996e+00
2.771541e+01	-7.280285e+00
2.787550e+01	-7.321348e+00
2.803650e+01	-7.361873e+00
2.819844e+01	-7.402727e+00
2.836131e+01	-7.443782e+00
2.852513e+01	-7.484601e+00
2.868989e+01	-7.526107e+00
2.885560e+01	-7.567002e+00
2.902227e+01	-7.608935e+00
2.918990e+01	-7.650238e+00
2.935850e+01	-7.691212e+00
2.952807e+01	-7.733132e+00
2.969863e+01	-7.774512e+00
2.987016e+01	-7.816029e+00
3.004269e+01	-7.858140e+00
3.021622e+01	-7.900150e+00
3.039075e+01	-7.942126e+00
3.056628e+01	-7.984157e+00
3.074283e+01	-8.026426e+00
3.092040e+01	-8.068006e+00
3.109900e+01	-8.110519e+00
3.127862e+01	-8.152890e+00
3.145929e+01	-8.195429e+00
3.164099e+01	-8.237850e+00
3.182375e+01	-8.280314e+00
3.200756e+01	-8.322988e+00
3.219244e+01	-8.365495e+00
3.237838e+01	-8.408311e+00
3.256540e+01	-8.451470e+00
3.275349e+01	-8.494361e+00
3.294268e+01	-8.537404e+00
3.313295e+01	-8.579878e+00
3.332433e+01	-8.623337e+00
3.351681e+01	-8.666240e+00
3.371040e+01	-8.709416e+00
3.390511e+01	-8.753236e+00
3.410094e+01	-8.796915e+00
3.429791e+01	-8.840077e+00
3.449601e+01	-8.883611e+00
3.469526e+01	-8.926784e+00
3.489566e+01	-8.970691e+00
3.509721e+01	-9.014170e+00
3.529993e+01	-9.058124e+00
3.550382e+01	-9.102398e+00
3.570889e+01	-9.145583e+00
3.591515e+01	-9.190277e+00
3.612259e+01	-9.233698e+00
3.633123e+01	-9.278068e+00
3.654108e+01	-9.322224e+00
3.675214e+01	-9.366272e+00
3.696442e+01	-9.410914e+00
3.717792e+01	-9.455025e+00
3.739266e+01	-9.499287e+00
3.760864e+01	-9.544103e+00
3.782587e+01	-9.588577e+00
3.804435e+01	-9.633037e+00
3.826409e+01	-9.677795e+00
3.848510e+01	-9.722411e+00
3.870739e+01	-9.766771e+00
3.893096e+01	-9.811652e+00
3.915583e+01	-9.856545e+00
3.938199e+01	-9.901656e+00
3.960946e+01	-9.946425e+00
3.983824e+01	-9.991406e+00
4.006834e+01	-1.003610e+01
4.029978e+01	-1.008153e+01
4.053255e+01	-1.012637e+01
4.076666e+01	-1.017157e+01
4.100213e+01	-1.021712e+01
4.123896e+01	-1.026240e+01
4.147715e+01	-1.030771e+01
4.171672e+01	-1.035283e+01
4.195767e+01	-1.039844e+01
4.220002e+01	-1.044405e+01
4.244377e+01	-1.048949e+01
4.268892e+01	-1.053494e+01
4.293549e+01	-1.058100e+01
4.318348e+01	-1.062683e+01
4.343291e+01	-1.067245e+01
4.368377e+01	-1.071829e+01
4.393609e+01	-1.076368e+01
4.418986e+01	-1.080964e+01
4.444510e+01	-1.085542e+01
4.470182e+01	-1.090100e+01
4.496001e+01	-1.094683e+01
4.521970e+01	-1.099361e+01
4.548089e+01	-1.103958e+01
4.574358e+01	-1.108595e+01
4.600779e+01	-1.113184e+01
4.627353e+01	-1.117849e+01
4.654081e+01	-1.122388e+01
4.680963e+01	-1.127014e+01
4.708000e+01	-1.131659e+01
4.735193e+01	-1.136285e+01
4.762543e+01	-1.140957e+01
4.790051e+01	-1.145631e+01
4.817719e+01	-1.150234e+01
4.845545e+01	-1.154894e+01
4.873533e+01	-1.159539e+01
4.901682e+01	-1.164162e+01
4.929994e+01	-1.168875e+01
4.958470e+01	-1.173540e+01
4.987110e+01	-1.178193e+01
5.015915e+01	-1.182891e+01
5.044887e+01	-1.187593e+01
5.074026e+01	-1.192275e+01
5.103333e+01	-1.196914e+01
5.132810e+01	-1.201607e+01
5.162457e+01	-1.206282e+01
5.192275e+01	-1.210911e+01
5.222265e+01	-1.215662e+01
5.252429e+01	-1.220337e+01
5.282767e+01	-1.225086e+01
5.313280e+01	-1.229775e+01
5.343969e+01	-1.234504e+01
5.374836e+01	-1.239248e+01
5.405880e+01	-1.243905e+01
5.437105e+01	-1.248601e+01
5.468509e+01	-1.253339e+01
5.500095e+01	-1.258111e+01
5.531863e+01	-1.262833e+01
5.563815e+01	-1.267491e+01
5.595951e+01	-1.272161e+01
5.628273e+01	-1.277053e+01
5.660782e+01	-1.281814e+01
5.693479e+01	-1.286521e+01
5.726364e+01	-1.291192e+01
5.759439e+01	-1.295986e+01
5.792705e+01	-1.300696e+01
5.826164e+01	-1.305520e+01
5.859815e+01	-1.310257e+01
5.893662e+01	-1.315005e+01
5.927703e+01	-1.319778e+01
5.961941e+01	-1.324575e+01
5.996377e+01	-1.329355e+01
6.031012e+01	-1.334080e+01
6.065847e+01	-1.338877e+01
6.100883e+01	-1.343602e+01
6.136121e+01	-1.348351e+01
6.171563e+01	-1.353139e+01
6.207210e+01	-1.357931e+01
6.243063e+01	-1.362732e+01
6.279122e+01	-1.367523e+01
6.315390e+01	-1.372372e+01
6.351868e+01	-1.377035e+01
6.388556e+01	-1.381939e+01
6.425456e+01	-1.386620e+01
6.462569e+01	-1.391500e+01
6.499897e+01	-1.396282e+01
6.537440e+01	-1.401119e+01
6.575200e+01	-1.405954e+01
6.613178e+01	-1.410746e+01
6.651375e+01	-1.415537e+01
6.689793e+01	-1.420259e+01
6.728433e+01	-1.425114e+01
6.767297e+01	-1.430014e+01
6.806384e+01	-1.434823e+01
6.845698e+01	-1.439609e+01
6.885238e+01	-1.444485e+01
6.925007e+01	-1.449192e+01
6.965005e+01	-1.454009e+01
7.005235e+01	-1.458918e+01
7.045697e+01	-1.463737e+01
7.086393e+01	-1.468525e+01
7.127323e+01	-1.473284e+01
7.168490e+01	-1.478246e+01
7.209895e+01	-1.483076e+01
7.251539e+01	-1.487955e+01
7.293424e+01	-1.492794e+01
7.335551e+01	-1.497618e+01
7.377920e+01	-1.502409e+01
7.420535e+01	-1.507219e+01
7.463396e+01	-1.512169e+01
7.506504e+01	-1.516993e+01
7.549861e+01	-1.521860e+01
7.593469e+01	-1.526722e+01
7.637328e+01	-1.531672e+01
7.681441e+01	-1.536445e+01
7.725809e+01	-1.541371e+01
7.770433e+01	-1.546119e+01
7.815315e+01	-1.550955e+01
7.860456e+01	-1.555817e+01
7.905857e+01	-1.560714e+01
7.951521e+01	-1.565557e+01
7.997449e+01	-1.570405e+01
8.043642e+01	-1.575278e+01
8.090102e+01	-1.580173e+01
8.136830e+01	-1.585032e+01
8.183828e+01	-1.589839e+01
8.231097e+01	-1.594838e+01
8.278640e+01	-1.599625e+01
8.326457e+01	-1.604497e+01
8.374550e+01	-1.609483e+01
8.422921e+01	-1.614194e+01
8.471572e+01	-1.619192e+01
8.520503e+01	-1.624125e+01
8.569717e+01	-1.628998e+01
8.619215e+01	-1.633751e+01
8.669000e+01	-1.638864e+01
8.719071e+01	-1.643779e+01
8.769432e+01	-1.648571e+01
8.820084e+01	-1.653386e+01
8.871029e+01	-1.658238e+01
8.922267e+01	-1.663169e+01
8.973802e+01	-1.668051e+01
9.025634e+01	-1.672934e+01
9.077766e+01	-1.677774e+01
9.130199e+01	-1.682764e+01
9.182935e+01	-1.687610e+01
9.235975e+01	-1.692734e+01
9.289321e+01	-1.697556e+01
9.342976e+01	-1.702449e+01
9.396941e+01	-1.707298e+01
9.451217e+01	-1.712204e+01
9.505807e+01	-1.717193e+01
9.560712e+01	-1.722068e+01
9.615934e+01	-1.727054e+01
9.671476e+01	-1.731803e+01
9.727338e+01	-1.736660e+01
9.783522e+01	-1.741685e+01
9.840032e+01	-1.746511e+01
9.896867e+01	-1.751578e+01
9.954031e+01	-1.756263e+01
1.001153e+02	-1.761334e+01
1.006935e+02	-1.766239e+01
1.012751e+02	-1.771185e+01
1.018601e+02	-1.776060e+01
1.024484e+02	-1.780881e+01
1.030402e+02	-1.785895e+01
1.036353e+02	-1.790930e+01
1.042339e+02	-1.795934e+01
1.048360e+02	-1.800730e+01
1.054415e+02	-1.805553e+01
1.060505e+02	-1.810470e+01
1.066631e+02	-1.815390e+01
1.072791e+02	-1.820455e+01
1.078988e+02	-1.825369e+01
1.085220e+02	-1.830367e+01
1.091488e+02	-1.835127e+01
1.097793e+02	-1.840101e+01
1.104133e+02	-1.845015e+01
1.110511e+02	-1.849855e+01
1.116925e+02	-1.854965e+01
1.123376e+02	-1.859937e+01
1.129865e+02	-1.864713e+01
1.136391e+02	-1.869789e+01
1.142955e+02	-1.874665e+01
1.149556e+02	-1.879580e+01
1.156196e+02	-1.884590e+01
1.162874e+02	-1.889316e+01
1.169591e+02	-1.894354e+01
1.176347e+02	-1.899450e+01
1.183141e+02	-1.904393e+01
1.189975e+02	-1.909141e+01
1.196848e+02	-1.914161e+01
1.203761e+02	-1.919020e+01
1.210714e+02	-1.924132e+01
1.217707e+02	-1.929033e+01
1.224740e+02	-1.933992e+01
1.231814e+02	-1.939027e+01
1.238929e+02	-1.943919e+01
1.246085e+02	-1.948771e+01
1.253283e+02	-1.953858e+01
1.260522e+02	-1.958607e+01
1.267802e+02	-1.963418e+01
1.275125e+02	-1.968567e+01
1.282490e+02	-1.973649e+01
1.289898e+02	-1.978592e+01
1.297348e+02	-1.983337e+01
1.304842e+02	-1.988437e+01
1.312378e+02	-1.993372e+01
1.319959e+02	-1.998248e+01
1.327583e+02	-2.003045e+01
1.335251e+02	-2.008196e+01
1.342963e+02	-2.012979e+01
1.350720e+02	-2.018037e+01
1.358522e+02	-2.023081e+01
1.366368e+02	-2.028221e+01
1.374260e+02	-2.032881e+01
1.382198e+02	-2.037895e+01
1.390182e+02	-2.042839e+01
1.398211e+02	-2.047745e+01
1.406287e+02	-2.052731e+01
1.414410e+02	-2.057692e+01
1.422579e+02	-2.062768e+01
1.430796e+02	-2.067778e+01
1.439060e+02	-2.072611e+01
1.447372e+02	-2.077565e+01
1.455732e+02	-2.082546e+01
1.464141e+02	-2.087453e+01
1.472597e+02	-2.092557e+01
1.481103e+02	-2.097420e+01
1.489658e+02	-2.102522e+01
1.498262e+02	-2.107245e+01
1.506916e+02	-2.112414e+01
1.515620e+02	-2.117435e+01
1.524374e+02	-2.122220e+01
1.533179e+02	-2.127295e+01
1.542034e+02	-2.132123e+01
1.550941e+02	-2.137360e+01
1.559899e+02	-2.142359e+01
1.568909e+02	-2.147019e+01
1.577971e+02	-2.152104e+01
1.587085e+02	-2.157069e+01
1.596252e+02	-2.162108e+01
1.605472e+02	-2.167106e+01
1.614745e+02	-2.172128e+01
1.624072e+02	-2.177097e+01
1.633453e+02	-2.181902e+01
1.642887e+02	-2.186830e+01
1.652377e+02	-2.192030e+01
1.661921e+02	-2.196961e+01
1.671520e+02	-2.201747e+01
1.681175e+02	-2.206866e+01
1.690885e+02	-2.211815e+01
1.700651e+02	-2.216813e+01
1.710474e+02	-2.221756e+01
1.720354e+02	-2.226907e+01
1.730291e+02	-2.231605e+01
1.740285e+02	-2.236725e+01
1.750337e+02	-2.241545e+01
1.760446e+02	-2.246585e+01
1.770615e+02	-2.251650e+01
1.780842e+02	-2.256469e+01
1.791128e+02	-2.261410e+01
1.801473e+02	-2.266409e+01
1.811878e+02	-2.271705e+01
1.822344e+02	-2.276610e+01
1.832870e+02	-2.281650e+01
1.843456e+02	-2.286560e+01
1.854104e+02	-2.291389e+01
1.864813e+02	-2.296635e+01
1.875584e+02	-2.301400e+01
1.886418e+02	-2.306442e+01
1.897313e+02	-2.311420e+01
1.908272e+02	-2.316426e+01
1.919294e+02	-2.321379e+01
1.930380e+02	-2.326596e+01
1.941530e+02	-2.331281e+01
1.952744e+02	-2.336380e+01
1.964023e+02	-2.341231e+01
1.975367e+02	-2.346303e+01
1.986777e+02	-2.351249e+01
1.998252e+02	-2.356046e+01
2.009794e+02	-2.361051e+01
2.021403e+02	-2.366250e+01
2.033078e+02	-2.371253e+01
2.044821e+02	-2.376079e+01
2.056632e+02	-2.381007e+01
2.068511e+02	-2.386001e+01
2.080459e+02	-2.391048e+01
2.092475e+02	-2.395986e+01
2.104561e+02	-2.400943e+01
2.116717e+02	-2.405980e+01
2.128943e+02	-2.410886e+01
2.141240e+02	-2.415953e+01
2.153608e+02	-2.420905e+01
2.166047e+02	-2.426086e+01
2.178558e+02	-2.430906e+01
2.191141e+02	-2.436131e+01
2.203797e+02	-2.440781e+01
2.216526e+02	-2.445975e+01
2.229329e+02	-2.451026e+01
2.242205e+02	-2.456053e+01
2.255156e+02	-2.460981e+01
2.268182e+02	-2.465972e+01
2.281283e+02	-2.471132e+01
2.294459e+02	-2.475890e+01
2.307712e+02	-2.480886e+01
2.321041e+02	-2.486064e+01
2.334447e+02	-2.490752e+01
2.347931e+02	-2.495763e+01
2.361493e+02	-2.500677e+01
2.375133e+02	-2.505757e+01
2.388851e+02	-2.510648e+01
2.402649e+02	-2.515543e+01
2.416527e+02	-2.520893e+01
2.430484e+02	-2.525887e+01
2.444523e+02	-2.530988e+01
2.458642e+02	-2.535747e+01
2.472843e+02	-2.540513e+01
2.487126e+02	-2.545602e+01
2.501492e+02	-2.550488e+01
2.515940e+02	-2.555783e+01
2.530472e+02	-2.560748e+01
2.545088e+02	-2.565555e+01
2.559789e+02	-2.570872e+01
2.574574e+02	-2.576006e+01
2.589444e+02	-2.580670e+01
2.604401e+02	-2.585618e+01
2.619444e+02	-2.590726e+01
2.634574e+02	-2.595757e+01
2.649791e+02	-2.600452e+01
2.665096e+02	-2.605739e+01
2.680489e+02	-2.610575e+01
2.695972e+02	-2.615601e+01
2.711544e+02	-2.620754e+01
2.727205e+02	-2.625942e+01
2.742958e+02	-2.630399e+01
2.758801e+02	-2.635429e+01
2.774736e+02	-2.640905e+01
2.790762e+02	-2.645624e+01
2.806882e+02	-2.650640e+01
2.823094e+02	-2.655423e+01
2.839400e+02	-2.660800e+01
2.855800e+02	-2.665748e+01
2.872295e+02	-2.670680e+01
2.888886e+02	-2.675443e+01
2.905572e+02	-2.680908e+01
2.922354e+02	-2.685808e+01
2.939234e+02	-2.690603e+01
2.956211e+02	-2.695622e+01
2.973286e+02	-2.700554e+01
2.990459e+02	-2.705455e+01
3.007732e+02	-2.710299e+01
3.025104e+02	-2.715641e+01
3.042577e+02	-2.720336e+01
3.060151e+02	-2.725675e+01
3.077826e+02	-2.731121e+01
3.095604e+02	-2.735373e+01
3.113484e+02	-2.740371e+01
3.131467e+02	-2.745555e+01
3.149554e+02	-2.750543e+01
3.167746e+02	-2.755721e+01
3.186043e+02	-2.760484e+01
3.204445e+02	-2.765835e+01
3.222954e+02	-2.770639e+01
3.241570e+02	-2.775475e+01
3.260293e+02	-2.780441e+01
3.279124e+02	-2.785708e+01
3.298064e+02	-2.790886e+01
3.317114e+02	-2.795710e+01
3.336273e+02	-2.800880e+01
3.355544e+02	-2.805562e+01
3.374925e+02	-2.810884e+01
3.394418e+02	-2.815756e+01
3.414024e+02	-2.821169e+01
3.433744e+02	-2.826127e+01
3.453577e+02	-2.830521e+01
3.473525e+02	-2.835745e+01
3.493588e+02	-2.840565e+01
3.513766e+02	-2.845932e+01
3.534062e+02	-2.850516e+01
3.554474e+02	-2.855921e+01
3.575005e+02	-2.860518e+01
3.595654e+02	-2.865951e+01
3.616422e+02	-2.870422e+01
3.637311e+02	-2.875954e+01
3.658320e+02	-2.880847e+01
3.679450e+02	-2.885779e+01
3.700702e+02	-2.890727e+01
3.722077e+02	-2.895672e+01
3.743576e+02	-2.900562e+01
3.765199e+02	-2.905881e+01
3.786946e+02	-2.910875e+01
3.808820e+02	-2.915560e+01
3.830819e+02	-2.920971e+01
3.852946e+02	-2.925621e+01
3.875200e+02	-2.930608e+01
3.897583e+02	-2.935829e+01
3.920096e+02	-2.941034e+01
3.942738e+02	-2.946211e+01
3.965511e+02	-2.950860e+01
3.988416e+02	-2.955417e+01
4.011452e+02	-2.961260e+01
4.034622e+02	-2.965579e+01
4.057926e+02	-2.970122e+01
4.081365e+02	-2.975716e+01
4.104938e+02	-2.980795e+01
4.128648e+02	-2.986137e+01
4.152495e+02	-2.990810e+01
4.176480e+02	-2.995739e+01
4.200603e+02	-3.000643e+01
4.224866e+02	-3.006062e+01
4.249268e+02	-3.011066e+01
4.273812e+02	-3.016157e+01
4.298497e+02	-3.020755e+01
4.323325e+02	-3.025923e+01
4.348297e+02	-3.031303e+01
4.373412e+02	-3.036378e+01
4.398673e+02	-3.040345e+01
4.424079e+02	-3.046222e+01
4.449633e+02	-3.051680e+01
4.475334e+02	-3.055842e+01
4.501183e+02	-3.061207e+01
4.527182e+02	-3.066585e+01
4.553330e+02	-3.070940e+01
4.579630e+02	-3.076180e+01
4.606082e+02	-3.080945e+01
4.632687e+02	-3.086308e+01
4.659445e+02	-3.090445e+01
4.686358e+02	-3.095571e+01
4.713426e+02	-3.101001e+01
4.740650e+02	-3.105802e+01
4.768032e+02	-3.110789e+01
4.795572e+02	-3.116356e+01
4.823271e+02	-3.120835e+01
4.851130e+02	-3.126287e+01
4.879150e+02	-3.131558e+01
4.907332e+02	-3.136497e+01
4.935676e+02	-3.141123e+01
4.964185e+02	-3.146328e+01
4.992858e+02	-3.151052e+01
5.021696e+02	-3.156158e+01
5.050701e+02	-3.161328e+01
5.079874e+02	-3.165825e+01
5.109215e+02	-3.170910e+01
5.138726e+02	-3.176823e+01
5.168407e+02	-3.181289e+01
5.198259e+02	-3.186768e+01
5.228284e+02	-3.191989e+01
5.258482e+02	-3.196191e+01
5.288855e+02	-3.201828e+01
5.319403e+02	-3.206588e+01
5.350128e+02	-3.211367e+01
5.381030e+02	-3.216403e+01
5.412111e+02	-3.221570e+01
5.443371e+02	-3.226277e+01
5.474812e+02	-3.231626e+01
5.506434e+02	-3.236777e+01
5.538239e+02	-3.242636e+01
5.570228e+02	-3.246699e+01
5.602401e+02	-3.251325e+01
5.634760e+02	-3.256581e+01
5.667306e+02	-3.261448e+01
5.700040e+02	-3.267079e+01
5.732964e+02	-3.271871e+01
5.766077e+02	-3.277453e+01
5.799382e+02	-3.282121e+01
5.832879e+02	-3.286661e+01
5.866569e+02	-3.291839e+01
5.900454e+02	-3.296861e+01
5.934535e+02	-3.302007e+01
5.968813e+02	-3.307089e+01
6.003288e+02	-3.312392e+01
6.037963e+02	-3.317012e+01
6.072838e+02	-3.322193e+01
6.107914e+02	-3.327068e+01
6.143194e+02	-3.332411e+01
6.178676e+02	-3.337474e+01
6.214364e+02	-3.342048e+01
6.250258e+02	-3.347499e+01
6.286359e+02	-3.351497e+01
6.322669e+02	-3.356930e+01
6.359189e+02	-3.362097e+01
6.395919e+02	-3.367195e+01
6.432862e+02	-3.372059e+01
6.470017e+02	-3.377459e+01
6.507388e+02	-3.382406e+01
6.544974e+02	-3.386999e+01
6.582778e+02	-3.392117e+01
6.620800e+02	-3.397541e+01
6.659041e+02	-3.402734e+01
6.697504e+02	-3.406833e+01
6.736188e+02	-3.413222e+01
6.775096e+02	-3.417716e+01
6.814229e+02	-3.423075e+01
6.853587e+02	-3.428599e+01
6.893173e+02	-3.432512e+01
6.932988e+02	-3.438044e+01
6.973033e+02	-3.443144e+01
7.013309e+02	-3.447704e+01
