Frequency(Hz)	Magnitude(dB)
1.000000e+01	-2.169855e+00
1.005776e+01	-2.189455e+00
1.011585e+01	-2.209544e+00
1.017428e+01	-2.229452e+00
1.023305e+01	-2.249668e+00
1.029215e+01	-2.270009e+00
1.035160e+01	-2.290531e+00
1.041139e+01	-2.311256e+00
1.047153e+01	-2.331764e+00
1.053201e+01	-2.352671e+00
1.059284e+01	-2.373554e+00
1.065403e+01	-2.394961e+00
1.071556e+01	-2.416158e+00
1.077746e+01	-2.437469e+00
1.083971e+01	-2.459139e+00
1.090232e+01	-2.480609e+00
1.096529e+01	-2.502467e+00
1.102862e+01	-2.524502e+00
1.109232e+01	-2.546847e+00
1.115639e+01	-2.569124e+00
1.122083e+01	-2.591519e+00
1.128564e+01	-2.614108e+00
1.135083e+01	-2.636585e+00
1.141639e+01	-2.659640e+00
1.148233e+01	-2.682335e+00
1.154865e+01	-2.705611e+00
1.161536e+01	-2.728739e+00
1.168245e+01	-2.752227e+00
1.174992e+01	-2.775809e+00
1.181779e+01	-2.799380e+00
1.188605e+01	-2.823096e+00
1.195470e+01	-2.847265e+00
1.202375e+01	-2.871514e+00
1.209320e+01	-2.895738e+00
1.216305e+01	-2.920113e+00
1.223330e+01	-2.944349e+00
1.230396e+01	-2.969549e+00
1.237503e+01	-2.994233e+00
1.244651e+01	-3.019274e+00
1.251840e+01	-3.044424e+00
1.259070e+01	-3.069533e+00
1.266343e+01	-3.094943e+00
1.273657e+01	-3.120555e+00
1.281014e+01	-3.146272e+00
1.288413e+01	-3.172128e+00
1.295855e+01	-3.198109e+00
1.303339e+01	-3.223962e+00
1.310867e+01	-3.250652e+00
1.318439e+01	-3.276838e+00
1.326054e+01	-3.303503e+00
1.333713e+01	-3.330163e+00
1.341417e+01	-3.357321e+00
1.349165e+01	-3.384122e+00
1.356958e+01	-3.411244e+00
1.364795e+01	-3.438384e+00
1.372678e+01	-3.465857e+00
1.380607e+01	-3.493604e+00
1.388581e+01	-3.521227e+00
1.396602e+01	-3.549280e+00
1.404668e+01	-3.577166e+00
1.412782e+01	-3.605200e+00
1.420942e+01	-3.633691e+00
1.429149e+01	-3.662029e+00
1.437404e+01	-3.690434e+00
1.445706e+01	-3.719372e+00
1.454057e+01	-3.748383e+00
1.462455e+01	-3.776924e+00
1.470902e+01	-3.805968e+00
1.479398e+01	-3.835605e+00
1.487943e+01	-3.864906e+00
1.496537e+01	-3.894582e+00
1.505181e+01	-3.924231e+00
1.513875e+01	-3.954137e+00
1.522619e+01	-3.983934e+00
1.531414e+01	-4.014105e+00
1.540259e+01	-4.044223e+00
1.549156e+01	-4.074907e+00
1.558103e+01	-4.105191e+00
1.567103e+01	-4.136063e+00
1.576155e+01	-4.166857e+00
1.585258e+01	-4.197445e+00
1.594415e+01	-4.228664e+00
1.603624e+01	-4.260078e+00
1.612886e+01	-4.291283e+00
1.622202e+01	-4.322826e+00
1.631572e+01	-4.354189e+00
1.640996e+01	-4.386284e+00
1.650474e+01	-4.417960e+00
1.660008e+01	-4.449818e+00
1.669596e+01	-4.482112e+00
1.679239e+01	-4.514151e+00
1.688938e+01	-4.546619e+00
1.698694e+01	-4.579153e+00
1.708505e+01	-4.611868e+00
1.718373e+01	-4.644826e+00
1.728299e+01	-4.677364e+00
1.738281e+01	-4.710524e+00
1.748322e+01	-4.743940e+00
1.758420e+01	-4.777383e+00
1.768576e+01	-4.810561e+00
1.778792e+01	-4.843907e+00
1.789066e+01	-4.878075e+00
1.799399e+01	-4.911749e+00
1.809793e+01	-4.945569e+00
1.820246e+01	-4.979828e+00
1.830760e+01	-5.013724e+00
1.841334e+01	-5.048224e+00
1.851969e+01	-5.082636e+00
1.862666e+01	-5.117216e+00
1.873425e+01	-5.151861e+00
1.884246e+01	-5.186621e+00
1.895129e+01	-5.221940e+00
1.906075e+01	-5.256280e+00
1.917085e+01	-5.291738e+00
1.928158e+01	-5.327319e+00
1.939295e+01	-5.362729e+00
1.950496e+01	-5.398070e+00
1.961762e+01	-5.433825e+00
1.973093e+01	-5.469489e+00
1.984490e+01	-5.505441e+00
1.995952e+01	-5.541184e+00
2.007480e+01	-5.577411e+00
2.019076e+01	-5.613611e+00
2.030738e+01	-5.650555e+00
2.042467e+01	-5.686635e+00
2.054264e+01	-5.722922e+00
2.066130e+01	-5.759585e+00
2.078064e+01	-5.796529e+00
2.090066e+01	-5.833631e+00
2.102139e+01	-5.870630e+00
2.114280e+01	-5.907596e+00
2.126492e+01	-5.944789e+00
2.138775e+01	-5.982215e+00
2.151128e+01	-6.019940e+00
2.163553e+01	-6.057253e+00
2.176050e+01	-6.094804e+00
2.188619e+01	-6.132897e+00
2.201260e+01	-6.170794e+00
2.213974e+01	-6.208604e+00
2.226762e+01	-6.246894e+00
2.239624e+01	-6.284904e+00
2.252560e+01	-6.323235e+00
2.265571e+01	-6.361868e+00
2.278656e+01	-6.400060e+00
2.291818e+01	-6.438926e+00
2.305055e+01	-6.477569e+00
2.318369e+01	-6.516239e+00
2.331760e+01	-6.555065e+00
2.345228e+01	-6.594383e+00
2.358774e+01	-6.633438e+00
2.372398e+01	-6.672578e+00
2.386101e+01	-6.711828e+00
2.399883e+01	-6.750983e+00
2.413745e+01	-6.791260e+00
2.427686e+01	-6.830686e+00
2.441709e+01	-6.870105e+00
2.455812e+01	-6.909609e+00
2.469997e+01	-6.949913e+00
2.484263e+01	-6.989751e+00
2.498612e+01	-7.029735e+00
2.513044e+01	-7.070032e+00
2.527559e+01	-7.110527e+00
2.542158e+01	-7.150729e+00
2.556842e+01	-7.190932e+00
2.571610e+01	-7.231386e+00
2.586463e+01	-7.272127e+00
2.601403e+01	-7.312687e+00
2.616428e+01	-7.353492e+00
2.631541e+01	-7.394852e+00
2.646740e+01	-7.435081e+00
2.662028e+01	-7.476805e+00
2.677404e+01	-7.517805e+00
2.692868e+01	-7.558789e+00
2.708422e+01	-7.600162e+00
2.724066e+01	-7.641665e+00
2.739800e+01	-7.683012e+00
2.755625e+01	-7.724910e+00
2.771541e+01	-7.765912e+00
2.787550e+01	-7.807742e+00
2.803650e+01	-7.850011e+00
2.819844e+01	-7.891589e+00
2.836131e+01	-7.933191e+00
2.852513e+01	-7.975389e+00
2.868989e+01	-8.017575e+00
2.885560e+01	-8.059656e+00
2.902227e+01	-8.101932e+00
2.918990e+01	-8.144020e+00
2.935850e+01	-8.186867e+00
2.952807e+01	-8.228924e+00
2.969863e+01	-8.271660e+00
2.987016e+01	-8.314135e+00
3.004269e+01	-8.356631e+00
3.021622e+01	-8.399737e+00
3.039075e+01	-8.442756e+00
3.056628e+01	-8.485414e+00
3.074283e+01	-8.528356e+00
3.092040e+01	-8.571740e+00
3.109900e+01	-8.614346e+00
3.127862e+01	-8.657665e+00
3.145929e+01	-8.700813e+00
3.164099e+01	-8.744212e+00
3.182375e+01	-8.787265e+00
3.200756e+01	-8.831490e+00
3.219244e+01	-8.875401e+00
3.237838e+01	-8.918132e+00
3.256540e+01	-8.961813e+00
3.275349e+01	-9.005810e+00
3.294268e+01	-9.049376e+00
3.313295e+01	-9.093429e+00
3.332433e+01	-9.137488e+00
3.351681e+01	-9.181445e+00
3.371040e+01	-9.224722e+00
3.390511e+01	-9.268785e+00
3.410094e+01	-9.313322e+00
3.429791e+01	-9.357395e+00
3.449601e+01	-9.402043e+00
3.469526e+01	-9.446322e+00
3.489566e+01	-9.489762e+00
3.509721e+01	-9.535021e+00
3.529993e+01	-9.579256e+00
3.550382e+01	-9.624150e+00
3.570889e+01	-9.668416e+00
3.591515e+01	-9.713135e+00
3.612259e+01	-9.757675e+00
3.633123e+01	-9.802727e+00
3.654108e+01	-9.847161e+00
3.675214e+01	-9.892425e+00
3.696442e+01	-9.937049e+00
3.717792e+01	-9.982259e+00
3.739266e+01	-1.002734e+01
3.760864e+01	-1.007233e+01
3.782587e+01	-1.011709e+01
3.804435e+01	-1.016276e+01
3.826409e+01	-1.020798e+01
3.848510e+01	-1.025283e+01
3.870739e+01	-1.029858e+01
3.893096e+01	-1.034322e+01
3.915583e+01	-1.038924e+01
3.938199e+01	-1.043473e+01
3.960946e+01	-1.048024e+01
3.983824e+01	-1.052569e+01
4.006834e+01	-1.057092e+01
4.029978e+01	-1.061715e+01
4.053255e+01	-1.066232e+01
4.076666e+01	-1.070846e+01
4.100213e+01	-1.075419e+01
4.123896e+01	-1.080076e+01
4.147715e+01	-1.084631e+01
4.171672e+01	-1.089233e+01
4.195767e+01	-1.093786e+01
4.220002e+01	-1.098380e+01
4.244377e+01	-1.103021e+01
4.268892e+01	-1.107609e+01
4.293549e+01	-1.112198e+01
4.318348e+01	-1.116885e+01
4.343291e+01	-1.121444e+01
4.368377e+01	-1.126056e+01
4.393609e+01	-1.130707e+01
4.418986e+01	-1.135342e+01
4.444510e+01	-1.139991e+01
4.470182e+01	-1.144670e+01
4.496001e+01	-1.149294e+01
4.521970e+01	-1.153968e+01
4.548089e+01	-1.158639e+01
4.574358e+01	-1.163192e+01
4.600779e+01	-1.167870e+01
4.627353e+01	-1.172532e+01
4.654081e+01	-1.177277e+01
4.680963e+01	-1.181848e+01
4.708000e+01	-1.186533e+01
4.735193e+01	-1.191277e+01
4.762543e+01	-1.195926e+01
4.790051e+01	-1.200642e+01
4.817719e+01	-1.205317e+01
4.845545e+01	-1.210026e+01
4.873533e+01	-1.214755e+01
4.901682e+01	-1.219401e+01
4.929994e+01	-1.224148e+01
4.958470e+01	-1.228797e+01
4.987110e+01	-1.233531e+01
5.015915e+01	-1.238236e+01
5.044887e+01	-1.242933e+01
5.074026e+01	-1.247666e+01
5.103333e+01	-1.252410e+01
5.132810e+01	-1.257131e+01
5.162457e+01	-1.261831e+01
5.192275e+01	-1.266604e+01
5.222265e+01	-1.271320e+01
5.252429e+01	-1.276093e+01
5.282767e+01	-1.280784e+01
5.313280e+01	-1.285557e+01
5.343969e+01	-1.290299e+01
5.374836e+01	-1.295102e+01
5.405880e+01	-1.299683e+01
5.437105e+01	-1.304389e+01
5.468509e+01	-1.309276e+01
5.500095e+01	-1.314027e+01
5.531863e+01	-1.318722e+01
5.563815e+01	-1.323580e+01
5.595951e+01	-1.328305e+01
5.628273e+01	-1.333128e+01
5.660782e+01	-1.337903e+01
5.693479e+01	-1.342608e+01
5.726364e+01	-1.347434e+01
5.759439e+01	-1.352182e+01
5.792705e+01	-1.356993e+01
5.826164e+01	-1.361740e+01
5.859815e+01	-1.366508e+01
5.893662e+01	-1.371318e+01
5.927703e+01	-1.376155e+01
5.961941e+01	-1.380928e+01
5.996377e+01	-1.385722e+01
6.031012e+01	-1.390572e+01
6.065847e+01	-1.395320e+01
6.100883e+01	-1.400138e+01
6.136121e+01	-1.404867e+01
6.171563e+01	-1.409722e+01
6.207210e+01	-1.414519e+01
6.243063e+01	-1.419298e+01
6.279122e+01	-1.424213e+01
6.315390e+01	-1.428983e+01
6.351868e+01	-1.433860e+01
6.388556e+01	-1.438696e+01
6.425456e+01	-1.443419e+01
6.462569e+01	-1.448339e+01
6.499897e+01	-1.453060e+01
6.537440e+01	-1.457835e+01
6.575200e+01	-1.462696e+01
6.613178e+01	-1.467519e+01
6.651375e+01	-1.472415e+01
6.689793e+01	-1.477236e+01
6.728433e+01	-1.482086e+01
6.767297e+01	-1.486874e+01
6.806384e+01	-1.491723e+01
6.845698e+01	-1.496594e+01
6.885238e+01	-1.501462e+01
6.925007e+01	-1.506274e+01
6.965005e+01	-1.511127e+01
7.005235e+01	-1.515979e+01
7.045697e+01	-1.520858e+01
7.086393e+01	-1.525670e+01
7.127323e+01	-1.530551e+01
7.168490e+01	-1.535419e+01
7.209895e+01	-1.540268e+01
7.251539e+01	-1.545071e+01
7.293424e+01	-1.550078e+01
7.335551e+01	-1.554735e+01
7.377920e+01	-1.559723e+01
7.420535e+01	-1.564582e+01
7.463396e+01	-1.569483e+01
7.506504e+01	-1.574286e+01
7.549861e+01	-1.579226e+01
7.593469e+01	-1.583981e+01
7.637328e+01	-1.588976e+01
7.681441e+01	-1.593943e+01
7.725809e+01	-1.598760e+01
7.770433e+01	-1.603554e+01
7.815315e+01	-1.608508e+01
7.860456e+01	-1.613333e+01
7.905857e+01	-1.618110e+01
7.951521e+01	-1.623108e+01
7.997449e+01	-1.628035e+01
8.043642e+01	-1.632817e+01
8.090102e+01	-1.637810e+01
8.136830e+01	-1.642587e+01
8.183828e+01	-1.647488e+01
8.231097e+01	-1.652463e+01
8.278640e+01	-1.657294e+01
8.326457e+01	-1.662188e+01
8.374550e+01	-1.667102e+01
8.422921e+01	-1.672030e+01
8.471572e+01	-1.676804e+01
8.520503e+01	-1.681661e+01
8.569717e+01	-1.686688e+01
8.619215e+01	-1.691541e+01
8.669000e+01	-1.696611e+01
8.719071e+01	-1.701413e+01
8.769432e+01	-1.706348e+01
8.820084e+01	-1.711164e+01
8.871029e+01	-1.715965e+01
8.922267e+01	-1.721020e+01
8.973802e+01	-1.725992e+01
9.025634e+01	-1.730927e+01
9.077766e+01	-1.735714e+01
9.130199e+01	-1.740667e+01
9.182935e+01	-1.745562e+01
9.235975e+01	-1.750316e+01
9.289321e+01	-1.755408e+01
9.342976e+01	-1.760288e+01
9.396941e+01	-1.765306e+01
9.451217e+01	-1.770267e+01
9.505807e+01	-1.774945e+01
9.560712e+01	-1.779967e+01
9.615934e+01	-1.784826e+01
9.671476e+01	-1.789982e+01
9.727338e+01	-1.794815e+01
9.783522e+01	-1.799606e+01
9.840032e+01	-1.804656e+01
9.896867e+01	-1.809426e+01
9.954031e+01	-1.814388e+01
1.001153e+02	-1.819426e+01
1.006935e+02	-1.824198e+01
1.012751e+02	-1.829131e+01
1.018601e+02	-1.834298e+01
1.024484e+02	-1.839043e+01
1.030402e+02	-1.844061e+01
1.036353e+02	-1.849035e+01
1.042339e+02	-1.854064e+01
1.048360e+02	-1.858783e+01
1.054415e+02	-1.863853e+01
1.060505e+02	-1.868705e+01
1.066631e+02	-1.873667e+01
1.072791e+02	-1.878467e+01
1.078988e+02	-1.883385e+01
1.085220e+02	-1.888439e+01
1.091488e+02	-1.893327e+01
1.097793e+02	-1.898373e+01
1.104133e+02	-1.903237e+01
1.110511e+02	-1.908109e+01
1.116925e+02	-1.912882e+01
1.123376e+02	-1.918164e+01
1.129865e+02	-1.922996e+01
1.136391e+02	-1.927985e+01
1.142955e+02	-1.932897e+01
1.149556e+02	-1.937898e+01
1.156196e+02	-1.942869e+01
1.162874e+02	-1.947858e+01
1.169591e+02	-1.952873e+01
1.176347e+02	-1.957700e+01
1.183141e+02	-1.962557e+01
1.189975e+02	-1.967664e+01
1.196848e+02	-1.972579e+01
1.203761e+02	-1.977272e+01
1.210714e+02	-1.982397e+01
1.217707e+02	-1.987200e+01
1.224740e+02	-1.992223e+01
1.231814e+02	-1.997328e+01
1.238929e+02	-2.002223e+01
1.246085e+02	-2.007310e+01
1.253283e+02	-2.012101e+01
1.260522e+02	-2.017081e+01
1.267802e+02	-2.022065e+01
1.275125e+02	-2.027031e+01
1.282490e+02	-2.031854e+01
1.289898e+02	-2.036826e+01
1.297348e+02	-2.041777e+01
1.304842e+02	-2.046622e+01
1.312378e+02	-2.051732e+01
1.319959e+02	-2.056584e+01
1.327583e+02	-2.061774e+01
1.335251e+02	-2.066919e+01
1.342963e+02	-2.071490e+01
1.350720e+02	-2.076567e+01
1.358522e+02	-2.081425e+01
1.366368e+02	-2.086596e+01
1.374260e+02	-2.091475e+01
1.382198e+02	-2.096250e+01
1.390182e+02	-2.101260e+01
1.398211e+02	-2.106347e+01
1.406287e+02	-2.111399e+01
1.414410e+02	-2.116186e+01
1.422579e+02	-2.121175e+01
1.430796e+02	-2.126080e+01
1.439060e+02	-2.131259e+01
1.447372e+02	-2.136301e+01
1.455732e+02	-2.141085e+01
1.464141e+02	-2.146118e+01
1.472597e+02	-2.151101e+01
1.481103e+02	-2.155968e+01
1.489658e+02	-2.161025e+01
1.498262e+02	-2.165997e+01
1.506916e+02	-2.170842e+01
1.515620e+02	-2.175772e+01
1.524374e+02	-2.180759e+01
1.533179e+02	-2.185861e+01
1.542034e+02	-2.190776e+01
1.550941e+02	-2.196006e+01
1.559899e+02	-2.200835e+01
1.568909e+02	-2.205599e+01
1.577971e+02	-2.210608e+01
1.587085e+02	-2.215869e+01
1.596252e+02	-2.220642e+01
1.605472e+02	-2.225575e+01
1.614745e+02	-2.230756e+01
1.624072e+02	-2.235591e+01
1.633453e+02	-2.240626e+01
1.642887e+02	-2.245652e+01
1.652377e+02	-2.250418e+01
1.661921e+02	-2.255527e+01
1.671520e+02	-2.260305e+01
1.681175e+02	-2.265424e+01
1.690885e+02	-2.270444e+01
1.700651e+02	-2.275406e+01
1.710474e+02	-2.280234e+01
1.720354e+02	-2.285321e+01
1.730291e+02	-2.290192e+01
1.740285e+02	-2.295257e+01
1.750337e+02	-2.300331e+01
1.760446e+02	-2.305470e+01
1.770615e+02	-2.310288e+01
1.780842e+02	-2.315289e+01
1.791128e+02	-2.320348e+01
1.801473e+02	-2.325218e+01
1.811878e+02	-2.330039e+01
1.822344e+02	-2.334965e+01
1.832870e+02	-2.340106e+01
1.843456e+02	-2.345017e+01
1.854104e+02	-2.350235e+01
1.864813e+02	-2.355193e+01
1.875584e+02	-2.360051e+01
1.886418e+02	-2.365043e+01
1.897313e+02	-2.370302e+01
1.908272e+02	-2.375220e+01
1.919294e+02	-2.380074e+01
1.930380e+02	-2.385102e+01
1.941530e+02	-2.390018e+01
1.952744e+02	-2.394990e+01
1.964023e+02	-2.399966e+01
1.975367e+02	-2.405136e+01
1.986777e+02	-2.409932e+01
1.998252e+02	-2.414582e+01
2.009794e+02	-2.420065e+01
2.021403e+02	-2.424823e+01
2.033078e+02	-2.429841e+01
2.044821e+02	-2.434902e+01
2.056632e+02	-2.439457e+01
2.068511e+02	-2.444914e+01
2.080459e+02	-2.450113e+01
2.092475e+02	-2.454804e+01
2.104561e+02	-2.459744e+01
2.116717e+02	-2.464860e+01
2.128943e+02	-2.469888e+01
2.141240e+02	-2.474897e+01
2.153608e+02	-2.479612e+01
2.166047e+02	-2.484579e+01
2.178558e+02	-2.489740e+01
2.191141e+02	-2.494700e+01
2.203797e+02	-2.499893e+01
2.216526e+02	-2.504314e+01
2.229329e+02	-2.509643e+01
2.242205e+02	-2.514762e+01
2.255156e+02	-2.519370e+01
2.268182e+02	-2.524881e+01
2.281283e+02	-2.529351e+01
2.294459e+02	-2.534659e+01
2.307712e+02	-2.539964e+01
2.321041e+02	-2.544626e+01
2.334447e+02	-2.549731e+01
2.347931e+02	-2.554617e+01
2.361493e+02	-2.559406e+01
2.375133e+02	-2.564595e+01
2.388851e+02	-2.569516e+01
2.402649e+02	-2.574712e+01
2.416527e+02	-2.579988e+01
2.430484e+02	-2.584347e+01
2.444523e+02	-2.589747e+01
2.458642e+02	-2.594658e+01
2.472843e+02	-2.599556e+01
2.487126e+02	-2.604846e+01
2.501492e+02	-2.609760e+01
2.515940e+02	-2.614446e+01
2.530472e+02	-2.619569e+01
2.545088e+02	-2.624537e+01
2.559789e+02	-2.629516e+01
2.574574e+02	-2.634499e+01
2.589444e+02	-2.639654e+01
2.604401e+02	-2.644371e+01
2.619444e+02	-2.649366e+01
2.634574e+02	-2.654647e+01
2.649791e+02	-2.659531e+01
2.665096e+02	-2.664660e+01
2.680489e+02	-2.669422e+01
2.695972e+02	-2.674684e+01
2.711544e+02	-2.679532e+01
2.727205e+02	-2.684414e+01
2.742958e+02	-2.689516e+01
2.758801e+02	-2.694394e+01
2.774736e+02	-2.699620e+01
2.790762e+02	-2.704803e+01
2.806882e+02	-2.709355e+01
2.823094e+02	-2.714466e+01
2.839400e+02	-2.719919e+01
2.855800e+02	-2.724677e+01
2.872295e+02	-2.729303e+01
2.888886e+02	-2.734397e+01
2.905572e+02	-2.739563e+01
2.922354e+02	-2.744702e+01
2.939234e+02	-2.749474e+01
2.956211e+02	-2.754264e+01
2.973286e+02	-2.759856e+01
2.990459e+02	-2.764564e+01
3.007732e+02	-2.769586e+01
3.025104e+02	-2.774535e+01
3.042577e+02	-2.779053e+01
3.060151e+02	-2.784508e+01
3.077826e+02	-2.789930e+01
3.095604e+02	-2.794288e+01
3.113484e+02	-2.799505e+01
3.131467e+02	-2.804419e+01
3.149554e+02	-2.809291e+01
3.167746e+02	-2.814714e+01
3.186043e+02	-2.819281e+01
3.204445e+02	-2.824490e+01
3.222954e+02	-2.829390e+01
3.241570e+02	-2.834807e+01
3.260293e+02	-2.839503e+01
3.279124e+02	-2.844868e+01
3.298064e+02	-2.849475e+01
3.317114e+02	-2.854454e+01
3.336273e+02	-2.859790e+01
3.355544e+02	-2.864778e+01
3.374925e+02	-2.869862e+01
3.394418e+02	-2.874607e+01
3.414024e+02	-2.879990e+01
3.433744e+02	-2.884276e+01
3.453577e+02	-2.889448e+01
3.473525e+02	-2.894344e+01
3.493588e+02	-2.899749e+01
3.513766e+02	-2.904382e+01
3.534062e+02	-2.909517e+01
3.554474e+02	-2.914413e+01
3.575005e+02	-2.920091e+01
3.595654e+02	-2.924780e+01
3.616422e+02	-2.929402e+01
3.637311e+02	-2.934767e+01
3.658320e+02	-2.939554e+01
3.679450e+02	-2.945044e+01
3.700702e+02	-2.949428e+01
3.722077e+02	-2.954532e+01
3.743576e+02	-2.959876e+01
3.765199e+02	-2.964326e+01
3.786946e+02	-2.969882e+01
3.808820e+02	-2.974766e+01
3.830819e+02	-2.979807e+01
3.852946e+02	-2.985035e+01
3.875200e+02	-2.989937e+01
3.897583e+02	-2.994458e+01
3.920096e+02	-2.999972e+01
3.942738e+02	-3.004678e+01
3.965511e+02	-3.009553e+01
3.988416e+02	-3.014934e+01
4.011452e+02	-3.019786e+01
4.034622e+02	-3.025016e+01
4.057926e+02	-3.029890e+01
4.081365e+02	-3.034864e+01
4.104938e+02	-3.039614e+01
4.128648e+02	-3.045001e+01
4.152495e+02	-3.050061e+01
4.176480e+02	-3.054650e+01
4.200603e+02	-3.059798e+01
4.224866e+02	-3.064840e+01
4.249268e+02	-3.069666e+01
4.273812e+02	-3.075388e+01
4.298497e+02	-3.079792e+01
4.323325e+02	-3.085254e+01
4.348297e+02	-3.089832e+01
4.373412e+02	-3.095061e+01
4.398673e+02	-3.100323e+01
4.424079e+02	-3.105049e+01
4.449633e+02	-3.109667e+01
4.475334e+02	-3.115388e+01
4.501183e+02	-3.120148e+01
4.527182e+02	-3.125114e+01
4.553330e+02	-3.130638e+01
4.579630e+02	-3.135120e+01
4.606082e+02	-3.139555e+01
4.632687e+02	-3.145299e+01
4.659445e+02	-3.150068e+01
4.686358e+02	-3.155487e+01
4.713426e+02	-3.160389e+01
4.740650e+02	-3.164771e+01
4.768032e+02	-3.170612e+01
4.795572e+02	-3.175561e+01
4.823271e+02	-3.180198e+01
4.851130e+02	-3.185140e+01
4.879150e+02	-3.190726e+01
4.907332e+02	-3.195920e+01
4.935676e+02	-3.199840e+01
4.964185e+02	-3.205515e+01
4.992858e+02	-3.210294e+01
5.021696e+02	-3.215495e+01
5.050701e+02	-3.221237e+01
5.079874e+02	-3.225342e+01
5.109215e+02	-3.231070e+01
5.138726e+02	-3.235421e+01
5.168407e+02	-3.240863e+01
5.198259e+02	-3.245473e+01
5.228284e+02	-3.250552e+01
5.258482e+02	-3.255691e+01
5.288855e+02	-3.260876e+01
5.319403e+02	-3.265040e+01
5.350128e+02	-3.271196e+01
5.381030e+02	-3.275254e+01
5.412111e+02	-3.281396e+01
5.443371e+02	-3.285729e+01
5.474812e+02	-3.290749e+01
5.506434e+02	-3.296187e+01
5.538239e+02	-3.300036e+01
5.570228e+02	-3.306352e+01
5.602401e+02	-3.310369e+01
5.634760e+02	-3.316301e+01
5.667306e+02	-3.320775e+01
5.700040e+02	-3.326280e+01
5.732964e+02	-3.331001e+01
5.766077e+02	-3.336848e+01
5.799382e+02	-3.340876e+01
5.832879e+02	-3.346854e+01
5.866569e+02	-3.350678e+01
5.900454e+02	-3.357062e+01
5.934535e+02	-3.361560e+01
5.968813e+02	-3.366568e+01
6.003288e+02	-3.371555e+01
6.037963e+02	-3.375842e+01
6.072838e+02	-3.381192e+01
6.107914e+02	-3.385800e+01
6.143194e+02	-3.390281e+01
6.178676e+02	-3.397162e+01
6.214364e+02	-3.402145e+01
6.250258e+02	-3.406718e+01
6.286359e+02	-3.410907e+01
6.322669e+02	-3.416572e+01
6.359189e+02	-3.422249e+01
6.395919e+02	-3.426839e+01
6.432862e+02	-3.431618e+01
6.470017e+02	-3.437296e+01
6.507388e+02	-3.441659e+01
6.544974e+02	-3.446603e+01
6.582778e+02	-3.450837e+01
6.620800e+02	-3.457011e+01
6.659041e+02	-3.462128e+01
6.697504e+02	-3.466581e+01
6.736188e+02	-3.472093e+01
6.775096e+02	-3.476355e+01
6.814229e+02	-3.482204e+01
6.853587e+02	-3.487171e+01
6.893173e+02	-3.491074e+01
6.932988e+02	-3.496862e+01
6.973033e+02	-3.502698e+01
7.013309e+02	-3.507322e+01
