Frequency(Hz)	Magnitude(dB)
1.000000e+01	-2.047625e+00
1.005776e+01	-2.066499e+00
1.011585e+01	-2.085482e+00
1.017428e+01	-2.104758e+00
1.023305e+01	-2.124079e+00
1.029215e+01	-2.143202e+00
1.035160e+01	-2.163021e+00
1.041139e+01	-2.182648e+00
1.047153e+01	-2.202314e+00
1.053201e+01	-2.222570e+00
1.059284e+01	-2.242453e+00
1.065403e+01	-2.262878e+00
1.071556e+01	-2.283149e+00
1.077746e+01	-2.303600e+00
1.083971e+01	-2.324257e+00
1.090232e+01	-2.345000e+00
1.096529e+01	-2.366018e+00
1.102862e+01	-2.387266e+00
1.109232e+01	-2.408239e+00
1.115639e+01	-2.429750e+00
1.122083e+01	-2.451184e+00
1.128564e+01	-2.472803e+00
1.135083e+01	-2.494736e+00
1.141639e+01	-2.516760e+00
1.148233e+01	-2.538676e+00
1.154865e+01	-2.560799e+00
1.161536e+01	-2.583295e+00
1.168245e+01	-2.605906e+00
1.174992e+01	-2.628545e+00
1.181779e+01	-2.651090e+00
1.188605e+01	-2.674123e+00
1.195470e+01	-2.697293e+00
1.202375e+01	-2.720511e+00
1.209320e+01	-2.743713e+00
1.216305e+01	-2.767264e+00
1.223330e+01	-2.790845e+00
1.230396e+01	-2.814864e+00
1.237503e+01	-2.838765e+00
1.244651e+01	-2.862820e+00
1.251840e+01	-2.886913e+00
1.259070e+01	-2.911357e+00
1.266343e+01	-2.935806e+00
1.273657e+01	-2.960210e+00
1.281014e+01	-2.985233e+00
1.288413e+01	-3.010301e+00
1.295855e+01	-3.035014e+00
1.303339e+01	-3.060447e+00
1.310867e+01	-3.086030e+00
1.318439e+01	-3.111291e+00
1.326054e+01	-3.136960e+00
1.333713e+01	-3.163021e+00
1.341417e+01	-3.188763e+00
1.349165e+01	-3.214857e+00
1.356958e+01	-3.241278e+00
1.364795e+01	-3.267711e+00
1.372678e+01	-3.294166e+00
1.380607e+01	-3.320678e+00
1.388581e+01	-3.347545e+00
1.396602e+01	-3.374650e+00
1.404668e+01	-3.401295e+00
1.412782e+01	-3.428894e+00
1.420942e+01	-3.456415e+00
1.429149e+01	-3.483740e+00
1.437404e+01	-3.511159e+00
1.445706e+01	-3.539427e+00
1.454057e+01	-3.567178e+00
1.462455e+01	-3.595347e+00
1.470902e+01	-3.623482e+00
1.479398e+01	-3.651570e+00
1.487943e+01	-3.680487e+00
1.496537e+01	-3.709161e+00
1.505181e+01	-3.737631e+00
1.513875e+01	-3.766866e+00
1.522619e+01	-3.795860e+00
1.531414e+01	-3.825049e+00
1.540259e+01	-3.854714e+00
1.549156e+01	-3.884191e+00
1.558103e+01	-3.913467e+00
1.567103e+01	-3.943612e+00
1.576155e+01	-3.973196e+00
1.585258e+01	-4.003274e+00
1.594415e+01	-4.033605e+00
1.603624e+01	-4.063919e+00
1.612886e+01	-4.094427e+00
1.622202e+01	-4.124927e+00
1.631572e+01	-4.155799e+00
1.640996e+01	-4.186608e+00
1.650474e+01	-4.217760e+00
1.660008e+01	-4.248724e+00
1.669596e+01	-4.279968e+00
1.679239e+01	-4.311580e+00
1.688938e+01	-4.342926e+00
1.698694e+01	-4.374603e+00
1.708505e+01	-4.406432e+00
1.718373e+01	-4.438464e+00
1.728299e+01	-4.470676e+00
1.738281e+01	-4.502800e+00
1.748322e+01	-4.535058e+00
1.758420e+01	-4.567787e+00
1.768576e+01	-4.600178e+00
1.778792e+01	-4.633275e+00
1.789066e+01	-4.665912e+00
1.799399e+01	-4.698907e+00
1.809793e+01	-4.731917e+00
1.820246e+01	-4.765132e+00
1.830760e+01	-4.798627e+00
1.841334e+01	-4.832235e+00
1.851969e+01	-4.865734e+00
1.862666e+01	-4.899904e+00
1.873425e+01	-4.933706e+00
1.884246e+01	-4.967400e+00
1.895129e+01	-5.001869e+00
1.906075e+01	-5.035895e+00
1.917085e+01	-5.070181e+00
1.928158e+01	-5.105006e+00
1.939295e+01	-5.139511e+00
1.950496e+01	-5.174117e+00
1.961762e+01	-5.209087e+00
1.973093e+01	-5.244359e+00
1.984490e+01	-5.279249e+00
1.995952e+01	-5.314569e+00
2.007480e+01	-5.349989e+00
2.019076e+01	-5.385298e+00
2.030738e+01	-5.421017e+00
2.042467e+01	-5.456622e+00
2.054264e+01	-5.492548e+00
2.066130e+01	-5.528515e+00
2.078064e+01	-5.564449e+00
2.090066e+01	-5.600628e+00
2.102139e+01	-5.636944e+00
2.114280e+01	-5.673674e+00
2.126492e+01	-5.710126e+00
2.138775e+01	-5.746876e+00
2.151128e+01	-5.783651e+00
2.163553e+01	-5.820583e+00
2.176050e+01	-5.857192e+00
2.188619e+01	-5.894555e+00
2.201260e+01	-5.931751e+00
2.213974e+01	-5.969216e+00
2.226762e+01	-6.006424e+00
2.239624e+01	-6.043721e+00
2.252560e+01	-6.081582e+00
2.265571e+01	-6.119150e+00
2.278656e+01	-6.157298e+00
2.291818e+01	-6.195060e+00
2.305055e+01	-6.233342e+00
2.318369e+01	-6.271469e+00
2.331760e+01	-6.309897e+00
2.345228e+01	-6.348014e+00
2.358774e+01	-6.386477e+00
2.372398e+01	-6.424793e+00
2.386101e+01	-6.463354e+00
2.399883e+01	-6.502308e+00
2.413745e+01	-6.541438e+00
2.427686e+01	-6.580234e+00
2.441709e+01	-6.619005e+00
2.455812e+01	-6.658702e+00
2.469997e+01	-6.698043e+00
2.484263e+01	-6.737212e+00
2.498612e+01	-6.776966e+00
2.513044e+01	-6.816107e+00
2.527559e+01	-6.855650e+00
2.542158e+01	-6.895545e+00
2.556842e+01	-6.935842e+00
2.571610e+01	-6.975209e+00
2.586463e+01	-7.015517e+00
2.601403e+01	-7.056108e+00
2.616428e+01	-7.095843e+00
2.631541e+01	-7.136593e+00
2.646740e+01	-7.176570e+00
2.662028e+01	-7.217359e+00
2.677404e+01	-7.257398e+00
2.692868e+01	-7.298360e+00
2.708422e+01	-7.338884e+00
2.724066e+01	-7.379911e+00
2.739800e+01	-7.420960e+00
2.755625e+01	-7.461640e+00
2.771541e+01	-7.503087e+00
2.787550e+01	-7.544246e+00
2.803650e+01	-7.585190e+00
2.819844e+01	-7.626636e+00
2.836131e+01	-7.667832e+00
2.852513e+01	-7.709767e+00
2.868989e+01	-7.750871e+00
2.885560e+01	-7.793062e+00
2.902227e+01	-7.834642e+00
2.918990e+01	-7.876245e+00
2.935850e+01	-7.918122e+00
2.952807e+01	-7.960755e+00
2.969863e+01	-8.002379e+00
2.987016e+01	-8.044448e+00
3.004269e+01	-8.086993e+00
3.021622e+01	-8.129167e+00
3.039075e+01	-8.170966e+00
3.056628e+01	-8.214071e+00
3.074283e+01	-8.256133e+00
3.092040e+01	-8.299172e+00
3.109900e+01	-8.341636e+00
3.127862e+01	-8.384563e+00
3.145929e+01	-8.427593e+00
3.164099e+01	-8.470605e+00
3.182375e+01	-8.513455e+00
3.200756e+01	-8.555824e+00
3.219244e+01	-8.599005e+00
3.237838e+01	-8.642005e+00
3.256540e+01	-8.685521e+00
3.275349e+01	-8.728432e+00
3.294268e+01	-8.772169e+00
3.313295e+01	-8.815683e+00
3.332433e+01	-8.859065e+00
3.351681e+01	-8.902965e+00
3.371040e+01	-8.946163e+00
3.390511e+01	-8.989957e+00
3.410094e+01	-9.033822e+00
3.429791e+01	-9.077609e+00
3.449601e+01	-9.121251e+00
3.469526e+01	-9.165344e+00
3.489566e+01	-9.209760e+00
3.509721e+01	-9.253416e+00
3.529993e+01	-9.297690e+00
3.550382e+01	-9.341562e+00
3.570889e+01	-9.385789e+00
3.591515e+01	-9.430200e+00
3.612259e+01	-9.474253e+00
3.633123e+01	-9.518843e+00
3.654108e+01	-9.563661e+00
3.675214e+01	-9.607805e+00
3.696442e+01	-9.652073e+00
3.717792e+01	-9.696794e+00
3.739266e+01	-9.742105e+00
3.760864e+01	-9.787034e+00
3.782587e+01	-9.831538e+00
3.804435e+01	-9.876257e+00
3.826409e+01	-9.921298e+00
3.848510e+01	-9.965800e+00
3.870739e+01	-1.001113e+01
3.893096e+01	-1.005644e+01
3.915583e+01	-1.010119e+01
3.938199e+01	-1.014674e+01
3.960946e+01	-1.019220e+01
3.983824e+01	-1.023745e+01
4.006834e+01	-1.028226e+01
4.029978e+01	-1.032729e+01
4.053255e+01	-1.037313e+01
4.076666e+01	-1.041835e+01
4.100213e+01	-1.046442e+01
4.123896e+01	-1.050927e+01
4.147715e+01	-1.055520e+01
4.171672e+01	-1.060089e+01
4.195767e+01	-1.064604e+01
4.220002e+01	-1.069255e+01
4.244377e+01	-1.073781e+01
4.268892e+01	-1.078341e+01
4.293549e+01	-1.082988e+01
4.318348e+01	-1.087584e+01
4.343291e+01	-1.092136e+01
4.368377e+01	-1.096734e+01
4.393609e+01	-1.101424e+01
4.418986e+01	-1.106017e+01
4.444510e+01	-1.110610e+01
4.470182e+01	-1.115150e+01
4.496001e+01	-1.119809e+01
4.521970e+01	-1.124402e+01
4.548089e+01	-1.129069e+01
4.574358e+01	-1.133745e+01
4.600779e+01	-1.138359e+01
4.627353e+01	-1.142976e+01
4.654081e+01	-1.147561e+01
4.680963e+01	-1.152310e+01
4.708000e+01	-1.156955e+01
4.735193e+01	-1.161604e+01
4.762543e+01	-1.166269e+01
4.790051e+01	-1.170908e+01
4.817719e+01	-1.175626e+01
4.845545e+01	-1.180266e+01
4.873533e+01	-1.184935e+01
4.901682e+01	-1.189626e+01
4.929994e+01	-1.194272e+01
4.958470e+01	-1.198939e+01
4.987110e+01	-1.203674e+01
5.015915e+01	-1.208357e+01
5.044887e+01	-1.213097e+01
5.074026e+01	-1.217785e+01
5.103333e+01	-1.222414e+01
5.132810e+01	-1.227178e+01
5.162457e+01	-1.231805e+01
5.192275e+01	-1.236563e+01
5.222265e+01	-1.241260e+01
5.252429e+01	-1.245949e+01
5.282767e+01	-1.250750e+01
5.313280e+01	-1.255353e+01
5.343969e+01	-1.260135e+01
5.374836e+01	-1.264837e+01
5.405880e+01	-1.269677e+01
5.437105e+01	-1.274296e+01
5.468509e+01	-1.279116e+01
5.500095e+01	-1.283840e+01
5.531863e+01	-1.288629e+01
5.563815e+01	-1.293374e+01
5.595951e+01	-1.298089e+01
5.628273e+01	-1.302834e+01
5.660782e+01	-1.307598e+01
5.693479e+01	-1.312342e+01
5.726364e+01	-1.317059e+01
5.759439e+01	-1.321827e+01
5.792705e+01	-1.326630e+01
5.826164e+01	-1.331378e+01
5.859815e+01	-1.336141e+01
5.893662e+01	-1.341037e+01
5.927703e+01	-1.345726e+01
5.961941e+01	-1.350547e+01
5.996377e+01	-1.355230e+01
6.031012e+01	-1.360011e+01
6.065847e+01	-1.364870e+01
6.100883e+01	-1.369626e+01
6.136121e+01	-1.374414e+01
6.171563e+01	-1.379171e+01
6.207210e+01	-1.383980e+01
6.243063e+01	-1.388850e+01
6.279122e+01	-1.393647e+01
6.315390e+01	-1.398381e+01
6.351868e+01	-1.403193e+01
6.388556e+01	-1.408027e+01
6.425456e+01	-1.412829e+01
6.462569e+01	-1.417622e+01
6.499897e+01	-1.422421e+01
6.537440e+01	-1.427256e+01
6.575200e+01	-1.432078e+01
6.613178e+01	-1.436922e+01
6.651375e+01	-1.441678e+01
6.689793e+01	-1.446492e+01
6.728433e+01	-1.451376e+01
6.767297e+01	-1.456272e+01
6.806384e+01	-1.461072e+01
6.845698e+01	-1.465858e+01
6.885238e+01	-1.470747e+01
6.925007e+01	-1.475452e+01
6.965005e+01	-1.480326e+01
7.005235e+01	-1.485186e+01
7.045697e+01	-1.490088e+01
7.086393e+01	-1.494845e+01
7.127323e+01	-1.499655e+01
7.168490e+01	-1.504616e+01
7.209895e+01	-1.509454e+01
7.251539e+01	-1.514292e+01
7.293424e+01	-1.519203e+01
7.335551e+01	-1.523915e+01
7.377920e+01	-1.528881e+01
7.420535e+01	-1.533800e+01
7.463396e+01	-1.538507e+01
7.506504e+01	-1.543331e+01
7.549861e+01	-1.548232e+01
7.593469e+01	-1.553189e+01
7.637328e+01	-1.557986e+01
7.681441e+01	-1.562837e+01
7.725809e+01	-1.567658e+01
7.770433e+01	-1.572563e+01
7.815315e+01	-1.577406e+01
7.860456e+01	-1.582380e+01
7.905857e+01	-1.587195e+01
7.951521e+01	-1.592142e+01
7.997449e+01	-1.596980e+01
8.043642e+01	-1.601738e+01
8.090102e+01	-1.606661e+01
8.136830e+01	-1.611534e+01
8.183828e+01	-1.616470e+01
8.231097e+01	-1.621242e+01
8.278640e+01	-1.626332e+01
8.326457e+01	-1.631047e+01
8.374550e+01	-1.636007e+01
8.422921e+01	-1.640959e+01
8.471572e+01	-1.645741e+01
8.520503e+01	-1.650720e+01
8.569717e+01	-1.655538e+01
8.619215e+01	-1.660385e+01
8.669000e+01	-1.665262e+01
8.719071e+01	-1.670190e+01
8.769432e+01	-1.675109e+01
8.820084e+01	-1.680040e+01
8.871029e+01	-1.685019e+01
8.922267e+01	-1.689768e+01
8.973802e+01	-1.694733e+01
9.025634e+01	-1.699649e+01
9.077766e+01	-1.704663e+01
9.130199e+01	-1.709379e+01
9.182935e+01	-1.714347e+01
9.235975e+01	-1.719350e+01
9.289321e+01	-1.724146e+01
9.342976e+01	-1.729098e+01
9.396941e+01	-1.734084e+01
9.451217e+01	-1.738898e+01
9.505807e+01	-1.743794e+01
9.560712e+01	-1.748781e+01
9.615934e+01	-1.753608e+01
9.671476e+01	-1.758518e+01
9.727338e+01	-1.763485e+01
9.783522e+01	-1.768375e+01
9.840032e+01	-1.773268e+01
9.896867e+01	-1.778250e+01
9.954031e+01	-1.783177e+01
1.001153e+02	-1.788009e+01
1.006935e+02	-1.792995e+01
1.012751e+02	-1.797891e+01
1.018601e+02	-1.802897e+01
1.024484e+02	-1.807738e+01
1.030402e+02	-1.812696e+01
1.036353e+02	-1.817711e+01
1.042339e+02	-1.822465e+01
1.048360e+02	-1.827543e+01
1.054415e+02	-1.832386e+01
1.060505e+02	-1.837355e+01
1.066631e+02	-1.842226e+01
1.072791e+02	-1.847214e+01
1.078988e+02	-1.852021e+01
1.085220e+02	-1.857049e+01
1.091488e+02	-1.861933e+01
1.097793e+02	-1.866835e+01
1.104133e+02	-1.871856e+01
1.110511e+02	-1.876837e+01
1.116925e+02	-1.881730e+01
1.123376e+02	-1.886667e+01
1.129865e+02	-1.891635e+01
1.136391e+02	-1.896396e+01
1.142955e+02	-1.901425e+01
1.149556e+02	-1.906541e+01
1.156196e+02	-1.911470e+01
1.162874e+02	-1.916277e+01
1.169591e+02	-1.921190e+01
1.176347e+02	-1.926262e+01
1.183141e+02	-1.931159e+01
1.189975e+02	-1.936117e+01
1.196848e+02	-1.941088e+01
1.203761e+02	-1.945841e+01
1.210714e+02	-1.950832e+01
1.217707e+02	-1.955858e+01
1.224740e+02	-1.960810e+01
1.231814e+02	-1.965781e+01
1.238929e+02	-1.970871e+01
1.246085e+02	-1.975745e+01
1.253283e+02	-1.980584e+01
1.260522e+02	-1.985494e+01
1.267802e+02	-1.990366e+01
1.275125e+02	-1.995418e+01
1.282490e+02	-2.000432e+01
1.289898e+02	-2.005330e+01
1.297348e+02	-2.010362e+01
1.304842e+02	-2.015206e+01
1.312378e+02	-2.020136e+01
1.319959e+02	-2.025267e+01
1.327583e+02	-2.030064e+01
1.335251e+02	-2.035124e+01
1.342963e+02	-2.039851e+01
1.350720e+02	-2.044992e+01
1.358522e+02	-2.050054e+01
1.366368e+02	-2.055017e+01
1.374260e+02	-2.059936e+01
1.382198e+02	-2.064856e+01
1.390182e+02	-2.069855e+01
1.398211e+02	-2.074831e+01
1.406287e+02	-2.079776e+01
1.414410e+02	-2.084651e+01
1.422579e+02	-2.089710e+01
1.430796e+02	-2.094607e+01
1.439060e+02	-2.099766e+01
1.447372e+02	-2.104772e+01
1.455732e+02	-2.109587e+01
1.464141e+02	-2.114448e+01
1.472597e+02	-2.119477e+01
1.481103e+02	-2.124594e+01
1.489658e+02	-2.129442e+01
1.498262e+02	-2.134389e+01
1.506916e+02	-2.139406e+01
1.515620e+02	-2.144500e+01
1.524374e+02	-2.149209e+01
1.533179e+02	-2.154212e+01
1.542034e+02	-2.159160e+01
1.550941e+02	-2.164227e+01
1.559899e+02	-2.169137e+01
1.568909e+02	-2.174219e+01
1.577971e+02	-2.179023e+01
1.587085e+02	-2.184189e+01
1.596252e+02	-2.188967e+01
1.605472e+02	-2.193889e+01
1.614745e+02	-2.198938e+01
1.624072e+02	-2.203970e+01
1.633453e+02	-2.208946e+01
1.642887e+02	-2.213989e+01
1.652377e+02	-2.218910e+01
1.661921e+02	-2.223947e+01
1.671520e+02	-2.228908e+01
1.681175e+02	-2.233847e+01
1.690885e+02	-2.238965e+01
1.700651e+02	-2.243800e+01
1.710474e+02	-2.248842e+01
1.720354e+02	-2.253705e+01
1.730291e+02	-2.258765e+01
1.740285e+02	-2.263706e+01
1.750337e+02	-2.268813e+01
1.760446e+02	-2.273574e+01
1.770615e+02	-2.278579e+01
1.780842e+02	-2.283595e+01
1.791128e+02	-2.288519e+01
1.801473e+02	-2.293578e+01
1.811878e+02	-2.298679e+01
1.822344e+02	-2.303592e+01
1.832870e+02	-2.308529e+01
1.843456e+02	-2.313653e+01
1.854104e+02	-2.318381e+01
1.864813e+02	-2.323553e+01
1.875584e+02	-2.328355e+01
1.886418e+02	-2.333318e+01
1.897313e+02	-2.338335e+01
1.908272e+02	-2.343395e+01
1.919294e+02	-2.348428e+01
1.930380e+02	-2.353474e+01
1.941530e+02	-2.358079e+01
1.952744e+02	-2.363414e+01
1.964023e+02	-2.368359e+01
1.975367e+02	-2.373284e+01
1.986777e+02	-2.378213e+01
1.998252e+02	-2.383099e+01
2.009794e+02	-2.387993e+01
2.021403e+02	-2.393296e+01
2.033078e+02	-2.398188e+01
2.044821e+02	-2.403380e+01
2.056632e+02	-2.408043e+01
2.068511e+02	-2.413234e+01
2.080459e+02	-2.418079e+01
2.092475e+02	-2.422888e+01
2.104561e+02	-2.428445e+01
2.116717e+02	-2.433205e+01
2.128943e+02	-2.438115e+01
2.141240e+02	-2.443286e+01
2.153608e+02	-2.448006e+01
2.166047e+02	-2.453003e+01
2.178558e+02	-2.457853e+01
2.191141e+02	-2.462860e+01
2.203797e+02	-2.468014e+01
2.216526e+02	-2.473058e+01
2.229329e+02	-2.478068e+01
2.242205e+02	-2.483171e+01
2.255156e+02	-2.488224e+01
2.268182e+02	-2.493191e+01
2.281283e+02	-2.498011e+01
2.294459e+02	-2.503034e+01
2.307712e+02	-2.507956e+01
2.321041e+02	-2.512740e+01
2.334447e+02	-2.517760e+01
2.347931e+02	-2.522600e+01
2.361493e+02	-2.527989e+01
2.375133e+02	-2.533066e+01
2.388851e+02	-2.538014e+01
2.402649e+02	-2.542478e+01
2.416527e+02	-2.548081e+01
2.430484e+02	-2.552873e+01
2.444523e+02	-2.557541e+01
2.458642e+02	-2.563164e+01
2.472843e+02	-2.567982e+01
2.487126e+02	-2.572934e+01
2.501492e+02	-2.577804e+01
2.515940e+02	-2.582931e+01
2.530472e+02	-2.587821e+01
2.545088e+02	-2.593054e+01
2.559789e+02	-2.598013e+01
2.574574e+02	-2.602780e+01
2.589444e+02	-2.607798e+01
2.604401e+02	-2.612621e+01
2.619444e+02	-2.617989e+01
2.634574e+02	-2.622717e+01
2.649791e+02	-2.627668e+01
2.665096e+02	-2.632716e+01
2.680489e+02	-2.637826e+01
2.695972e+02	-2.642656e+01
2.711544e+02	-2.648011e+01
2.727205e+02	-2.652953e+01
2.742958e+02	-2.657820e+01
2.758801e+02	-2.662555e+01
2.774736e+02	-2.667805e+01
2.790762e+02	-2.672713e+01
2.806882e+02	-2.677673e+01
2.823094e+02	-2.682647e+01
2.839400e+02	-2.687761e+01
2.855800e+02	-2.692932e+01
2.872295e+02	-2.697884e+01
2.888886e+02	-2.703251e+01
2.905572e+02	-2.707635e+01
2.922354e+02	-2.712556e+01
2.939234e+02	-2.717782e+01
2.956211e+02	-2.722648e+01
2.973286e+02	-2.727687e+01
2.990459e+02	-2.733031e+01
3.007732e+02	-2.737931e+01
3.025104e+02	-2.742867e+01
3.042577e+02	-2.747815e+01
3.060151e+02	-2.752625e+01
3.077826e+02	-2.757413e+01
3.095604e+02	-2.762509e+01
3.113484e+02	-2.767721e+01
3.131467e+02	-2.772617e+01
3.149554e+02	-2.777866e+01
3.167746e+02	-2.782886e+01
3.186043e+02	-2.787802e+01
3.204445e+02	-2.793030e+01
3.222954e+02	-2.797705e+01
3.241570e+02	-2.802768e+01
3.260293e+02	-2.807893e+01
3.279124e+02	-2.812594e+01
3.298064e+02	-2.817525e+01
3.317114e+02	-2.822763e+01
3.336273e+02	-2.827691e+01
3.355544e+02	-2.832779e+01
3.374925e+02	-2.837778e+01
3.394418e+02	-2.842859e+01
3.414024e+02	-2.847902e+01
3.433744e+02	-2.852865e+01
3.453577e+02	-2.858006e+01
3.473525e+02	-2.862669e+01
3.493588e+02	-2.867444e+01
3.513766e+02	-2.872382e+01
3.534062e+02	-2.877818e+01
3.554474e+02	-2.882868e+01
3.575005e+02	-2.888452e+01
3.595654e+02	-2.892949e+01
3.616422e+02	-2.897840e+01
3.637311e+02	-2.903249e+01
3.658320e+02	-2.907915e+01
3.679450e+02	-2.913155e+01
3.700702e+02	-2.917733e+01
3.722077e+02	-2.922723e+01
3.743576e+02	-2.928410e+01
3.765199e+02	-2.933109e+01
3.786946e+02	-2.938300e+01
3.808820e+02	-2.943236e+01
3.830819e+02	-2.948297e+01
3.852946e+02	-2.953087e+01
3.875200e+02	-2.958355e+01
3.897583e+02	-2.963251e+01
3.920096e+02	-2.967686e+01
3.942738e+02	-2.973218e+01
3.965511e+02	-2.978106e+01
3.988416e+02	-2.983099e+01
4.011452e+02	-2.988077e+01
4.034622e+02	-2.993077e+01
4.057926e+02	-2.997665e+01
4.081365e+02	-3.002694e+01
4.104938e+02	-3.008207e+01
4.128648e+02	-3.013244e+01
4.152495e+02	-3.018011e+01
4.176480e+02	-3.022528e+01
4.200603e+02	-3.028322e+01
4.224866e+02	-3.032999e+01
4.249268e+02	-3.038031e+01
4.273812e+02	-3.043244e+01
4.298497e+02	-3.048132e+01
4.323325e+02	-3.052976e+01
4.348297e+02	-3.058316e+01
4.373412e+02	-3.062992e+01
4.398673e+02	-3.068568e+01
4.424079e+02	-3.073364e+01
4.449633e+02	-3.078328e+01
4.475334e+02	-3.083016e+01
4.501183e+02	-3.088192e+01
4.527182e+02	-3.093498e+01
4.553330e+02	-3.098214e+01
4.579630e+02	-3.103777e+01
4.606082e+02	-3.107825e+01
4.632687e+02	-3.113282e+01
4.659445e+02	-3.118330e+01
4.686358e+02	-3.123696e+01
4.713426e+02	-3.128423e+01
4.740650e+02	-3.133464e+01
4.768032e+02	-3.138688e+01
4.795572e+02	-3.143599e+01
4.823271e+02	-3.148370e+01
4.851130e+02	-3.153753e+01
4.879150e+02	-3.158466e+01
4.907332e+02	-3.163187e+01
4.935676e+02	-3.168619e+01
4.964185e+02	-3.174127e+01
4.992858e+02	-3.178408e+01
5.021696e+02	-3.183654e+01
5.050701e+02	-3.188256e+01
5.079874e+02	-3.193411e+01
5.109215e+02	-3.198904e+01
5.138726e+02	-3.203594e+01
5.168407e+02	-3.209321e+01
5.198259e+02	-3.213868e+01
5.228284e+02	-3.218481e+01
5.258482e+02	-3.223528e+01
5.288855e+02	-3.228888e+01
5.319403e+02	-3.234304e+01
5.350128e+02	-3.238362e+01
5.381030e+02	-3.244059e+01
5.412111e+02	-3.248889e+01
5.443371e+02	-3.253768e+01
5.474812e+02	-3.259265e+01
5.506434e+02	-3.264403e+01
5.538239e+02	-3.268959e+01
5.570228e+02	-3.273954e+01
5.602401e+02	-3.279228e+01
5.634760e+02	-3.284612e+01
5.667306e+02	-3.289240e+01
5.700040e+02	-3.293792e+01
5.732964e+02	-3.299214e+01
5.766077e+02	-3.304511e+01
5.799382e+02	-3.309143e+01
5.832879e+02	-3.313592e+01
5.866569e+02	-3.319164e+01
5.900454e+02	-3.323729e+01
5.934535e+02	-3.329674e+01
5.968813e+02	-3.334015e+01
6.003288e+02	-3.339194e+01
6.037963e+02	-3.344540e+01
6.072838e+02	-3.349479e+01
6.107914e+02	-3.354583e+01
6.143194e+02	-3.359579e+01
6.178676e+02	-3.364720e+01
6.214364e+02	-3.369247e+01
6.250258e+02	-3.374697e+01
6.286359e+02	-3.379339e+01
6.322669e+02	-3.384257e+01
6.359189e+02	-3.389772e+01
6.395919e+02	-3.393683e+01
6.432862e+02	-3.399631e+01
6.470017e+02	-3.404062e+01
6.507388e+02	-3.409548e+01
6.544974e+02	-3.415418e+01
6.582778e+02	-3.419500e+01
6.620800e+02	-3.425111e+01
6.659041e+02	-3.429886e+01
6.697504e+02	-3.435072e+01
6.736188e+02	-3.439344e+01
6.775096e+02	-3.444598e+01
6.814229e+02	-3.449191e+01
6.853587e+02	-3.455268e+01
6.893173e+02	-3.460353e+01
6.932988e+02	-3.464644e+01
6.973033e+02	-3.470314e+01
7.013309e+02	-3.475132e+01
