Frequency(Hz)	Magnitude(dB)
1.000000e+01	-1.884218e+00
1.005776e+01	-1.901895e+00
1.011585e+01	-1.919657e+00
1.017428e+01	-1.937406e+00
1.023305e+01	-1.955549e+00
1.029215e+01	-1.973663e+00
1.035160e+01	-1.992322e+00
1.041139e+01	-2.010648e+00
1.047153e+01	-2.029142e+00
1.053201e+01	-2.047868e+00
1.059284e+01	-2.067023e+00
1.065403e+01	-2.085799e+00
1.071556e+01	-2.104917e+00
1.077746e+01	-2.124340e+00
1.083971e+01	-2.143632e+00
1.090232e+01	-2.163230e+00
1.096529e+01	-2.182906e+00
1.102862e+01	-2.202793e+00
1.109232e+01	-2.222646e+00
1.115639e+01	-2.243076e+00
1.122083e+01	-2.263066e+00
1.128564e+01	-2.283602e+00
1.135083e+01	-2.304020e+00
1.141639e+01	-2.324490e+00
1.148233e+01	-2.345634e+00
1.154865e+01	-2.366515e+00
1.161536e+01	-2.387505e+00
1.168245e+01	-2.408880e+00
1.174992e+01	-2.429869e+00
1.181779e+01	-2.451765e+00
1.188605e+01	-2.473486e+00
1.195470e+01	-2.495032e+00
1.202375e+01	-2.517080e+00
1.209320e+01	-2.538940e+00
1.216305e+01	-2.561225e+00
1.223330e+01	-2.583728e+00
1.230396e+01	-2.606064e+00
1.237503e+01	-2.628756e+00
1.244651e+01	-2.651828e+00
1.251840e+01	-2.674737e+00
1.259070e+01	-2.697655e+00
1.266343e+01	-2.720669e+00
1.273657e+01	-2.744460e+00
1.281014e+01	-2.767833e+00
1.288413e+01	-2.791159e+00
1.295855e+01	-2.815050e+00
1.303339e+01	-2.839117e+00
1.310867e+01	-2.863114e+00
1.318439e+01	-2.887212e+00
1.326054e+01	-2.911708e+00
1.333713e+01	-2.936192e+00
1.341417e+01	-2.960733e+00
1.349165e+01	-2.985868e+00
1.356958e+01	-3.010583e+00
1.364795e+01	-3.035637e+00
1.372678e+01	-3.061115e+00
1.380607e+01	-3.086154e+00
1.388581e+01	-3.111700e+00
1.396602e+01	-3.137652e+00
1.404668e+01	-3.163182e+00
1.412782e+01	-3.189112e+00
1.420942e+01	-3.215547e+00
1.429149e+01	-3.241546e+00
1.437404e+01	-3.267954e+00
1.445706e+01	-3.294431e+00
1.454057e+01	-3.321112e+00
1.462455e+01	-3.347829e+00
1.470902e+01	-3.374743e+00
1.479398e+01	-3.402055e+00
1.487943e+01	-3.429413e+00
1.496537e+01	-3.456734e+00
1.505181e+01	-3.484274e+00
1.513875e+01	-3.511795e+00
1.522619e+01	-3.539628e+00
1.531414e+01	-3.567790e+00
1.540259e+01	-3.595656e+00
1.549156e+01	-3.623887e+00
1.558103e+01	-3.652415e+00
1.567103e+01	-3.680620e+00
1.576155e+01	-3.709570e+00
1.585258e+01	-3.738460e+00
1.594415e+01	-3.767245e+00
1.603624e+01	-3.796493e+00
1.612886e+01	-3.825514e+00
1.622202e+01	-3.854936e+00
1.631572e+01	-3.884421e+00
1.640996e+01	-3.913990e+00
1.650474e+01	-3.943897e+00
1.660008e+01	-3.973645e+00
1.669596e+01	-4.003812e+00
1.679239e+01	-4.034113e+00
1.688938e+01	-4.064406e+00
1.698694e+01	-4.094876e+00
1.708505e+01	-4.125702e+00
1.718373e+01	-4.156311e+00
1.728299e+01	-4.187374e+00
1.738281e+01	-4.218035e+00
1.748322e+01	-4.249288e+00
1.758420e+01	-4.280408e+00
1.768576e+01	-4.311981e+00
1.778792e+01	-4.343523e+00
1.789066e+01	-4.375400e+00
1.799399e+01	-4.406940e+00
1.809793e+01	-4.439126e+00
1.820246e+01	-4.471035e+00
1.830760e+01	-4.503533e+00
1.841334e+01	-4.535855e+00
1.851969e+01	-4.568245e+00
1.862666e+01	-4.600765e+00
1.873425e+01	-4.633449e+00
1.884246e+01	-4.666577e+00
1.895129e+01	-4.699328e+00
1.906075e+01	-4.732613e+00
1.917085e+01	-4.765773e+00
1.928158e+01	-4.799213e+00
1.939295e+01	-4.832668e+00
1.950496e+01	-4.866409e+00
1.961762e+01	-4.900324e+00
1.973093e+01	-4.934010e+00
1.984490e+01	-4.968348e+00
1.995952e+01	-5.002203e+00
2.007480e+01	-5.036470e+00
2.019076e+01	-5.070781e+00
2.030738e+01	-5.105523e+00
2.042467e+01	-5.140085e+00
2.054264e+01	-5.174856e+00
2.066130e+01	-5.209808e+00
2.078064e+01	-5.244637e+00
2.090066e+01	-5.280021e+00
2.102139e+01	-5.315354e+00
2.114280e+01	-5.350638e+00
2.126492e+01	-5.386020e+00
2.138775e+01	-5.421767e+00
2.151128e+01	-5.457190e+00
2.163553e+01	-5.493325e+00
2.176050e+01	-5.529271e+00
2.188619e+01	-5.565511e+00
2.201260e+01	-5.601155e+00
2.213974e+01	-5.637742e+00
2.226762e+01	-5.674165e+00
2.239624e+01	-5.710825e+00
2.252560e+01	-5.747403e+00
2.265571e+01	-5.784292e+00
2.278656e+01	-5.820865e+00
2.291818e+01	-5.858002e+00
2.305055e+01	-5.895012e+00
2.318369e+01	-5.932556e+00
2.331760e+01	-5.969845e+00
2.345228e+01	-6.007053e+00
2.358774e+01	-6.044633e+00
2.372398e+01	-6.082102e+00
2.386101e+01	-6.120319e+00
2.399883e+01	-6.157400e+00
2.413745e+01	-6.195796e+00
2.427686e+01	-6.234202e+00
2.441709e+01	-6.271926e+00
2.455812e+01	-6.310283e+00
2.469997e+01	-6.348459e+00
2.484263e+01	-6.387126e+00
2.498612e+01	-6.425818e+00
2.513044e+01	-6.464075e+00
2.527559e+01	-6.502812e+00
2.542158e+01	-6.542303e+00
2.556842e+01	-6.580838e+00
2.571610e+01	-6.619780e+00
2.586463e+01	-6.659065e+00
2.601403e+01	-6.698734e+00
2.616428e+01	-6.738070e+00
2.631541e+01	-6.777563e+00
2.646740e+01	-6.817013e+00
2.662028e+01	-6.856671e+00
2.677404e+01	-6.896306e+00
2.692868e+01	-6.936023e+00
2.708422e+01	-6.976062e+00
2.724066e+01	-7.016029e+00
2.739800e+01	-7.055970e+00
2.755625e+01	-7.096174e+00
2.771541e+01	-7.136335e+00
2.787550e+01	-7.177467e+00
2.803650e+01	-7.217659e+00
2.819844e+01	-7.257985e+00
2.836131e+01	-7.298995e+00
2.852513e+01	-7.339662e+00
2.868989e+01	-7.380523e+00
2.885560e+01	-7.421853e+00
2.902227e+01	-7.462942e+00
2.918990e+01	-7.503706e+00
2.935850e+01	-7.544788e+00
2.952807e+01	-7.586289e+00
2.969863e+01	-7.628154e+00
2.987016e+01	-7.669150e+00
3.004269e+01	-7.709996e+00
3.021622e+01	-7.751508e+00
3.039075e+01	-7.793641e+00
3.056628e+01	-7.835492e+00
3.074283e+01	-7.877050e+00
3.092040e+01	-7.919397e+00
3.109900e+01	-7.961478e+00
3.127862e+01	-8.003019e+00
3.145929e+01	-8.045727e+00
3.164099e+01	-8.087502e+00
3.182375e+01	-8.130065e+00
3.200756e+01	-8.172174e+00
3.219244e+01	-8.214576e+00
3.237838e+01	-8.257117e+00
3.256540e+01	-8.299865e+00
3.275349e+01	-8.342635e+00
3.294268e+01	-8.385409e+00
3.313295e+01	-8.427908e+00
3.332433e+01	-8.471109e+00
3.351681e+01	-8.513356e+00
3.371040e+01	-8.556690e+00
3.390511e+01	-8.599604e+00
3.410094e+01	-8.642785e+00
3.429791e+01	-8.686588e+00
3.449601e+01	-8.729921e+00
3.469526e+01	-8.773263e+00
3.489566e+01	-8.816313e+00
3.509721e+01	-8.859884e+00
3.529993e+01	-8.903643e+00
3.550382e+01	-8.946681e+00
3.570889e+01	-8.990661e+00
3.591515e+01	-9.034389e+00
3.612259e+01	-9.078245e+00
3.633123e+01	-9.121906e+00
3.654108e+01	-9.165916e+00
3.675214e+01	-9.210153e+00
3.696442e+01	-9.254345e+00
3.717792e+01	-9.298157e+00
3.739266e+01	-9.342244e+00
3.760864e+01	-9.386919e+00
3.782587e+01	-9.430771e+00
3.804435e+01	-9.475062e+00
3.826409e+01	-9.520217e+00
3.848510e+01	-9.564071e+00
3.870739e+01	-9.608233e+00
3.893096e+01	-9.653498e+00
3.915583e+01	-9.698263e+00
3.938199e+01	-9.742772e+00
3.960946e+01	-9.787078e+00
3.983824e+01	-9.832040e+00
4.006834e+01	-9.876817e+00
4.029978e+01	-9.922166e+00
4.053255e+01	-9.966824e+00
4.076666e+01	-1.001208e+01
4.100213e+01	-1.005715e+01
4.123896e+01	-1.010215e+01
4.147715e+01	-1.014781e+01
4.171672e+01	-1.019254e+01
4.195767e+01	-1.023810e+01
4.220002e+01	-1.028296e+01
4.244377e+01	-1.032865e+01
4.268892e+01	-1.037363e+01
4.293549e+01	-1.041918e+01
4.318348e+01	-1.046473e+01
4.343291e+01	-1.051014e+01
4.368377e+01	-1.055623e+01
4.393609e+01	-1.060146e+01
4.418986e+01	-1.064694e+01
4.444510e+01	-1.069314e+01
4.470182e+01	-1.073823e+01
4.496001e+01	-1.078500e+01
4.521970e+01	-1.083084e+01
4.548089e+01	-1.087646e+01
4.574358e+01	-1.092243e+01
4.600779e+01	-1.096821e+01
4.627353e+01	-1.101420e+01
4.654081e+01	-1.106052e+01
4.680963e+01	-1.110638e+01
4.708000e+01	-1.115245e+01
4.735193e+01	-1.119873e+01
4.762543e+01	-1.124535e+01
4.790051e+01	-1.129120e+01
4.817719e+01	-1.133775e+01
4.845545e+01	-1.138377e+01
4.873533e+01	-1.143077e+01
4.901682e+01	-1.147781e+01
4.929994e+01	-1.152345e+01
4.958470e+01	-1.156971e+01
4.987110e+01	-1.161617e+01
5.015915e+01	-1.166378e+01
5.044887e+01	-1.170974e+01
5.074026e+01	-1.175674e+01
5.103333e+01	-1.180350e+01
5.132810e+01	-1.185007e+01
5.162457e+01	-1.189662e+01
5.192275e+01	-1.194356e+01
5.222265e+01	-1.199011e+01
5.252429e+01	-1.203693e+01
5.282767e+01	-1.208418e+01
5.313280e+01	-1.213164e+01
5.343969e+01	-1.217794e+01
5.374836e+01	-1.222517e+01
5.405880e+01	-1.227245e+01
5.437105e+01	-1.231948e+01
5.468509e+01	-1.236648e+01
5.500095e+01	-1.241350e+01
5.531863e+01	-1.246094e+01
5.563815e+01	-1.250828e+01
5.595951e+01	-1.255508e+01
5.628273e+01	-1.260192e+01
5.660782e+01	-1.264995e+01
5.693479e+01	-1.269726e+01
5.726364e+01	-1.274404e+01
5.759439e+01	-1.279194e+01
5.792705e+01	-1.283941e+01
5.826164e+01	-1.288662e+01
5.859815e+01	-1.293416e+01
5.893662e+01	-1.298143e+01
5.927703e+01	-1.302933e+01
5.961941e+01	-1.307560e+01
5.996377e+01	-1.312533e+01
6.031012e+01	-1.317101e+01
6.065847e+01	-1.321929e+01
6.100883e+01	-1.326743e+01
6.136121e+01	-1.331479e+01
6.171563e+01	-1.336204e+01
6.207210e+01	-1.340937e+01
6.243063e+01	-1.345853e+01
6.279122e+01	-1.350604e+01
6.315390e+01	-1.355336e+01
6.351868e+01	-1.360138e+01
6.388556e+01	-1.364954e+01
6.425456e+01	-1.369659e+01
6.462569e+01	-1.374476e+01
6.499897e+01	-1.379347e+01
6.537440e+01	-1.384158e+01
6.575200e+01	-1.388868e+01
6.613178e+01	-1.393636e+01
6.651375e+01	-1.398556e+01
6.689793e+01	-1.403214e+01
6.728433e+01	-1.408139e+01
6.767297e+01	-1.412942e+01
6.806384e+01	-1.417764e+01
6.845698e+01	-1.422436e+01
6.885238e+01	-1.427370e+01
6.925007e+01	-1.432172e+01
6.965005e+01	-1.436947e+01
7.005235e+01	-1.441866e+01
7.045697e+01	-1.446656e+01
7.086393e+01	-1.451437e+01
7.127323e+01	-1.456259e+01
7.168490e+01	-1.461063e+01
7.209895e+01	-1.465961e+01
7.251539e+01	-1.470742e+01
7.293424e+01	-1.475645e+01
7.335551e+01	-1.480456e+01
7.377920e+01	-1.485252e+01
7.420535e+01	-1.490148e+01
7.463396e+01	-1.494967e+01
7.506504e+01	-1.499778e+01
7.549861e+01	-1.504672e+01
7.593469e+01	-1.509534e+01
7.637328e+01	-1.514457e+01
7.681441e+01	-1.519199e+01
7.725809e+01	-1.524080e+01
7.770433e+01	-1.528874e+01
7.815315e+01	-1.533725e+01
7.860456e+01	-1.538596e+01
7.905857e+01	-1.543409e+01
7.951521e+01	-1.548312e+01
7.997449e+01	-1.553248e+01
8.043642e+01	-1.558073e+01
8.090102e+01	-1.563011e+01
8.136830e+01	-1.567957e+01
8.183828e+01	-1.572742e+01
8.231097e+01	-1.577513e+01
8.278640e+01	-1.582413e+01
8.326457e+01	-1.587248e+01
8.374550e+01	-1.592115e+01
8.422921e+01	-1.597076e+01
8.471572e+01	-1.601905e+01
8.520503e+01	-1.606786e+01
8.569717e+01	-1.611749e+01
8.619215e+01	-1.616590e+01
8.669000e+01	-1.621402e+01
8.719071e+01	-1.626287e+01
8.769432e+01	-1.631188e+01
8.820084e+01	-1.636227e+01
8.871029e+01	-1.640999e+01
8.922267e+01	-1.645947e+01
8.973802e+01	-1.650699e+01
9.025634e+01	-1.655528e+01
9.077766e+01	-1.660436e+01
9.130199e+01	-1.665434e+01
9.182935e+01	-1.670340e+01
9.235975e+01	-1.675215e+01
9.289321e+01	-1.680129e+01
9.342976e+01	-1.685035e+01
9.396941e+01	-1.689886e+01
9.451217e+01	-1.694710e+01
9.505807e+01	-1.699691e+01
9.560712e+01	-1.704645e+01
9.615934e+01	-1.709496e+01
9.671476e+01	-1.714476e+01
9.727338e+01	-1.719328e+01
9.783522e+01	-1.724250e+01
9.840032e+01	-1.729170e+01
9.896867e+01	-1.734133e+01
9.954031e+01	-1.739019e+01
1.001153e+02	-1.743950e+01
1.006935e+02	-1.748965e+01
1.012751e+02	-1.753759e+01
1.018601e+02	-1.758538e+01
1.024484e+02	-1.763668e+01
1.030402e+02	-1.768510e+01
1.036353e+02	-1.773470e+01
1.042339e+02	-1.778296e+01
1.048360e+02	-1.783338e+01
1.054415e+02	-1.788168e+01
1.060505e+02	-1.793089e+01
1.066631e+02	-1.798035e+01
1.072791e+02	-1.802990e+01
1.078988e+02	-1.807806e+01
1.085220e+02	-1.812829e+01
1.091488e+02	-1.817685e+01
1.097793e+02	-1.822720e+01
1.104133e+02	-1.827610e+01
1.110511e+02	-1.832554e+01
1.116925e+02	-1.837494e+01
1.123376e+02	-1.842506e+01
1.129865e+02	-1.847332e+01
1.136391e+02	-1.852204e+01
1.142955e+02	-1.857232e+01
1.149556e+02	-1.862137e+01
1.156196e+02	-1.866962e+01
1.162874e+02	-1.871943e+01
1.169591e+02	-1.876917e+01
1.176347e+02	-1.881744e+01
1.183141e+02	-1.886816e+01
1.189975e+02	-1.891581e+01
1.196848e+02	-1.896817e+01
1.203761e+02	-1.901638e+01
1.210714e+02	-1.906522e+01
1.217707e+02	-1.911427e+01
1.224740e+02	-1.916547e+01
1.231814e+02	-1.921347e+01
1.238929e+02	-1.926434e+01
1.246085e+02	-1.931235e+01
1.253283e+02	-1.936224e+01
1.260522e+02	-1.941130e+01
1.267802e+02	-1.945978e+01
1.275125e+02	-1.951260e+01
1.282490e+02	-1.955864e+01
1.289898e+02	-1.960909e+01
1.297348e+02	-1.965897e+01
1.304842e+02	-1.970804e+01
1.312378e+02	-1.975785e+01
1.319959e+02	-1.980811e+01
1.327583e+02	-1.985695e+01
1.335251e+02	-1.990685e+01
1.342963e+02	-1.995738e+01
1.350720e+02	-2.000680e+01
1.358522e+02	-2.005545e+01
1.366368e+02	-2.010434e+01
1.374260e+02	-2.015433e+01
1.382198e+02	-2.020339e+01
1.390182e+02	-2.025352e+01
1.398211e+02	-2.030165e+01
1.406287e+02	-2.035429e+01
1.414410e+02	-2.040146e+01
1.422579e+02	-2.045162e+01
1.430796e+02	-2.050067e+01
1.439060e+02	-2.055146e+01
1.447372e+02	-2.060024e+01
1.455732e+02	-2.065062e+01
1.464141e+02	-2.069912e+01
1.472597e+02	-2.074921e+01
1.481103e+02	-2.079671e+01
1.489658e+02	-2.084881e+01
1.498262e+02	-2.089661e+01
1.506916e+02	-2.094858e+01
1.515620e+02	-2.099848e+01
1.524374e+02	-2.104761e+01
1.533179e+02	-2.109608e+01
1.542034e+02	-2.114789e+01
1.550941e+02	-2.119589e+01
1.559899e+02	-2.124540e+01
1.568909e+02	-2.129425e+01
1.577971e+02	-2.134504e+01
1.587085e+02	-2.139633e+01
1.596252e+02	-2.144529e+01
1.605472e+02	-2.149495e+01
1.614745e+02	-2.154226e+01
1.624072e+02	-2.159384e+01
1.633453e+02	-2.164459e+01
1.642887e+02	-2.169159e+01
1.652377e+02	-2.174128e+01
1.661921e+02	-2.179266e+01
1.671520e+02	-2.184112e+01
1.681175e+02	-2.189039e+01
1.690885e+02	-2.194347e+01
1.700651e+02	-2.199187e+01
1.710474e+02	-2.204137e+01
1.720354e+02	-2.209046e+01
1.730291e+02	-2.214009e+01
1.740285e+02	-2.218896e+01
1.750337e+02	-2.224069e+01
1.760446e+02	-2.229029e+01
1.770615e+02	-2.233821e+01
1.780842e+02	-2.239050e+01
1.791128e+02	-2.243857e+01
1.801473e+02	-2.248934e+01
1.811878e+02	-2.253774e+01
1.822344e+02	-2.258991e+01
1.832870e+02	-2.263662e+01
1.843456e+02	-2.268968e+01
1.854104e+02	-2.273777e+01
1.864813e+02	-2.278749e+01
1.875584e+02	-2.283702e+01
1.886418e+02	-2.288972e+01
1.897313e+02	-2.293778e+01
1.908272e+02	-2.298635e+01
1.919294e+02	-2.303589e+01
1.930380e+02	-2.308755e+01
1.941530e+02	-2.313466e+01
1.952744e+02	-2.318676e+01
1.964023e+02	-2.323507e+01
1.975367e+02	-2.328338e+01
1.986777e+02	-2.333610e+01
1.998252e+02	-2.338663e+01
2.009794e+02	-2.343755e+01
2.021403e+02	-2.348505e+01
2.033078e+02	-2.353365e+01
2.044821e+02	-2.358378e+01
2.056632e+02	-2.363524e+01
2.068511e+02	-2.368577e+01
2.080459e+02	-2.373350e+01
2.092475e+02	-2.378381e+01
2.104561e+02	-2.383376e+01
2.116717e+02	-2.388366e+01
2.128943e+02	-2.393733e+01
2.141240e+02	-2.398288e+01
2.153608e+02	-2.403393e+01
2.166047e+02	-2.408517e+01
2.178558e+02	-2.413487e+01
2.191141e+02	-2.418679e+01
2.203797e+02	-2.423174e+01
2.216526e+02	-2.428408e+01
2.229329e+02	-2.433078e+01
2.242205e+02	-2.438102e+01
2.255156e+02	-2.443168e+01
2.268182e+02	-2.448209e+01
2.281283e+02	-2.452997e+01
2.294459e+02	-2.458010e+01
2.307712e+02	-2.463298e+01
2.321041e+02	-2.468328e+01
2.334447e+02	-2.473145e+01
2.347931e+02	-2.478031e+01
2.361493e+02	-2.483213e+01
2.375133e+02	-2.488114e+01
2.388851e+02	-2.493010e+01
2.402649e+02	-2.498136e+01
2.416527e+02	-2.503147e+01
2.430484e+02	-2.507692e+01
2.444523e+02	-2.512761e+01
2.458642e+02	-2.518031e+01
2.472843e+02	-2.523099e+01
2.487126e+02	-2.527844e+01
2.501492e+02	-2.532926e+01
2.515940e+02	-2.537718e+01
2.530472e+02	-2.543067e+01
2.545088e+02	-2.547901e+01
2.559789e+02	-2.553484e+01
2.574574e+02	-2.558171e+01
2.589444e+02	-2.563103e+01
2.604401e+02	-2.568097e+01
2.619444e+02	-2.572969e+01
2.634574e+02	-2.577980e+01
2.649791e+02	-2.582921e+01
2.665096e+02	-2.588242e+01
2.680489e+02	-2.592568e+01
2.695972e+02	-2.597950e+01
2.711544e+02	-2.602911e+01
2.727205e+02	-2.607899e+01
2.742958e+02	-2.612933e+01
2.758801e+02	-2.617545e+01
2.774736e+02	-2.622893e+01
2.790762e+02	-2.627998e+01
2.806882e+02	-2.632982e+01
2.823094e+02	-2.637573e+01
2.839400e+02	-2.642655e+01
2.855800e+02	-2.647971e+01
2.872295e+02	-2.653084e+01
2.888886e+02	-2.657980e+01
2.905572e+02	-2.662936e+01
2.922354e+02	-2.667839e+01
2.939234e+02	-2.672960e+01
2.956211e+02	-2.677926e+01
2.973286e+02	-2.682709e+01
2.990459e+02	-2.687752e+01
3.007732e+02	-2.692978e+01
3.025104e+02	-2.697863e+01
3.042577e+02	-2.703289e+01
3.060151e+02	-2.707542e+01
3.077826e+02	-2.712977e+01
3.095604e+02	-2.717925e+01
3.113484e+02	-2.722784e+01
3.131467e+02	-2.728024e+01
3.149554e+02	-2.732556e+01
3.167746e+02	-2.737810e+01
3.186043e+02	-2.742746e+01
3.204445e+02	-2.748002e+01
3.222954e+02	-2.752851e+01
3.241570e+02	-2.757742e+01
3.260293e+02	-2.762700e+01
3.279124e+02	-2.767892e+01
3.298064e+02	-2.773016e+01
3.317114e+02	-2.777832e+01
3.336273e+02	-2.782455e+01
3.355544e+02	-2.787820e+01
3.374925e+02	-2.793133e+01
3.394418e+02	-2.798315e+01
3.414024e+02	-2.802992e+01
3.433744e+02	-2.807965e+01
3.453577e+02	-2.812824e+01
3.473525e+02	-2.818416e+01
3.493588e+02	-2.823066e+01
3.513766e+02	-2.827982e+01
3.534062e+02	-2.832488e+01
3.554474e+02	-2.837766e+01
3.575005e+02	-2.843046e+01
3.595654e+02	-2.847715e+01
3.616422e+02	-2.852669e+01
3.637311e+02	-2.858066e+01
3.658320e+02	-2.863213e+01
3.679450e+02	-2.867743e+01
3.700702e+02	-2.872885e+01
3.722077e+02	-2.878192e+01
3.743576e+02	-2.883136e+01
3.765199e+02	-2.888022e+01
3.786946e+02	-2.893113e+01
3.808820e+02	-2.898198e+01
3.830819e+02	-2.903347e+01
3.852946e+02	-2.908292e+01
3.875200e+02	-2.913083e+01
3.897583e+02	-2.918100e+01
3.920096e+02	-2.922954e+01
3.942738e+02	-2.928226e+01
3.965511e+02	-2.933056e+01
3.988416e+02	-2.938148e+01
4.011452e+02	-2.943150e+01
4.034622e+02	-2.947535e+01
4.057926e+02	-2.953230e+01
4.081365e+02	-2.958103e+01
4.104938e+02	-2.962746e+01
4.128648e+02	-2.968058e+01
4.152495e+02	-2.973207e+01
4.176480e+02	-2.978100e+01
4.200603e+02	-2.982692e+01
4.224866e+02	-2.988157e+01
4.249268e+02	-2.993055e+01
4.273812e+02	-2.998229e+01
4.298497e+02	-3.002710e+01
4.323325e+02	-3.008208e+01
4.348297e+02	-3.012834e+01
4.373412e+02	-3.017766e+01
4.398673e+02	-3.023196e+01
4.424079e+02	-3.028065e+01
4.449633e+02	-3.033498e+01
4.475334e+02	-3.038237e+01
4.501183e+02	-3.042927e+01
4.527182e+02	-3.048299e+01
4.553330e+02	-3.053551e+01
4.579630e+02	-3.058024e+01
4.606082e+02	-3.063439e+01
4.632687e+02	-3.068323e+01
4.659445e+02	-3.073815e+01
4.686358e+02	-3.078649e+01
4.713426e+02	-3.083231e+01
4.740650e+02	-3.088126e+01
4.768032e+02	-3.093673e+01
4.795572e+02	-3.097899e+01
4.823271e+02	-3.103800e+01
4.851130e+02	-3.108937e+01
4.879150e+02	-3.113577e+01
4.907332e+02	-3.118939e+01
4.935676e+02	-3.123223e+01
4.964185e+02	-3.128650e+01
4.992858e+02	-3.134515e+01
5.021696e+02	-3.138297e+01
5.050701e+02	-3.143612e+01
5.079874e+02	-3.148242e+01
5.109215e+02	-3.153275e+01
5.138726e+02	-3.159095e+01
5.168407e+02	-3.163856e+01
5.198259e+02	-3.169046e+01
5.228284e+02	-3.173651e+01
5.258482e+02	-3.178962e+01
5.288855e+02	-3.184037e+01
5.319403e+02	-3.188741e+01
5.350128e+02	-3.193457e+01
5.381030e+02	-3.199202e+01
5.412111e+02	-3.203917e+01
5.443371e+02	-3.209727e+01
5.474812e+02	-3.213625e+01
5.506434e+02	-3.219398e+01
5.538239e+02	-3.224268e+01
5.570228e+02	-3.228682e+01
5.602401e+02	-3.233918e+01
5.634760e+02	-3.238851e+01
5.667306e+02	-3.243892e+01
5.700040e+02	-3.248541e+01
5.732964e+02	-3.254311e+01
5.766077e+02	-3.259384e+01
5.799382e+02	-3.263942e+01
5.832879e+02	-3.269936e+01
5.866569e+02	-3.275075e+01
5.900454e+02	-3.279943e+01
5.934535e+02	-3.284823e+01
5.968813e+02	-3.289180e+01
6.003288e+02	-3.293700e+01
6.037963e+02	-3.299739e+01
6.072838e+02	-3.305078e+01
6.107914e+02	-3.308935e+01
6.143194e+02	-3.314439e+01
6.178676e+02	-3.319486e+01
6.214364e+02	-3.324186e+01
6.250258e+02	-3.329605e+01
6.286359e+02	-3.335105e+01
6.322669e+02	-3.339623e+01
6.359189e+02	-3.344060e+01
6.395919e+02	-3.349469e+01
6.432862e+02	-3.355660e+01
6.470017e+02	-3.359941e+01
6.507388e+02	-3.364740e+01
6.544974e+02	-3.369086e+01
6.582778e+02	-3.375092e+01
6.620800e+02	-3.380342e+01
6.659041e+02	-3.385198e+01
6.697504e+02	-3.389201e+01
6.736188e+02	-3.394562e+01
6.775096e+02	-3.400212e+01
6.814229e+02	-3.404940e+01
6.853587e+02	-3.410036e+01
6.893173e+02	-3.414838e+01
6.932988e+02	-3.420283e+01
6.973033e+02	-3.425074e+01
7.013309e+02	-3.430361e+01
