Frequency(Hz)	Magnitude(dB)
1.000000e+01	-1.929710e+00
1.005776e+01	-1.947982e+00
1.011585e+01	-1.966025e+00
1.017428e+01	-1.984366e+00
1.023305e+01	-2.002823e+00
1.029215e+01	-2.021091e+00
1.035160e+01	-2.039844e+00
1.041139e+01	-2.058825e+00
1.047153e+01	-2.077747e+00
1.053201e+01	-2.096604e+00
1.059284e+01	-2.115976e+00
1.065403e+01	-2.135248e+00
1.071556e+01	-2.154921e+00
1.077746e+01	-2.174633e+00
1.083971e+01	-2.194249e+00
1.090232e+01	-2.214145e+00
1.096529e+01	-2.234430e+00
1.102862e+01	-2.254333e+00
1.109232e+01	-2.274717e+00
1.115639e+01	-2.295266e+00
1.122083e+01	-2.315785e+00
1.128564e+01	-2.336523e+00
1.135083e+01	-2.357381e+00
1.141639e+01	-2.378740e+00
1.148233e+01	-2.399851e+00
1.154865e+01	-2.421071e+00
1.161536e+01	-2.442414e+00
1.168245e+01	-2.463963e+00
1.174992e+01	-2.485577e+00
1.181779e+01	-2.507718e+00
1.188605e+01	-2.529615e+00
1.195470e+01	-2.551856e+00
1.202375e+01	-2.574080e+00
1.209320e+01	-2.596455e+00
1.216305e+01	-2.618997e+00
1.223330e+01	-2.642056e+00
1.230396e+01	-2.664620e+00
1.237503e+01	-2.687572e+00
1.244651e+01	-2.710920e+00
1.251840e+01	-2.734044e+00
1.259070e+01	-2.757485e+00
1.266343e+01	-2.780872e+00
1.273657e+01	-2.804720e+00
1.281014e+01	-2.828843e+00
1.288413e+01	-2.852713e+00
1.295855e+01	-2.876995e+00
1.303339e+01	-2.901254e+00
1.310867e+01	-2.925491e+00
1.318439e+01	-2.950536e+00
1.326054e+01	-2.974865e+00
1.333713e+01	-2.999942e+00
1.341417e+01	-3.024835e+00
1.349165e+01	-3.050267e+00
1.356958e+01	-3.075566e+00
1.364795e+01	-3.100918e+00
1.372678e+01	-3.126533e+00
1.380607e+01	-3.152157e+00
1.388581e+01	-3.178144e+00
1.396602e+01	-3.204127e+00
1.404668e+01	-3.230365e+00
1.412782e+01	-3.256638e+00
1.420942e+01	-3.283087e+00
1.429149e+01	-3.309550e+00
1.437404e+01	-3.336468e+00
1.445706e+01	-3.363309e+00
1.454057e+01	-3.390364e+00
1.462455e+01	-3.417612e+00
1.470902e+01	-3.444906e+00
1.479398e+01	-3.472487e+00
1.487943e+01	-3.500151e+00
1.496537e+01	-3.527584e+00
1.505181e+01	-3.555450e+00
1.513875e+01	-3.583761e+00
1.522619e+01	-3.611807e+00
1.531414e+01	-3.640038e+00
1.540259e+01	-3.668568e+00
1.549156e+01	-3.697234e+00
1.558103e+01	-3.725804e+00
1.567103e+01	-3.754877e+00
1.576155e+01	-3.783706e+00
1.585258e+01	-3.813128e+00
1.594415e+01	-3.842288e+00
1.603624e+01	-3.871679e+00
1.612886e+01	-3.901411e+00
1.622202e+01	-3.931276e+00
1.631572e+01	-3.960804e+00
1.640996e+01	-3.990841e+00
1.650474e+01	-4.021146e+00
1.660008e+01	-4.051386e+00
1.669596e+01	-4.081679e+00
1.679239e+01	-4.112260e+00
1.688938e+01	-4.143004e+00
1.698694e+01	-4.173503e+00
1.708505e+01	-4.204871e+00
1.718373e+01	-4.236206e+00
1.728299e+01	-4.266949e+00
1.738281e+01	-4.298086e+00
1.748322e+01	-4.329921e+00
1.758420e+01	-4.361675e+00
1.768576e+01	-4.393336e+00
1.778792e+01	-4.425235e+00
1.789066e+01	-4.457317e+00
1.799399e+01	-4.489682e+00
1.809793e+01	-4.521840e+00
1.820246e+01	-4.554014e+00
1.830760e+01	-4.586813e+00
1.841334e+01	-4.619305e+00
1.851969e+01	-4.652316e+00
1.862666e+01	-4.684953e+00
1.873425e+01	-4.718332e+00
1.884246e+01	-4.751770e+00
1.895129e+01	-4.784857e+00
1.906075e+01	-4.818371e+00
1.917085e+01	-4.851821e+00
1.928158e+01	-4.885546e+00
1.939295e+01	-4.919193e+00
1.950496e+01	-4.953594e+00
1.961762e+01	-4.987549e+00
1.973093e+01	-5.021748e+00
1.984490e+01	-5.056195e+00
1.995952e+01	-5.090520e+00
2.007480e+01	-5.124987e+00
2.019076e+01	-5.159869e+00
2.030738e+01	-5.194505e+00
2.042467e+01	-5.229553e+00
2.054264e+01	-5.264813e+00
2.066130e+01	-5.300117e+00
2.078064e+01	-5.335047e+00
2.090066e+01	-5.370674e+00
2.102139e+01	-5.406350e+00
2.114280e+01	-5.441963e+00
2.126492e+01	-5.477533e+00
2.138775e+01	-5.513828e+00
2.151128e+01	-5.549757e+00
2.163553e+01	-5.585702e+00
2.176050e+01	-5.621927e+00
2.188619e+01	-5.658365e+00
2.201260e+01	-5.694952e+00
2.213974e+01	-5.731429e+00
2.226762e+01	-5.768388e+00
2.239624e+01	-5.805108e+00
2.252560e+01	-5.842150e+00
2.265571e+01	-5.879020e+00
2.278656e+01	-5.916212e+00
2.291818e+01	-5.953355e+00
2.305055e+01	-5.991056e+00
2.318369e+01	-6.028240e+00
2.331760e+01	-6.066019e+00
2.345228e+01	-6.104118e+00
2.358774e+01	-6.141214e+00
2.372398e+01	-6.179620e+00
2.386101e+01	-6.217350e+00
2.399883e+01	-6.255516e+00
2.413745e+01	-6.293717e+00
2.427686e+01	-6.332428e+00
2.441709e+01	-6.370534e+00
2.455812e+01	-6.409148e+00
2.469997e+01	-6.447721e+00
2.484263e+01	-6.486085e+00
2.498612e+01	-6.525233e+00
2.513044e+01	-6.564183e+00
2.527559e+01	-6.603216e+00
2.542158e+01	-6.642391e+00
2.556842e+01	-6.681898e+00
2.571610e+01	-6.721255e+00
2.586463e+01	-6.760397e+00
2.601403e+01	-6.799805e+00
2.616428e+01	-6.839557e+00
2.631541e+01	-6.879203e+00
2.646740e+01	-6.918797e+00
2.662028e+01	-6.958802e+00
2.677404e+01	-6.998954e+00
2.692868e+01	-7.039359e+00
2.708422e+01	-7.078974e+00
2.724066e+01	-7.119579e+00
2.739800e+01	-7.160023e+00
2.755625e+01	-7.199938e+00
2.771541e+01	-7.240841e+00
2.787550e+01	-7.281530e+00
2.803650e+01	-7.322209e+00
2.819844e+01	-7.362664e+00
2.836131e+01	-7.403627e+00
2.852513e+01	-7.444897e+00
2.868989e+01	-7.485844e+00
2.885560e+01	-7.527179e+00
2.902227e+01	-7.568329e+00
2.918990e+01	-7.609707e+00
2.935850e+01	-7.651083e+00
2.952807e+01	-7.692773e+00
2.969863e+01	-7.734149e+00
2.987016e+01	-7.775776e+00
3.004269e+01	-7.817400e+00
3.021622e+01	-7.859308e+00
3.039075e+01	-7.900995e+00
3.056628e+01	-7.942835e+00
3.074283e+01	-7.985274e+00
3.092040e+01	-8.026804e+00
3.109900e+01	-8.069131e+00
3.127862e+01	-8.111839e+00
3.145929e+01	-8.153932e+00
3.164099e+01	-8.196215e+00
3.182375e+01	-8.238750e+00
3.200756e+01	-8.281640e+00
3.219244e+01	-8.323686e+00
3.237838e+01	-8.367020e+00
3.256540e+01	-8.409745e+00
3.275349e+01	-8.452335e+00
3.294268e+01	-8.495579e+00
3.313295e+01	-8.538240e+00
3.332433e+01	-8.580857e+00
3.351681e+01	-8.624261e+00
3.371040e+01	-8.668077e+00
3.390511e+01	-8.710706e+00
3.410094e+01	-8.754030e+00
3.429791e+01	-8.797285e+00
3.449601e+01	-8.841347e+00
3.469526e+01	-8.884708e+00
3.489566e+01	-8.928149e+00
3.509721e+01	-8.972064e+00
3.529993e+01	-9.015595e+00
3.550382e+01	-9.059244e+00
3.570889e+01	-9.103218e+00
3.591515e+01	-9.147409e+00
3.612259e+01	-9.191295e+00
3.633123e+01	-9.235156e+00
3.654108e+01	-9.279523e+00
3.675214e+01	-9.323032e+00
3.696442e+01	-9.367608e+00
3.717792e+01	-9.411749e+00
3.739266e+01	-9.456055e+00
3.760864e+01	-9.500081e+00
3.782587e+01	-9.544889e+00
3.804435e+01	-9.589419e+00
3.826409e+01	-9.634383e+00
3.848510e+01	-9.678507e+00
3.870739e+01	-9.723804e+00
3.893096e+01	-9.768252e+00
3.915583e+01	-9.812837e+00
3.938199e+01	-9.857675e+00
3.960946e+01	-9.902434e+00
3.983824e+01	-9.947456e+00
4.006834e+01	-9.992529e+00
4.029978e+01	-1.003723e+01
4.053255e+01	-1.008243e+01
4.076666e+01	-1.012762e+01
4.100213e+01	-1.017296e+01
4.123896e+01	-1.021798e+01
4.147715e+01	-1.026336e+01
4.171672e+01	-1.030907e+01
4.195767e+01	-1.035438e+01
4.220002e+01	-1.039906e+01
4.244377e+01	-1.044511e+01
4.268892e+01	-1.049077e+01
4.293549e+01	-1.053592e+01
4.318348e+01	-1.058190e+01
4.343291e+01	-1.062751e+01
4.368377e+01	-1.067351e+01
4.393609e+01	-1.071880e+01
4.418986e+01	-1.076531e+01
4.444510e+01	-1.081033e+01
4.470182e+01	-1.085661e+01
4.496001e+01	-1.090218e+01
4.521970e+01	-1.094787e+01
4.548089e+01	-1.099502e+01
4.574358e+01	-1.104009e+01
4.600779e+01	-1.108630e+01
4.627353e+01	-1.113269e+01
4.654081e+01	-1.117910e+01
4.680963e+01	-1.122485e+01
4.708000e+01	-1.127152e+01
4.735193e+01	-1.131829e+01
4.762543e+01	-1.136407e+01
4.790051e+01	-1.141060e+01
4.817719e+01	-1.145647e+01
4.845545e+01	-1.150382e+01
4.873533e+01	-1.154994e+01
4.901682e+01	-1.159684e+01
4.929994e+01	-1.164318e+01
4.958470e+01	-1.168986e+01
4.987110e+01	-1.173656e+01
5.015915e+01	-1.178298e+01
5.044887e+01	-1.183016e+01
5.074026e+01	-1.187657e+01
5.103333e+01	-1.192384e+01
5.132810e+01	-1.196981e+01
5.162457e+01	-1.201787e+01
5.192275e+01	-1.206429e+01
5.222265e+01	-1.211130e+01
5.252429e+01	-1.215813e+01
5.282767e+01	-1.220481e+01
5.313280e+01	-1.225262e+01
5.343969e+01	-1.229912e+01
5.374836e+01	-1.234598e+01
5.405880e+01	-1.239305e+01
5.437105e+01	-1.244031e+01
5.468509e+01	-1.248783e+01
5.500095e+01	-1.253484e+01
5.531863e+01	-1.258156e+01
5.563815e+01	-1.262949e+01
5.595951e+01	-1.267636e+01
5.628273e+01	-1.272449e+01
5.660782e+01	-1.277132e+01
5.693479e+01	-1.281933e+01
5.726364e+01	-1.286607e+01
5.759439e+01	-1.291368e+01
5.792705e+01	-1.296181e+01
5.826164e+01	-1.300844e+01
5.859815e+01	-1.305603e+01
5.893662e+01	-1.310395e+01
5.927703e+01	-1.315212e+01
5.961941e+01	-1.319952e+01
5.996377e+01	-1.324676e+01
6.031012e+01	-1.329466e+01
6.065847e+01	-1.334237e+01
6.100883e+01	-1.339013e+01
6.136121e+01	-1.343705e+01
6.171563e+01	-1.348487e+01
6.207210e+01	-1.353350e+01
6.243063e+01	-1.358084e+01
6.279122e+01	-1.362865e+01
6.315390e+01	-1.367669e+01
6.351868e+01	-1.372419e+01
6.388556e+01	-1.377241e+01
6.425456e+01	-1.382043e+01
6.462569e+01	-1.386908e+01
6.499897e+01	-1.391615e+01
6.537440e+01	-1.396414e+01
6.575200e+01	-1.401276e+01
6.613178e+01	-1.406032e+01
6.651375e+01	-1.410803e+01
6.689793e+01	-1.415666e+01
6.728433e+01	-1.420481e+01
6.767297e+01	-1.425203e+01
6.806384e+01	-1.430222e+01
6.845698e+01	-1.434907e+01
6.885238e+01	-1.439784e+01
6.925007e+01	-1.444391e+01
6.965005e+01	-1.449408e+01
7.005235e+01	-1.454219e+01
7.045697e+01	-1.459024e+01
7.086393e+01	-1.463816e+01
7.127323e+01	-1.468602e+01
7.168490e+01	-1.473546e+01
7.209895e+01	-1.478373e+01
7.251539e+01	-1.483241e+01
7.293424e+01	-1.488017e+01
7.335551e+01	-1.492904e+01
7.377920e+01	-1.497742e+01
7.420535e+01	-1.502481e+01
7.463396e+01	-1.507390e+01
7.506504e+01	-1.512297e+01
7.549861e+01	-1.517109e+01
7.593469e+01	-1.521936e+01
7.637328e+01	-1.526895e+01
7.681441e+01	-1.531633e+01
7.725809e+01	-1.536641e+01
7.770433e+01	-1.541480e+01
7.815315e+01	-1.546269e+01
7.860456e+01	-1.551063e+01
7.905857e+01	-1.555887e+01
7.951521e+01	-1.560823e+01
7.997449e+01	-1.565594e+01
8.043642e+01	-1.570512e+01
8.090102e+01	-1.575445e+01
8.136830e+01	-1.580221e+01
8.183828e+01	-1.585194e+01
8.231097e+01	-1.589991e+01
8.278640e+01	-1.594900e+01
8.326457e+01	-1.599861e+01
8.374550e+01	-1.604648e+01
8.422921e+01	-1.609539e+01
8.471572e+01	-1.614503e+01
8.520503e+01	-1.619246e+01
8.569717e+01	-1.624107e+01
8.619215e+01	-1.629056e+01
8.669000e+01	-1.634015e+01
8.719071e+01	-1.638909e+01
8.769432e+01	-1.643808e+01
8.820084e+01	-1.648755e+01
8.871029e+01	-1.653528e+01
8.922267e+01	-1.658472e+01
8.973802e+01	-1.663371e+01
9.025634e+01	-1.668068e+01
9.077766e+01	-1.673174e+01
9.130199e+01	-1.677909e+01
9.182935e+01	-1.682932e+01
9.235975e+01	-1.687731e+01
9.289321e+01	-1.692624e+01
9.342976e+01	-1.697454e+01
9.396941e+01	-1.702578e+01
9.451217e+01	-1.707478e+01
9.505807e+01	-1.712312e+01
9.560712e+01	-1.717258e+01
9.615934e+01	-1.722174e+01
9.671476e+01	-1.726986e+01
9.727338e+01	-1.731935e+01
9.783522e+01	-1.736860e+01
9.840032e+01	-1.741786e+01
9.896867e+01	-1.746636e+01
9.954031e+01	-1.751607e+01
1.001153e+02	-1.756548e+01
1.006935e+02	-1.761456e+01
1.012751e+02	-1.766270e+01
1.018601e+02	-1.771358e+01
1.024484e+02	-1.776264e+01
1.030402e+02	-1.781238e+01
1.036353e+02	-1.785902e+01
1.042339e+02	-1.790965e+01
1.048360e+02	-1.795794e+01
1.054415e+02	-1.800709e+01
1.060505e+02	-1.805593e+01
1.066631e+02	-1.810762e+01
1.072791e+02	-1.815529e+01
1.078988e+02	-1.820521e+01
1.085220e+02	-1.825405e+01
1.091488e+02	-1.830391e+01
1.097793e+02	-1.835304e+01
1.104133e+02	-1.840206e+01
1.110511e+02	-1.845105e+01
1.116925e+02	-1.850094e+01
1.123376e+02	-1.855035e+01
1.129865e+02	-1.859890e+01
1.136391e+02	-1.864937e+01
1.142955e+02	-1.869780e+01
1.149556e+02	-1.874676e+01
1.156196e+02	-1.879595e+01
1.162874e+02	-1.884648e+01
1.169591e+02	-1.889643e+01
1.176347e+02	-1.894390e+01
1.183141e+02	-1.899421e+01
1.189975e+02	-1.904295e+01
1.196848e+02	-1.909320e+01
1.203761e+02	-1.914275e+01
1.210714e+02	-1.919128e+01
1.217707e+02	-1.924290e+01
1.224740e+02	-1.929162e+01
1.231814e+02	-1.934100e+01
1.238929e+02	-1.939029e+01
1.246085e+02	-1.944150e+01
1.253283e+02	-1.948815e+01
1.260522e+02	-1.953774e+01
1.267802e+02	-1.958769e+01
1.275125e+02	-1.963757e+01
1.282490e+02	-1.968675e+01
1.289898e+02	-1.973645e+01
1.297348e+02	-1.978694e+01
1.304842e+02	-1.983682e+01
1.312378e+02	-1.988558e+01
1.319959e+02	-1.993465e+01
1.327583e+02	-1.998353e+01
1.335251e+02	-2.003378e+01
1.342963e+02	-2.008275e+01
1.350720e+02	-2.013211e+01
1.358522e+02	-2.018377e+01
1.366368e+02	-2.023085e+01
1.374260e+02	-2.028079e+01
1.382198e+02	-2.033127e+01
1.390182e+02	-2.038082e+01
1.398211e+02	-2.043073e+01
1.406287e+02	-2.047919e+01
1.414410e+02	-2.052872e+01
1.422579e+02	-2.057978e+01
1.430796e+02	-2.062842e+01
1.439060e+02	-2.067707e+01
1.447372e+02	-2.072835e+01
1.455732e+02	-2.077732e+01
1.464141e+02	-2.082817e+01
1.472597e+02	-2.087642e+01
1.481103e+02	-2.092625e+01
1.489658e+02	-2.097718e+01
1.498262e+02	-2.102287e+01
1.506916e+02	-2.107341e+01
1.515620e+02	-2.112441e+01
1.524374e+02	-2.117499e+01
1.533179e+02	-2.122445e+01
1.542034e+02	-2.127461e+01
1.550941e+02	-2.132315e+01
1.559899e+02	-2.137282e+01
1.568909e+02	-2.142308e+01
1.577971e+02	-2.147182e+01
1.587085e+02	-2.152153e+01
1.596252e+02	-2.157356e+01
1.605472e+02	-2.162046e+01
1.614745e+02	-2.167174e+01
1.624072e+02	-2.172075e+01
1.633453e+02	-2.177118e+01
1.642887e+02	-2.182142e+01
1.652377e+02	-2.186934e+01
1.661921e+02	-2.192071e+01
1.671520e+02	-2.196989e+01
1.681175e+02	-2.201864e+01
1.690885e+02	-2.206749e+01
1.700651e+02	-2.211959e+01
1.710474e+02	-2.216980e+01
1.720354e+02	-2.221811e+01
1.730291e+02	-2.226867e+01
1.740285e+02	-2.231860e+01
1.750337e+02	-2.236718e+01
1.760446e+02	-2.241661e+01
1.770615e+02	-2.246645e+01
1.780842e+02	-2.251625e+01
1.791128e+02	-2.256696e+01
1.801473e+02	-2.261775e+01
1.811878e+02	-2.266801e+01
1.822344e+02	-2.271876e+01
1.832870e+02	-2.276513e+01
1.843456e+02	-2.281724e+01
1.854104e+02	-2.286494e+01
1.864813e+02	-2.291382e+01
1.875584e+02	-2.296643e+01
1.886418e+02	-2.301625e+01
1.897313e+02	-2.306608e+01
1.908272e+02	-2.311628e+01
1.919294e+02	-2.316287e+01
1.930380e+02	-2.321258e+01
1.941530e+02	-2.326350e+01
1.952744e+02	-2.331432e+01
1.964023e+02	-2.336392e+01
1.975367e+02	-2.341357e+01
1.986777e+02	-2.346252e+01
1.998252e+02	-2.351368e+01
2.009794e+02	-2.356139e+01
2.021403e+02	-2.361193e+01
2.033078e+02	-2.366169e+01
2.044821e+02	-2.371256e+01
2.056632e+02	-2.376098e+01
2.068511e+02	-2.381336e+01
2.080459e+02	-2.386113e+01
2.092475e+02	-2.391144e+01
2.104561e+02	-2.396086e+01
2.116717e+02	-2.400955e+01
2.128943e+02	-2.406111e+01
2.141240e+02	-2.411042e+01
2.153608e+02	-2.416048e+01
2.166047e+02	-2.421136e+01
2.178558e+02	-2.426205e+01
2.191141e+02	-2.431104e+01
2.203797e+02	-2.435991e+01
2.216526e+02	-2.441097e+01
2.229329e+02	-2.445961e+01
2.242205e+02	-2.451044e+01
2.255156e+02	-2.455951e+01
2.268182e+02	-2.460753e+01
2.281283e+02	-2.466069e+01
2.294459e+02	-2.471169e+01
2.307712e+02	-2.476151e+01
2.321041e+02	-2.480779e+01
2.334447e+02	-2.485861e+01
2.347931e+02	-2.491117e+01
2.361493e+02	-2.495952e+01
2.375133e+02	-2.500837e+01
2.388851e+02	-2.506010e+01
2.402649e+02	-2.510749e+01
2.416527e+02	-2.516084e+01
2.430484e+02	-2.520784e+01
2.444523e+02	-2.525705e+01
2.458642e+02	-2.530871e+01
2.472843e+02	-2.536046e+01
2.487126e+02	-2.540908e+01
2.501492e+02	-2.545892e+01
2.515940e+02	-2.550626e+01
2.530472e+02	-2.555778e+01
2.545088e+02	-2.560991e+01
2.559789e+02	-2.565872e+01
2.574574e+02	-2.570928e+01
2.589444e+02	-2.575561e+01
2.604401e+02	-2.580779e+01
2.619444e+02	-2.585885e+01
2.634574e+02	-2.590906e+01
2.649791e+02	-2.595798e+01
2.665096e+02	-2.600792e+01
2.680489e+02	-2.605616e+01
2.695972e+02	-2.610799e+01
2.711544e+02	-2.615863e+01
2.727205e+02	-2.620748e+01
2.742958e+02	-2.625824e+01
2.758801e+02	-2.630476e+01
2.774736e+02	-2.635705e+01
2.790762e+02	-2.640908e+01
2.806882e+02	-2.645525e+01
2.823094e+02	-2.650895e+01
2.839400e+02	-2.655911e+01
2.855800e+02	-2.660675e+01
2.872295e+02	-2.665232e+01
2.888886e+02	-2.670723e+01
2.905572e+02	-2.675469e+01
2.922354e+02	-2.680933e+01
2.939234e+02	-2.685614e+01
2.956211e+02	-2.690668e+01
2.973286e+02	-2.695724e+01
2.990459e+02	-2.700563e+01
3.007732e+02	-2.705925e+01
3.025104e+02	-2.710502e+01
3.042577e+02	-2.715658e+01
3.060151e+02	-2.720537e+01
3.077826e+02	-2.725561e+01
3.095604e+02	-2.731043e+01
3.113484e+02	-2.735757e+01
3.131467e+02	-2.740901e+01
3.149554e+02	-2.745607e+01
3.167746e+02	-2.750968e+01
3.186043e+02	-2.756128e+01
3.204445e+02	-2.760678e+01
3.222954e+02	-2.765528e+01
3.241570e+02	-2.770679e+01
3.260293e+02	-2.775641e+01
3.279124e+02	-2.780831e+01
3.298064e+02	-2.785704e+01
3.317114e+02	-2.790910e+01
3.336273e+02	-2.795476e+01
3.355544e+02	-2.800944e+01
3.374925e+02	-2.805533e+01
3.394418e+02	-2.810713e+01
3.414024e+02	-2.816014e+01
3.433744e+02	-2.820864e+01
3.453577e+02	-2.825851e+01
3.473525e+02	-2.830614e+01
3.493588e+02	-2.835904e+01
3.513766e+02	-2.841162e+01
3.534062e+02	-2.845500e+01
3.554474e+02	-2.850903e+01
3.575005e+02	-2.855693e+01
3.595654e+02	-2.860796e+01
3.616422e+02	-2.865790e+01
3.637311e+02	-2.870556e+01
3.658320e+02	-2.875935e+01
3.679450e+02	-2.880952e+01
3.700702e+02	-2.885750e+01
3.722077e+02	-2.890564e+01
3.743576e+02	-2.895849e+01
3.765199e+02	-2.900576e+01
3.786946e+02	-2.905804e+01
3.808820e+02	-2.910909e+01
3.830819e+02	-2.915864e+01
3.852946e+02	-2.920589e+01
3.875200e+02	-2.925482e+01
3.897583e+02	-2.930754e+01
3.920096e+02	-2.936211e+01
3.942738e+02	-2.940789e+01
3.965511e+02	-2.946122e+01
3.988416e+02	-2.951154e+01
4.011452e+02	-2.956003e+01
4.034622e+02	-2.960983e+01
4.057926e+02	-2.965349e+01
4.081365e+02	-2.970905e+01
4.104938e+02	-2.975878e+01
4.128648e+02	-2.980707e+01
4.152495e+02	-2.986309e+01
4.176480e+02	-2.990757e+01
4.200603e+02	-2.996005e+01
4.224866e+02	-3.001080e+01
4.249268e+02	-3.006580e+01
4.273812e+02	-3.010879e+01
4.298497e+02	-3.016030e+01
4.323325e+02	-3.021091e+01
4.348297e+02	-3.026088e+01
4.373412e+02	-3.030981e+01
4.398673e+02	-3.035947e+01
4.424079e+02	-3.041337e+01
4.449633e+02	-3.046290e+01
4.475334e+02	-3.051511e+01
4.501183e+02	-3.056016e+01
4.527182e+02	-3.061656e+01
4.553330e+02	-3.066114e+01
4.579630e+02	-3.071485e+01
4.606082e+02	-3.076433e+01
4.632687e+02	-3.081648e+01
4.659445e+02	-3.086432e+01
4.686358e+02	-3.091061e+01
4.713426e+02	-3.096359e+01
4.740650e+02	-3.100869e+01
4.768032e+02	-3.106363e+01
4.795572e+02	-3.110947e+01
4.823271e+02	-3.116687e+01
4.851130e+02	-3.121617e+01
4.879150e+02	-3.125890e+01
4.907332e+02	-3.131942e+01
4.935676e+02	-3.135886e+01
4.964185e+02	-3.141587e+01
4.992858e+02	-3.146842e+01
5.021696e+02	-3.151885e+01
5.050701e+02	-3.156865e+01
5.079874e+02	-3.161623e+01
5.109215e+02	-3.166412e+01
5.138726e+02	-3.171650e+01
5.168407e+02	-3.176560e+01
5.198259e+02	-3.181987e+01
5.228284e+02	-3.185933e+01
5.258482e+02	-3.191698e+01
5.288855e+02	-3.196783e+01
5.319403e+02	-3.201438e+01
5.350128e+02	-3.207541e+01
5.381030e+02	-3.211527e+01
5.412111e+02	-3.217223e+01
5.443371e+02	-3.222177e+01
5.474812e+02	-3.227015e+01
5.506434e+02	-3.232012e+01
5.538239e+02	-3.236348e+01
5.570228e+02	-3.242013e+01
5.602401e+02	-3.246540e+01
5.634760e+02	-3.251776e+01
5.667306e+02	-3.257405e+01
5.700040e+02	-3.262426e+01
5.732964e+02	-3.266719e+01
5.766077e+02	-3.272258e+01
5.799382e+02	-3.276807e+01
5.832879e+02	-3.282199e+01
5.866569e+02	-3.286804e+01
5.900454e+02	-3.292226e+01
5.934535e+02	-3.297499e+01
5.968813e+02	-3.302719e+01
6.003288e+02	-3.307329e+01
6.037963e+02	-3.312107e+01
6.072838e+02	-3.317568e+01
6.107914e+02	-3.322874e+01
6.143194e+02	-3.327692e+01
6.178676e+02	-3.331907e+01
6.214364e+02	-3.337221e+01
6.250258e+02	-3.342033e+01
6.286359e+02	-3.347751e+01
6.322669e+02	-3.351765e+01
6.359189e+02	-3.358101e+01
6.395919e+02	-3.362064e+01
6.432862e+02	-3.368028e+01
6.470017e+02	-3.372641e+01
6.507388e+02	-3.377328e+01
6.544974e+02	-3.382456e+01
6.582778e+02	-3.387484e+01
6.620800e+02	-3.392410e+01
6.659041e+02	-3.397397e+01
6.697504e+02	-3.402608e+01
6.736188e+02	-3.407444e+01
6.775096e+02	-3.412035e+01
6.814229e+02	-3.417657e+01
6.853587e+02	-3.422363e+01
6.893173e+02	-3.427425e+01
6.932988e+02	-3.432655e+01
6.973033e+02	-3.438946e+01
7.013309e+02	-3.443237e+01
