Frequency(Hz)	Magnitude(dB)
1.000000e+01	-1.785955e-05
1.005776e+01	-1.806646e-05
1.011585e+01	-1.827576e-05
1.017428e+01	-1.848749e-05
1.023305e+01	-1.870168e-05
1.029215e+01	-1.891834e-05
1.035160e+01	-1.913751e-05
1.041139e+01	-1.935923e-05
1.047153e+01	-1.958351e-05
1.053201e+01	-1.981039e-05
1.059284e+01	-2.003990e-05
1.065403e+01	-2.027206e-05
1.071556e+01	-2.050692e-05
1.077746e+01	-2.074450e-05
1.083971e+01	-2.098483e-05
1.090232e+01	-2.122794e-05
1.096529e+01	-2.147387e-05
1.102862e+01	-2.172265e-05
1.109232e+01	-2.197432e-05
1.115639e+01	-2.222889e-05
1.122083e+01	-2.248642e-05
1.128564e+01	-2.274693e-05
1.135083e+01	-2.301046e-05
1.141639e+01	-2.327704e-05
1.148233e+01	-2.354671e-05
1.154865e+01	-2.381951e-05
1.161536e+01	-2.409546e-05
1.168245e+01	-2.437462e-05
1.174992e+01	-2.465700e-05
1.181779e+01	-2.494266e-05
1.188605e+01	-2.523163e-05
1.195470e+01	-2.552394e-05
1.202375e+01	-2.581964e-05
1.209320e+01	-2.611877e-05
1.216305e+01	-2.642136e-05
1.223330e+01	-2.672746e-05
1.230396e+01	-2.703710e-05
1.237503e+01	-2.735033e-05
1.244651e+01	-2.766719e-05
1.251840e+01	-2.798773e-05
1.259070e+01	-2.831197e-05
1.266343e+01	-2.863997e-05
1.273657e+01	-2.897177e-05
1.281014e+01	-2.930742e-05
1.288413e+01	-2.964695e-05
1.295855e+01	-2.999042e-05
1.303339e+01	-3.033786e-05
1.310867e+01	-3.068933e-05
1.318439e+01	-3.104488e-05
1.326054e+01	-3.140454e-05
1.333713e+01	-3.176837e-05
1.341417e+01	-3.213641e-05
1.349165e+01	-3.250872e-05
1.356958e+01	-3.288534e-05
1.364795e+01	-3.326633e-05
1.372678e+01	-3.365173e-05
1.380607e+01	-3.404159e-05
1.388581e+01	-3.443597e-05
1.396602e+01	-3.483492e-05
1.404668e+01	-3.523849e-05
1.412782e+01	-3.564673e-05
1.420942e+01	-3.605971e-05
1.429149e+01	-3.647747e-05
1.437404e+01	-3.690007e-05
1.445706e+01	-3.732757e-05
1.454057e+01	-3.776001e-05
1.462455e+01	-3.819747e-05
1.470902e+01	-3.864000e-05
1.479398e+01	-3.908765e-05
1.487943e+01	-3.954049e-05
1.496537e+01	-3.999858e-05
1.505181e+01	-4.046197e-05
1.513875e+01	-4.093073e-05
1.522619e+01	-4.140492e-05
1.531414e+01	-4.188461e-05
1.540259e+01	-4.236985e-05
1.549156e+01	-4.286071e-05
1.558103e+01	-4.335726e-05
1.567103e+01	-4.385957e-05
1.576155e+01	-4.436769e-05
1.585258e+01	-4.488170e-05
1.594415e+01	-4.540167e-05
1.603624e+01	-4.592765e-05
1.612886e+01	-4.645974e-05
1.622202e+01	-4.699798e-05
1.631572e+01	-4.754246e-05
1.640996e+01	-4.809325e-05
1.650474e+01	-4.865042e-05
1.660008e+01	-4.921405e-05
1.669596e+01	-4.978420e-05
1.679239e+01	-5.036096e-05
1.688938e+01	-5.094441e-05
1.698694e+01	-5.153461e-05
1.708505e+01	-5.213165e-05
1.718373e+01	-5.273560e-05
1.728299e+01	-5.334656e-05
1.738281e+01	-5.396459e-05
1.748322e+01	-5.458978e-05
1.758420e+01	-5.522221e-05
1.768576e+01	-5.586197e-05
1.778792e+01	-5.650915e-05
1.789066e+01	-5.716382e-05
1.799399e+01	-5.782607e-05
1.809793e+01	-5.849600e-05
1.820246e+01	-5.917368e-05
1.830760e+01	-5.985922e-05
1.841334e+01	-6.055270e-05
1.851969e+01	-6.125422e-05
1.862666e+01	-6.196386e-05
1.873425e+01	-6.268173e-05
1.884246e+01	-6.340791e-05
1.895129e+01	-6.414250e-05
1.906075e+01	-6.488560e-05
1.917085e+01	-6.563731e-05
1.928158e+01	-6.639773e-05
1.939295e+01	-6.716697e-05
1.950496e+01	-6.794511e-05
1.961762e+01	-6.873226e-05
1.973093e+01	-6.952854e-05
1.984490e+01	-7.033404e-05
1.995952e+01	-7.114887e-05
2.007480e+01	-7.197315e-05
2.019076e+01	-7.280697e-05
2.030738e+01	-7.365045e-05
2.042467e+01	-7.450370e-05
2.054264e+01	-7.536684e-05
2.066130e+01	-7.623998e-05
2.078064e+01	-7.712324e-05
2.090066e+01	-7.801672e-05
2.102139e+01	-7.892056e-05
2.114280e+01	-7.983487e-05
2.126492e+01	-8.075977e-05
2.138775e+01	-8.169538e-05
2.151128e+01	-8.264184e-05
2.163553e+01	-8.359926e-05
2.176050e+01	-8.456777e-05
2.188619e+01	-8.554750e-05
2.201260e+01	-8.653858e-05
2.213974e+01	-8.754115e-05
2.226762e+01	-8.855533e-05
2.239624e+01	-8.958125e-05
2.252560e+01	-9.061907e-05
2.265571e+01	-9.166890e-05
2.278656e+01	-9.273090e-05
2.291818e+01	-9.380520e-05
2.305055e+01	-9.489195e-05
2.318369e+01	-9.599129e-05
2.331760e+01	-9.710336e-05
2.345228e+01	-9.822832e-05
2.358774e+01	-9.936631e-05
2.372398e+01	-1.005175e-04
2.386101e+01	-1.016820e-04
2.399883e+01	-1.028600e-04
2.413745e+01	-1.040516e-04
2.427686e+01	-1.052571e-04
2.441709e+01	-1.064765e-04
2.455812e+01	-1.077101e-04
2.469997e+01	-1.089579e-04
2.484263e+01	-1.102202e-04
2.498612e+01	-1.114971e-04
2.513044e+01	-1.127888e-04
2.527559e+01	-1.140955e-04
2.542158e+01	-1.154173e-04
2.556842e+01	-1.167544e-04
2.571610e+01	-1.181070e-04
2.586463e+01	-1.194753e-04
2.601403e+01	-1.208594e-04
2.616428e+01	-1.222596e-04
2.631541e+01	-1.236760e-04
2.646740e+01	-1.251088e-04
2.662028e+01	-1.265582e-04
2.677404e+01	-1.280244e-04
2.692868e+01	-1.295076e-04
2.708422e+01	-1.310079e-04
2.724066e+01	-1.325257e-04
2.739800e+01	-1.340610e-04
2.755625e+01	-1.356141e-04
2.771541e+01	-1.371852e-04
2.787550e+01	-1.387745e-04
2.803650e+01	-1.403822e-04
2.819844e+01	-1.420086e-04
2.836131e+01	-1.436537e-04
2.852513e+01	-1.453180e-04
2.868989e+01	-1.470015e-04
2.885560e+01	-1.487045e-04
2.902227e+01	-1.504273e-04
2.918990e+01	-1.521700e-04
2.935850e+01	-1.539329e-04
2.952807e+01	-1.557162e-04
2.969863e+01	-1.575202e-04
2.987016e+01	-1.593451e-04
3.004269e+01	-1.611911e-04
3.021622e+01	-1.630585e-04
3.039075e+01	-1.649476e-04
3.056628e+01	-1.668585e-04
3.074283e+01	-1.687916e-04
3.092040e+01	-1.707470e-04
3.109900e+01	-1.727251e-04
3.127862e+01	-1.747262e-04
3.145929e+01	-1.767504e-04
3.164099e+01	-1.787980e-04
3.182375e+01	-1.808694e-04
3.200756e+01	-1.829648e-04
3.219244e+01	-1.850844e-04
3.237838e+01	-1.872286e-04
3.256540e+01	-1.893977e-04
3.275349e+01	-1.915919e-04
3.294268e+01	-1.938115e-04
3.313295e+01	-1.960568e-04
3.332433e+01	-1.983281e-04
3.351681e+01	-2.006257e-04
3.371040e+01	-2.029500e-04
3.390511e+01	-2.053012e-04
3.410094e+01	-2.076796e-04
3.429791e+01	-2.100855e-04
3.449601e+01	-2.125194e-04
3.469526e+01	-2.149814e-04
3.489566e+01	-2.174720e-04
3.509721e+01	-2.199914e-04
3.529993e+01	-2.225400e-04
3.550382e+01	-2.251181e-04
3.570889e+01	-2.277261e-04
3.591515e+01	-2.303643e-04
3.612259e+01	-2.330331e-04
3.633123e+01	-2.357327e-04
3.654108e+01	-2.384637e-04
3.675214e+01	-2.412263e-04
3.696442e+01	-2.440209e-04
3.717792e+01	-2.468478e-04
3.739266e+01	-2.497076e-04
3.760864e+01	-2.526004e-04
3.782587e+01	-2.555268e-04
3.804435e+01	-2.584870e-04
3.826409e+01	-2.614816e-04
3.848510e+01	-2.645108e-04
3.870739e+01	-2.675752e-04
3.893096e+01	-2.706750e-04
3.915583e+01	-2.738107e-04
3.938199e+01	-2.769828e-04
3.960946e+01	-2.801916e-04
3.983824e+01	-2.834376e-04
4.006834e+01	-2.867212e-04
4.029978e+01	-2.900429e-04
4.053255e+01	-2.934030e-04
4.076666e+01	-2.968020e-04
4.100213e+01	-3.002404e-04
4.123896e+01	-3.037187e-04
4.147715e+01	-3.072372e-04
4.171672e+01	-3.107965e-04
4.195767e+01	-3.143971e-04
4.220002e+01	-3.180393e-04
4.244377e+01	-3.217237e-04
4.268892e+01	-3.254509e-04
4.293549e+01	-3.292211e-04
4.318348e+01	-3.330351e-04
4.343291e+01	-3.368933e-04
4.368377e+01	-3.407961e-04
4.393609e+01	-3.447442e-04
4.418986e+01	-3.487380e-04
4.444510e+01	-3.527780e-04
4.470182e+01	-3.568649e-04
4.496001e+01	-3.609991e-04
4.521970e+01	-3.651812e-04
4.548089e+01	-3.694118e-04
4.574358e+01	-3.736913e-04
4.600779e+01	-3.780204e-04
4.627353e+01	-3.823997e-04
4.654081e+01	-3.868297e-04
4.680963e+01	-3.913111e-04
4.708000e+01	-3.958443e-04
4.735193e+01	-4.004301e-04
4.762543e+01	-4.050689e-04
4.790051e+01	-4.097615e-04
4.817719e+01	-4.145085e-04
4.845545e+01	-4.193105e-04
4.873533e+01	-4.241681e-04
4.901682e+01	-4.290819e-04
4.929994e+01	-4.340527e-04
4.958470e+01	-4.390811e-04
4.987110e+01	-4.441677e-04
5.015915e+01	-4.493132e-04
5.044887e+01	-4.545184e-04
5.074026e+01	-4.597838e-04
5.103333e+01	-4.651103e-04
5.132810e+01	-4.704984e-04
5.162457e+01	-4.759490e-04
5.192275e+01	-4.814627e-04
5.222265e+01	-4.870402e-04
5.252429e+01	-4.926824e-04
5.282767e+01	-4.983899e-04
5.313280e+01	-5.041636e-04
5.343969e+01	-5.100041e-04
5.374836e+01	-5.159123e-04
5.405880e+01	-5.218889e-04
5.437105e+01	-5.279348e-04
5.468509e+01	-5.340507e-04
5.500095e+01	-5.402374e-04
5.531863e+01	-5.464958e-04
5.563815e+01	-5.528267e-04
5.595951e+01	-5.592310e-04
5.628273e+01	-5.657094e-04
5.660782e+01	-5.722629e-04
5.693479e+01	-5.788922e-04
5.726364e+01	-5.855984e-04
5.759439e+01	-5.923823e-04
5.792705e+01	-5.992447e-04
5.826164e+01	-6.061866e-04
5.859815e+01	-6.132090e-04
5.893662e+01	-6.203127e-04
5.927703e+01	-6.274986e-04
5.961941e+01	-6.347679e-04
5.996377e+01	-6.421213e-04
6.031012e+01	-6.495599e-04
6.065847e+01	-6.570846e-04
6.100883e+01	-6.646966e-04
6.136121e+01	-6.723967e-04
6.171563e+01	-6.801859e-04
6.207210e+01	-6.880655e-04
6.243063e+01	-6.960363e-04
6.279122e+01	-7.040994e-04
6.315390e+01	-7.122559e-04
6.351868e+01	-7.205069e-04
6.388556e+01	-7.288534e-04
6.425456e+01	-7.372967e-04
6.462569e+01	-7.458378e-04
6.499897e+01	-7.544777e-04
6.537440e+01	-7.632178e-04
6.575200e+01	-7.720591e-04
6.613178e+01	-7.810028e-04
6.651375e+01	-7.900501e-04
6.689793e+01	-7.992022e-04
6.728433e+01	-8.084603e-04
6.767297e+01	-8.178257e-04
6.806384e+01	-8.272995e-04
6.845698e+01	-8.368831e-04
6.885238e+01	-8.465777e-04
6.925007e+01	-8.563845e-04
6.965005e+01	-8.663050e-04
7.005235e+01	-8.763404e-04
7.045697e+01	-8.864920e-04
7.086393e+01	-8.967612e-04
7.127323e+01	-9.071493e-04
7.168490e+01	-9.176578e-04
7.209895e+01	-9.282879e-04
7.251539e+01	-9.390413e-04
7.293424e+01	-9.499191e-04
7.335551e+01	-9.609230e-04
7.377920e+01	-9.720543e-04
7.420535e+01	-9.833145e-04
7.463396e+01	-9.947052e-04
7.506504e+01	-1.006228e-03
7.549861e+01	-1.017884e-03
7.593469e+01	-1.029675e-03
7.637328e+01	-1.041603e-03
7.681441e+01	-1.053668e-03
7.725809e+01	-1.065874e-03
7.770433e+01	-1.078221e-03
7.815315e+01	-1.090711e-03
7.860456e+01	-1.103345e-03
7.905857e+01	-1.116126e-03
7.951521e+01	-1.129055e-03
7.997449e+01	-1.142134e-03
8.043642e+01	-1.155364e-03
8.090102e+01	-1.168747e-03
8.136830e+01	-1.182286e-03
8.183828e+01	-1.195981e-03
8.231097e+01	-1.209835e-03
8.278640e+01	-1.223849e-03
8.326457e+01	-1.238026e-03
8.374550e+01	-1.252367e-03
8.422921e+01	-1.266873e-03
8.471572e+01	-1.281548e-03
8.520503e+01	-1.296393e-03
8.569717e+01	-1.311410e-03
8.619215e+01	-1.326601e-03
8.669000e+01	-1.341967e-03
8.719071e+01	-1.357512e-03
8.769432e+01	-1.373237e-03
8.820084e+01	-1.389143e-03
8.871029e+01	-1.405234e-03
8.922267e+01	-1.421512e-03
8.973802e+01	-1.437978e-03
9.025634e+01	-1.454634e-03
9.077766e+01	-1.471484e-03
9.130199e+01	-1.488528e-03
9.182935e+01	-1.505770e-03
9.235975e+01	-1.523212e-03
9.289321e+01	-1.540856e-03
9.342976e+01	-1.558704e-03
9.396941e+01	-1.576758e-03
9.451217e+01	-1.595022e-03
9.505807e+01	-1.613498e-03
9.560712e+01	-1.632187e-03
9.615934e+01	-1.651093e-03
9.671476e+01	-1.670217e-03
9.727338e+01	-1.689563e-03
9.783522e+01	-1.709134e-03
9.840032e+01	-1.728930e-03
9.896867e+01	-1.748957e-03
9.954031e+01	-1.769215e-03
1.001153e+02	-1.789707e-03
1.006935e+02	-1.810437e-03
1.012751e+02	-1.831407e-03
1.018601e+02	-1.852620e-03
1.024484e+02	-1.874078e-03
1.030402e+02	-1.895785e-03
1.036353e+02	-1.917744e-03
1.042339e+02	-1.939956e-03
1.048360e+02	-1.962426e-03
1.054415e+02	-1.985156e-03
1.060505e+02	-2.008149e-03
1.066631e+02	-2.031409e-03
1.072791e+02	-2.054938e-03
1.078988e+02	-2.078739e-03
1.085220e+02	-2.102816e-03
1.091488e+02	-2.127172e-03
1.097793e+02	-2.151809e-03
1.104133e+02	-2.176732e-03
1.110511e+02	-2.201944e-03
1.116925e+02	-2.227447e-03
1.123376e+02	-2.253246e-03
1.129865e+02	-2.279344e-03
1.136391e+02	-2.305744e-03
1.142955e+02	-2.332449e-03
1.149556e+02	-2.359464e-03
1.156196e+02	-2.386791e-03
1.162874e+02	-2.414435e-03
1.169591e+02	-2.442399e-03
1.176347e+02	-2.470687e-03
1.183141e+02	-2.499302e-03
1.189975e+02	-2.528249e-03
1.196848e+02	-2.557531e-03
1.203761e+02	-2.587152e-03
1.210714e+02	-2.617116e-03
1.217707e+02	-2.647426e-03
1.224740e+02	-2.678088e-03
1.231814e+02	-2.709105e-03
1.238929e+02	-2.740480e-03
1.246085e+02	-2.772219e-03
1.253283e+02	-2.804326e-03
1.260522e+02	-2.836804e-03
1.267802e+02	-2.869658e-03
1.275125e+02	-2.902893e-03
1.282490e+02	-2.936512e-03
1.289898e+02	-2.970521e-03
1.297348e+02	-3.004923e-03
1.304842e+02	-3.039724e-03
1.312378e+02	-3.074928e-03
1.319959e+02	-3.110539e-03
1.327583e+02	-3.146562e-03
1.335251e+02	-3.183002e-03
1.342963e+02	-3.219865e-03
1.350720e+02	-3.257154e-03
1.358522e+02	-3.294874e-03
1.366368e+02	-3.333032e-03
1.374260e+02	-3.371631e-03
1.382198e+02	-3.410676e-03
1.390182e+02	-3.450174e-03
1.398211e+02	-3.490129e-03
1.406287e+02	-3.530547e-03
1.414410e+02	-3.571432e-03
1.422579e+02	-3.612791e-03
1.430796e+02	-3.654629e-03
1.439060e+02	-3.696950e-03
1.447372e+02	-3.739762e-03
1.455732e+02	-3.783069e-03
1.464141e+02	-3.826878e-03
1.472597e+02	-3.871193e-03
1.481103e+02	-3.916022e-03
1.489658e+02	-3.961369e-03
1.498262e+02	-4.007242e-03
1.506916e+02	-4.053645e-03
1.515620e+02	-4.100585e-03
1.524374e+02	-4.148069e-03
1.533179e+02	-4.196102e-03
1.542034e+02	-4.244691e-03
1.550941e+02	-4.293843e-03
1.559899e+02	-4.343563e-03
1.568909e+02	-4.393859e-03
1.577971e+02	-4.444737e-03
1.587085e+02	-4.496203e-03
1.596252e+02	-4.548266e-03
1.605472e+02	-4.600931e-03
1.614745e+02	-4.654205e-03
1.624072e+02	-4.708096e-03
1.633453e+02	-4.762610e-03
1.642887e+02	-4.817756e-03
1.652377e+02	-4.873539e-03
1.661921e+02	-4.929969e-03
1.671520e+02	-4.987051e-03
1.681175e+02	-5.044793e-03
1.690885e+02	-5.103204e-03
1.700651e+02	-5.162291e-03
1.710474e+02	-5.222061e-03
1.720354e+02	-5.282523e-03
1.730291e+02	-5.343685e-03
1.740285e+02	-5.405554e-03
1.750337e+02	-5.468140e-03
1.760446e+02	-5.531449e-03
1.770615e+02	-5.595491e-03
1.780842e+02	-5.660274e-03
1.791128e+02	-5.725806e-03
1.801473e+02	-5.792097e-03
1.811878e+02	-5.859154e-03
1.822344e+02	-5.926988e-03
1.832870e+02	-5.995606e-03
1.843456e+02	-6.065018e-03
1.854104e+02	-6.135233e-03
1.864813e+02	-6.206260e-03
1.875584e+02	-6.278109e-03
1.886418e+02	-6.350789e-03
1.897313e+02	-6.424310e-03
1.908272e+02	-6.498682e-03
1.919294e+02	-6.573914e-03
1.930380e+02	-6.650016e-03
1.941530e+02	-6.726998e-03
1.952744e+02	-6.804871e-03
1.964023e+02	-6.883644e-03
1.975367e+02	-6.963329e-03
1.986777e+02	-7.043935e-03
1.998252e+02	-7.125474e-03
2.009794e+02	-7.207956e-03
2.021403e+02	-7.291392e-03
2.033078e+02	-7.375792e-03
2.044821e+02	-7.461169e-03
2.056632e+02	-7.547533e-03
2.068511e+02	-7.634896e-03
2.080459e+02	-7.723270e-03
2.092475e+02	-7.812665e-03
2.104561e+02	-7.903094e-03
2.116717e+02	-7.994569e-03
2.128943e+02	-8.087102e-03
2.141240e+02	-8.180704e-03
2.153608e+02	-8.275389e-03
2.166047e+02	-8.371169e-03
2.178558e+02	-8.468057e-03
2.191141e+02	-8.566064e-03
2.203797e+02	-8.665205e-03
2.216526e+02	-8.765492e-03
2.229329e+02	-8.866938e-03
2.242205e+02	-8.969558e-03
2.255156e+02	-9.073364e-03
2.268182e+02	-9.178369e-03
2.281283e+02	-9.284589e-03
2.294459e+02	-9.392037e-03
2.307712e+02	-9.500727e-03
2.321041e+02	-9.610673e-03
2.334447e+02	-9.721890e-03
2.347931e+02	-9.834393e-03
2.361493e+02	-9.948196e-03
2.375133e+02	-1.006331e-02
2.388851e+02	-1.017976e-02
2.402649e+02	-1.029756e-02
2.416527e+02	-1.041671e-02
2.430484e+02	-1.053725e-02
2.444523e+02	-1.065917e-02
2.458642e+02	-1.078251e-02
2.472843e+02	-1.090727e-02
2.487126e+02	-1.103347e-02
2.501492e+02	-1.116113e-02
2.515940e+02	-1.129027e-02
2.530472e+02	-1.142090e-02
2.545088e+02	-1.155304e-02
2.559789e+02	-1.168670e-02
2.574574e+02	-1.182191e-02
2.589444e+02	-1.195868e-02
2.604401e+02	-1.209703e-02
2.619444e+02	-1.223698e-02
2.634574e+02	-1.237854e-02
2.649791e+02	-1.252175e-02
2.665096e+02	-1.266660e-02
2.680489e+02	-1.281313e-02
2.695972e+02	-1.296135e-02
2.711544e+02	-1.311128e-02
2.727205e+02	-1.326295e-02
2.742958e+02	-1.341637e-02
2.758801e+02	-1.357155e-02
2.774736e+02	-1.372853e-02
2.790762e+02	-1.388733e-02
2.806882e+02	-1.404795e-02
2.823094e+02	-1.421044e-02
2.839400e+02	-1.437480e-02
2.855800e+02	-1.454105e-02
2.872295e+02	-1.470923e-02
2.888886e+02	-1.487934e-02
2.905572e+02	-1.505143e-02
2.922354e+02	-1.522549e-02
2.939234e+02	-1.540157e-02
2.956211e+02	-1.557968e-02
2.973286e+02	-1.575985e-02
2.990459e+02	-1.594209e-02
3.007732e+02	-1.612644e-02
3.025104e+02	-1.631292e-02
3.042577e+02	-1.650155e-02
3.060151e+02	-1.669235e-02
3.077826e+02	-1.688536e-02
3.095604e+02	-1.708060e-02
3.113484e+02	-1.727809e-02
3.131467e+02	-1.747785e-02
3.149554e+02	-1.767992e-02
3.167746e+02	-1.788433e-02
3.186043e+02	-1.809109e-02
3.204445e+02	-1.830024e-02
3.222954e+02	-1.851180e-02
3.241570e+02	-1.872580e-02
3.260293e+02	-1.894226e-02
3.279124e+02	-1.916123e-02
3.298064e+02	-1.938272e-02
3.317114e+02	-1.960676e-02
3.336273e+02	-1.983339e-02
3.355544e+02	-2.006264e-02
3.374925e+02	-2.029452e-02
3.394418e+02	-2.052908e-02
3.414024e+02	-2.076635e-02
3.433744e+02	-2.100635e-02
3.453577e+02	-2.124911e-02
3.473525e+02	-2.149468e-02
3.493588e+02	-2.174307e-02
3.513766e+02	-2.199433e-02
3.534062e+02	-2.224849e-02
3.554474e+02	-2.250557e-02
3.575005e+02	-2.276562e-02
3.595654e+02	-2.302866e-02
3.616422e+02	-2.329474e-02
3.637311e+02	-2.356388e-02
3.658320e+02	-2.383612e-02
3.679450e+02	-2.411150e-02
3.700702e+02	-2.439005e-02
3.722077e+02	-2.467181e-02
3.743576e+02	-2.495682e-02
3.765199e+02	-2.524511e-02
3.786946e+02	-2.553671e-02
3.808820e+02	-2.583168e-02
3.830819e+02	-2.613005e-02
3.852946e+02	-2.643184e-02
3.875200e+02	-2.673712e-02
3.897583e+02	-2.704591e-02
3.920096e+02	-2.735825e-02
3.942738e+02	-2.767419e-02
3.965511e+02	-2.799377e-02
3.988416e+02	-2.831702e-02
4.011452e+02	-2.864400e-02
4.034622e+02	-2.897474e-02
4.057926e+02	-2.930928e-02
4.081365e+02	-2.964767e-02
4.104938e+02	-2.998996e-02
4.128648e+02	-3.033618e-02
4.152495e+02	-3.068639e-02
4.176480e+02	-3.104063e-02
4.200603e+02	-3.139894e-02
4.224866e+02	-3.176137e-02
4.249268e+02	-3.212797e-02
4.273812e+02	-3.249878e-02
4.298497e+02	-3.287386e-02
4.323325e+02	-3.325325e-02
4.348297e+02	-3.363700e-02
4.373412e+02	-3.402516e-02
4.398673e+02	-3.441779e-02
4.424079e+02	-3.481492e-02
4.449633e+02	-3.521663e-02
4.475334e+02	-3.562294e-02
4.501183e+02	-3.603393e-02
4.527182e+02	-3.644963e-02
4.553330e+02	-3.687011e-02
4.579630e+02	-3.729543e-02
4.606082e+02	-3.772562e-02
4.632687e+02	-3.816076e-02
4.659445e+02	-3.860089e-02
4.686358e+02	-3.904608e-02
4.713426e+02	-3.949637e-02
4.740650e+02	-3.995184e-02
4.768032e+02	-4.041253e-02
4.795572e+02	-4.087852e-02
4.823271e+02	-4.134984e-02
4.851130e+02	-4.182658e-02
4.879150e+02	-4.230879e-02
4.907332e+02	-4.279653e-02
4.935676e+02	-4.328986e-02
4.964185e+02	-4.378885e-02
4.992858e+02	-4.429356e-02
5.021696e+02	-4.480406e-02
5.050701e+02	-4.532042e-02
5.079874e+02	-4.584269e-02
5.109215e+02	-4.637095e-02
5.138726e+02	-4.690526e-02
5.168407e+02	-4.744570e-02
5.198259e+02	-4.799233e-02
5.228284e+02	-4.854522e-02
5.258482e+02	-4.910444e-02
5.288855e+02	-4.967007e-02
5.319403e+02	-5.024218e-02
5.350128e+02	-5.082084e-02
5.381030e+02	-5.140612e-02
5.412111e+02	-5.199810e-02
5.443371e+02	-5.259686e-02
5.474812e+02	-5.320247e-02
5.506434e+02	-5.381501e-02
5.538239e+02	-5.443456e-02
5.570228e+02	-5.506120e-02
5.602401e+02	-5.569500e-02
5.634760e+02	-5.633605e-02
5.667306e+02	-5.698443e-02
5.700040e+02	-5.764023e-02
5.732964e+02	-5.830352e-02
5.766077e+02	-5.897439e-02
5.799382e+02	-5.965293e-02
5.832879e+02	-6.033921e-02
5.866569e+02	-6.103334e-02
5.900454e+02	-6.173540e-02
5.934535e+02	-6.244548e-02
5.968813e+02	-6.316366e-02
6.003288e+02	-6.389004e-02
6.037963e+02	-6.462472e-02
6.072838e+02	-6.536777e-02
6.107914e+02	-6.611931e-02
6.143194e+02	-6.687942e-02
6.178676e+02	-6.764820e-02
6.214364e+02	-6.842574e-02
6.250258e+02	-6.921215e-02
6.286359e+02	-7.000753e-02
6.322669e+02	-7.081197e-02
6.359189e+02	-7.162558e-02
6.395919e+02	-7.244846e-02
6.432862e+02	-7.328072e-02
6.470017e+02	-7.412245e-02
6.507388e+02	-7.497377e-02
6.544974e+02	-7.583478e-02
6.582778e+02	-7.670559e-02
6.620800e+02	-7.758631e-02
6.659041e+02	-7.847705e-02
6.697504e+02	-7.937792e-02
6.736188e+02	-8.028904e-02
6.775096e+02	-8.121052e-02
6.814229e+02	-8.214247e-02
6.853587e+02	-8.308502e-02
6.893173e+02	-8.403827e-02
6.932988e+02	-8.500236e-02
6.973033e+02	-8.597740e-02
7.013309e+02	-8.696351e-02
