Frequency(Hz)	Magnitude(dB)
1.000000e+01	-2.019464e+00
1.005776e+01	-2.038155e+00
1.011585e+01	-2.056877e+00
1.017428e+01	-2.075742e+00
1.023305e+01	-2.094978e+00
1.029215e+01	-2.114103e+00
1.035160e+01	-2.133509e+00
1.041139e+01	-2.153064e+00
1.047153e+01	-2.172731e+00
1.053201e+01	-2.192503e+00
1.059284e+01	-2.212160e+00
1.065403e+01	-2.232332e+00
1.071556e+01	-2.252448e+00
1.077746e+01	-2.272662e+00
1.083971e+01	-2.293427e+00
1.090232e+01	-2.314176e+00
1.096529e+01	-2.334606e+00
1.102862e+01	-2.355464e+00
1.109232e+01	-2.376594e+00
1.115639e+01	-2.397601e+00
1.122083e+01	-2.419007e+00
1.128564e+01	-2.440318e+00
1.135083e+01	-2.462030e+00
1.141639e+01	-2.483786e+00
1.148233e+01	-2.505403e+00
1.154865e+01	-2.527363e+00
1.161536e+01	-2.549841e+00
1.168245e+01	-2.571823e+00
1.174992e+01	-2.594411e+00
1.181779e+01	-2.616835e+00
1.188605e+01	-2.639667e+00
1.195470e+01	-2.662513e+00
1.202375e+01	-2.685326e+00
1.209320e+01	-2.708542e+00
1.216305e+01	-2.731946e+00
1.223330e+01	-2.755542e+00
1.230396e+01	-2.778958e+00
1.237503e+01	-2.802523e+00
1.244651e+01	-2.826372e+00
1.251840e+01	-2.850391e+00
1.259070e+01	-2.875004e+00
1.266343e+01	-2.899081e+00
1.273657e+01	-2.923330e+00
1.281014e+01	-2.948101e+00
1.288413e+01	-2.972726e+00
1.295855e+01	-2.997497e+00
1.303339e+01	-3.022434e+00
1.310867e+01	-3.047642e+00
1.318439e+01	-3.073187e+00
1.326054e+01	-3.098653e+00
1.333713e+01	-3.124279e+00
1.341417e+01	-3.149767e+00
1.349165e+01	-3.175545e+00
1.356958e+01	-3.201693e+00
1.364795e+01	-3.227791e+00
1.372678e+01	-3.254131e+00
1.380607e+01	-3.280743e+00
1.388581e+01	-3.307236e+00
1.396602e+01	-3.333876e+00
1.404668e+01	-3.360864e+00
1.412782e+01	-3.387980e+00
1.420942e+01	-3.414973e+00
1.429149e+01	-3.442325e+00
1.437404e+01	-3.469654e+00
1.445706e+01	-3.497476e+00
1.454057e+01	-3.525198e+00
1.462455e+01	-3.552731e+00
1.470902e+01	-3.580975e+00
1.479398e+01	-3.609096e+00
1.487943e+01	-3.637495e+00
1.496537e+01	-3.666075e+00
1.505181e+01	-3.694502e+00
1.513875e+01	-3.723303e+00
1.522619e+01	-3.751933e+00
1.531414e+01	-3.780832e+00
1.540259e+01	-3.810169e+00
1.549156e+01	-3.839445e+00
1.558103e+01	-3.869074e+00
1.567103e+01	-3.898376e+00
1.576155e+01	-3.928561e+00
1.585258e+01	-3.958095e+00
1.594415e+01	-3.988193e+00
1.603624e+01	-4.018137e+00
1.612886e+01	-4.048377e+00
1.622202e+01	-4.078829e+00
1.631572e+01	-4.109522e+00
1.640996e+01	-4.139845e+00
1.650474e+01	-4.170769e+00
1.660008e+01	-4.201705e+00
1.669596e+01	-4.233080e+00
1.679239e+01	-4.264116e+00
1.688938e+01	-4.295802e+00
1.698694e+01	-4.327034e+00
1.708505e+01	-4.358611e+00
1.718373e+01	-4.390650e+00
1.728299e+01	-4.422238e+00
1.738281e+01	-4.454315e+00
1.748322e+01	-4.486549e+00
1.758420e+01	-4.518656e+00
1.768576e+01	-4.551195e+00
1.778792e+01	-4.583574e+00
1.789066e+01	-4.616691e+00
1.799399e+01	-4.649245e+00
1.809793e+01	-4.682244e+00
1.820246e+01	-4.715210e+00
1.830760e+01	-4.748221e+00
1.841334e+01	-4.781794e+00
1.851969e+01	-4.815329e+00
1.862666e+01	-4.849056e+00
1.873425e+01	-4.882378e+00
1.884246e+01	-4.916230e+00
1.895129e+01	-4.950436e+00
1.906075e+01	-4.984199e+00
1.917085e+01	-5.018309e+00
1.928158e+01	-5.052651e+00
1.939295e+01	-5.087297e+00
1.950496e+01	-5.121866e+00
1.961762e+01	-5.156761e+00
1.973093e+01	-5.191349e+00
1.984490e+01	-5.226680e+00
1.995952e+01	-5.261170e+00
2.007480e+01	-5.296653e+00
2.019076e+01	-5.331892e+00
2.030738e+01	-5.367245e+00
2.042467e+01	-5.402853e+00
2.054264e+01	-5.438321e+00
2.066130e+01	-5.474552e+00
2.078064e+01	-5.510334e+00
2.090066e+01	-5.546133e+00
2.102139e+01	-5.582246e+00
2.114280e+01	-5.618770e+00
2.126492e+01	-5.655304e+00
2.138775e+01	-5.691126e+00
2.151128e+01	-5.728189e+00
2.163553e+01	-5.764773e+00
2.176050e+01	-5.801749e+00
2.188619e+01	-5.838648e+00
2.201260e+01	-5.875275e+00
2.213974e+01	-5.913136e+00
2.226762e+01	-5.950180e+00
2.239624e+01	-5.987298e+00
2.252560e+01	-6.024866e+00
2.265571e+01	-6.062861e+00
2.278656e+01	-6.100062e+00
2.291818e+01	-6.138169e+00
2.305055e+01	-6.175746e+00
2.318369e+01	-6.213784e+00
2.331760e+01	-6.251822e+00
2.345228e+01	-6.290329e+00
2.358774e+01	-6.328782e+00
2.372398e+01	-6.366941e+00
2.386101e+01	-6.405433e+00
2.399883e+01	-6.444375e+00
2.413745e+01	-6.483015e+00
2.427686e+01	-6.521666e+00
2.441709e+01	-6.560514e+00
2.455812e+01	-6.599764e+00
2.469997e+01	-6.638718e+00
2.484263e+01	-6.678217e+00
2.498612e+01	-6.717500e+00
2.513044e+01	-6.756794e+00
2.527559e+01	-6.796134e+00
2.542158e+01	-6.835889e+00
2.556842e+01	-6.875596e+00
2.571610e+01	-6.915397e+00
2.586463e+01	-6.955077e+00
2.601403e+01	-6.995195e+00
2.616428e+01	-7.035176e+00
2.631541e+01	-7.075527e+00
2.646740e+01	-7.115928e+00
2.662028e+01	-7.156367e+00
2.677404e+01	-7.196780e+00
2.692868e+01	-7.237363e+00
2.708422e+01	-7.277914e+00
2.724066e+01	-7.318312e+00
2.739800e+01	-7.359311e+00
2.755625e+01	-7.400013e+00
2.771541e+01	-7.441282e+00
2.787550e+01	-7.482408e+00
2.803650e+01	-7.523591e+00
2.819844e+01	-7.564535e+00
2.836131e+01	-7.606293e+00
2.852513e+01	-7.647019e+00
2.868989e+01	-7.688940e+00
2.885560e+01	-7.729973e+00
2.902227e+01	-7.772020e+00
2.918990e+01	-7.813710e+00
2.935850e+01	-7.855437e+00
2.952807e+01	-7.896883e+00
2.969863e+01	-7.939140e+00
2.987016e+01	-7.981346e+00
3.004269e+01	-8.023306e+00
3.021622e+01	-8.065439e+00
3.039075e+01	-8.108076e+00
3.056628e+01	-8.150158e+00
3.074283e+01	-8.191780e+00
3.092040e+01	-8.234770e+00
3.109900e+01	-8.277597e+00
3.127862e+01	-8.319934e+00
3.145929e+01	-8.362551e+00
3.164099e+01	-8.405608e+00
3.182375e+01	-8.448659e+00
3.200756e+01	-8.491561e+00
3.219244e+01	-8.534133e+00
3.237838e+01	-8.577195e+00
3.256540e+01	-8.620629e+00
3.275349e+01	-8.663544e+00
3.294268e+01	-8.706892e+00
3.313295e+01	-8.750216e+00
3.332433e+01	-8.793461e+00
3.351681e+01	-8.837235e+00
3.371040e+01	-8.880373e+00
3.390511e+01	-8.924798e+00
3.410094e+01	-8.967792e+00
3.429791e+01	-9.011412e+00
3.449601e+01	-9.055093e+00
3.469526e+01	-9.098839e+00
3.489566e+01	-9.143281e+00
3.509721e+01	-9.186539e+00
3.529993e+01	-9.230944e+00
3.550382e+01	-9.275321e+00
3.570889e+01	-9.319384e+00
3.591515e+01	-9.363602e+00
3.612259e+01	-9.407326e+00
3.633123e+01	-9.452121e+00
3.654108e+01	-9.496268e+00
3.675214e+01	-9.540840e+00
3.696442e+01	-9.585592e+00
3.717792e+01	-9.630021e+00
3.739266e+01	-9.674708e+00
3.760864e+01	-9.719553e+00
3.782587e+01	-9.763810e+00
3.804435e+01	-9.808530e+00
3.826409e+01	-9.853293e+00
3.848510e+01	-9.898288e+00
3.870739e+01	-9.943410e+00
3.893096e+01	-9.988112e+00
3.915583e+01	-1.003313e+01
3.938199e+01	-1.007834e+01
3.960946e+01	-1.012349e+01
3.983824e+01	-1.016861e+01
4.006834e+01	-1.021373e+01
4.029978e+01	-1.025983e+01
4.053255e+01	-1.030543e+01
4.076666e+01	-1.034948e+01
4.100213e+01	-1.039550e+01
4.123896e+01	-1.044102e+01
4.147715e+01	-1.048601e+01
4.171672e+01	-1.053213e+01
4.195767e+01	-1.057742e+01
4.220002e+01	-1.062347e+01
4.244377e+01	-1.066895e+01
4.268892e+01	-1.071495e+01
4.293549e+01	-1.076078e+01
4.318348e+01	-1.080631e+01
4.343291e+01	-1.085268e+01
4.368377e+01	-1.089810e+01
4.393609e+01	-1.094434e+01
4.418986e+01	-1.099032e+01
4.444510e+01	-1.103574e+01
4.470182e+01	-1.108289e+01
4.496001e+01	-1.112846e+01
4.521970e+01	-1.117483e+01
4.548089e+01	-1.122074e+01
4.574358e+01	-1.126766e+01
4.600779e+01	-1.131381e+01
4.627353e+01	-1.135951e+01
4.654081e+01	-1.140654e+01
4.680963e+01	-1.145309e+01
4.708000e+01	-1.149894e+01
4.735193e+01	-1.154574e+01
4.762543e+01	-1.159232e+01
4.790051e+01	-1.163866e+01
4.817719e+01	-1.168587e+01
4.845545e+01	-1.173240e+01
4.873533e+01	-1.177874e+01
4.901682e+01	-1.182563e+01
4.929994e+01	-1.187233e+01
4.958470e+01	-1.191938e+01
4.987110e+01	-1.196624e+01
5.015915e+01	-1.201238e+01
5.044887e+01	-1.206022e+01
5.074026e+01	-1.210689e+01
5.103333e+01	-1.215343e+01
5.132810e+01	-1.220047e+01
5.162457e+01	-1.224755e+01
5.192275e+01	-1.229441e+01
5.222265e+01	-1.234230e+01
5.252429e+01	-1.238818e+01
5.282767e+01	-1.243606e+01
5.313280e+01	-1.248341e+01
5.343969e+01	-1.253095e+01
5.374836e+01	-1.257804e+01
5.405880e+01	-1.262480e+01
5.437105e+01	-1.267212e+01
5.468509e+01	-1.271987e+01
5.500095e+01	-1.276714e+01
5.531863e+01	-1.281478e+01
5.563815e+01	-1.286150e+01
5.595951e+01	-1.290938e+01
5.628273e+01	-1.295667e+01
5.660782e+01	-1.300425e+01
5.693479e+01	-1.305182e+01
5.726364e+01	-1.309935e+01
5.759439e+01	-1.314651e+01
5.792705e+01	-1.319494e+01
5.826164e+01	-1.324233e+01
5.859815e+01	-1.328967e+01
5.893662e+01	-1.333784e+01
5.927703e+01	-1.338495e+01
5.961941e+01	-1.343315e+01
5.996377e+01	-1.348065e+01
6.031012e+01	-1.352880e+01
6.065847e+01	-1.357630e+01
6.100883e+01	-1.362456e+01
6.136121e+01	-1.367143e+01
6.171563e+01	-1.372042e+01
6.207210e+01	-1.376799e+01
6.243063e+01	-1.381574e+01
6.279122e+01	-1.386347e+01
6.315390e+01	-1.391202e+01
6.351868e+01	-1.396014e+01
6.388556e+01	-1.400750e+01
6.425456e+01	-1.405630e+01
6.462569e+01	-1.410397e+01
6.499897e+01	-1.415165e+01
6.537440e+01	-1.419946e+01
6.575200e+01	-1.424779e+01
6.613178e+01	-1.429660e+01
6.651375e+01	-1.434419e+01
6.689793e+01	-1.439299e+01
6.728433e+01	-1.444161e+01
6.767297e+01	-1.448969e+01
6.806384e+01	-1.453653e+01
6.845698e+01	-1.458568e+01
6.885238e+01	-1.463389e+01
6.925007e+01	-1.468218e+01
6.965005e+01	-1.473016e+01
7.005235e+01	-1.477935e+01
7.045697e+01	-1.482728e+01
7.086393e+01	-1.487472e+01
7.127323e+01	-1.492417e+01
7.168490e+01	-1.497259e+01
7.209895e+01	-1.502189e+01
7.251539e+01	-1.506975e+01
7.293424e+01	-1.511833e+01
7.335551e+01	-1.516672e+01
7.377920e+01	-1.521416e+01
7.420535e+01	-1.526343e+01
7.463396e+01	-1.531227e+01
7.506504e+01	-1.536046e+01
7.549861e+01	-1.540980e+01
7.593469e+01	-1.545819e+01
7.637328e+01	-1.550637e+01
7.681441e+01	-1.555504e+01
7.725809e+01	-1.560358e+01
7.770433e+01	-1.565219e+01
7.815315e+01	-1.570066e+01
7.860456e+01	-1.575040e+01
7.905857e+01	-1.579816e+01
7.951521e+01	-1.584683e+01
7.997449e+01	-1.589628e+01
8.043642e+01	-1.594428e+01
8.090102e+01	-1.599381e+01
8.136830e+01	-1.604179e+01
8.183828e+01	-1.609069e+01
8.231097e+01	-1.613997e+01
8.278640e+01	-1.618916e+01
8.326457e+01	-1.623816e+01
8.374550e+01	-1.628683e+01
8.422921e+01	-1.633402e+01
8.471572e+01	-1.638449e+01
8.520503e+01	-1.643316e+01
8.569717e+01	-1.648183e+01
8.619215e+01	-1.653071e+01
8.669000e+01	-1.657906e+01
8.719071e+01	-1.662793e+01
8.769432e+01	-1.667786e+01
8.820084e+01	-1.672628e+01
8.871029e+01	-1.677559e+01
8.922267e+01	-1.682418e+01
8.973802e+01	-1.687334e+01
9.025634e+01	-1.692266e+01
9.077766e+01	-1.697243e+01
9.130199e+01	-1.702036e+01
9.182935e+01	-1.706917e+01
9.235975e+01	-1.711911e+01
9.289321e+01	-1.716761e+01
9.342976e+01	-1.721661e+01
9.396941e+01	-1.726538e+01
9.451217e+01	-1.731434e+01
9.505807e+01	-1.736340e+01
9.560712e+01	-1.741301e+01
9.615934e+01	-1.746243e+01
9.671476e+01	-1.751147e+01
9.727338e+01	-1.755942e+01
9.783522e+01	-1.761057e+01
9.840032e+01	-1.765833e+01
9.896867e+01	-1.770906e+01
9.954031e+01	-1.775765e+01
1.001153e+02	-1.780593e+01
1.006935e+02	-1.785511e+01
1.012751e+02	-1.790457e+01
1.018601e+02	-1.795562e+01
1.024484e+02	-1.800356e+01
1.030402e+02	-1.805360e+01
1.036353e+02	-1.810273e+01
1.042339e+02	-1.815078e+01
1.048360e+02	-1.820166e+01
1.054415e+02	-1.824842e+01
1.060505e+02	-1.829982e+01
1.066631e+02	-1.834962e+01
1.072791e+02	-1.839646e+01
1.078988e+02	-1.844783e+01
1.085220e+02	-1.849657e+01
1.091488e+02	-1.854532e+01
1.097793e+02	-1.859516e+01
1.104133e+02	-1.864582e+01
1.110511e+02	-1.869498e+01
1.116925e+02	-1.874214e+01
1.123376e+02	-1.879159e+01
1.129865e+02	-1.884256e+01
1.136391e+02	-1.889359e+01
1.142955e+02	-1.893992e+01
1.149556e+02	-1.898924e+01
1.156196e+02	-1.904008e+01
1.162874e+02	-1.908867e+01
1.169591e+02	-1.913828e+01
1.176347e+02	-1.918726e+01
1.183141e+02	-1.923594e+01
1.189975e+02	-1.928731e+01
1.196848e+02	-1.933521e+01
1.203761e+02	-1.938726e+01
1.210714e+02	-1.943412e+01
1.217707e+02	-1.948538e+01
1.224740e+02	-1.953355e+01
1.231814e+02	-1.958304e+01
1.238929e+02	-1.963266e+01
1.246085e+02	-1.968270e+01
1.253283e+02	-1.973132e+01
1.260522e+02	-1.978106e+01
1.267802e+02	-1.983153e+01
1.275125e+02	-1.988008e+01
1.282490e+02	-1.993073e+01
1.289898e+02	-1.997837e+01
1.297348e+02	-2.002907e+01
1.304842e+02	-2.007802e+01
1.312378e+02	-2.012847e+01
1.319959e+02	-2.017590e+01
1.327583e+02	-2.022725e+01
1.335251e+02	-2.027656e+01
1.342963e+02	-2.032586e+01
1.350720e+02	-2.037589e+01
1.358522e+02	-2.042409e+01
1.366368e+02	-2.047544e+01
1.374260e+02	-2.052393e+01
1.382198e+02	-2.057196e+01
1.390182e+02	-2.062387e+01
1.398211e+02	-2.067313e+01
1.406287e+02	-2.072281e+01
1.414410e+02	-2.077238e+01
1.422579e+02	-2.082162e+01
1.430796e+02	-2.087139e+01
1.439060e+02	-2.092276e+01
1.447372e+02	-2.097113e+01
1.455732e+02	-2.102214e+01
1.464141e+02	-2.107051e+01
1.472597e+02	-2.111994e+01
1.481103e+02	-2.116939e+01
1.489658e+02	-2.122029e+01
1.498262e+02	-2.127002e+01
1.506916e+02	-2.131718e+01
1.515620e+02	-2.136807e+01
1.524374e+02	-2.141849e+01
1.533179e+02	-2.146649e+01
1.542034e+02	-2.151763e+01
1.550941e+02	-2.156762e+01
1.559899e+02	-2.161474e+01
1.568909e+02	-2.166542e+01
1.577971e+02	-2.171733e+01
1.587085e+02	-2.176447e+01
1.596252e+02	-2.181507e+01
1.605472e+02	-2.186598e+01
1.614745e+02	-2.191568e+01
1.624072e+02	-2.196518e+01
1.633453e+02	-2.201228e+01
1.642887e+02	-2.206624e+01
1.652377e+02	-2.211420e+01
1.661921e+02	-2.216375e+01
1.671520e+02	-2.221360e+01
1.681175e+02	-2.226363e+01
1.690885e+02	-2.231454e+01
1.700651e+02	-2.236392e+01
1.710474e+02	-2.241164e+01
1.720354e+02	-2.246183e+01
1.730291e+02	-2.251398e+01
1.740285e+02	-2.256254e+01
1.750337e+02	-2.261307e+01
1.760446e+02	-2.266195e+01
1.770615e+02	-2.270908e+01
1.780842e+02	-2.276256e+01
1.791128e+02	-2.281369e+01
1.801473e+02	-2.285870e+01
1.811878e+02	-2.291146e+01
1.822344e+02	-2.295862e+01
1.832870e+02	-2.300997e+01
1.843456e+02	-2.305914e+01
1.854104e+02	-2.310872e+01
1.864813e+02	-2.315965e+01
1.875584e+02	-2.320756e+01
1.886418e+02	-2.325675e+01
1.897313e+02	-2.331113e+01
1.908272e+02	-2.335857e+01
1.919294e+02	-2.340911e+01
1.930380e+02	-2.345945e+01
1.941530e+02	-2.350759e+01
1.952744e+02	-2.355928e+01
1.964023e+02	-2.360869e+01
1.975367e+02	-2.365891e+01
1.986777e+02	-2.370632e+01
1.998252e+02	-2.375515e+01
2.009794e+02	-2.380952e+01
2.021403e+02	-2.385710e+01
2.033078e+02	-2.390916e+01
2.044821e+02	-2.395732e+01
2.056632e+02	-2.400559e+01
2.068511e+02	-2.405777e+01
2.080459e+02	-2.410803e+01
2.092475e+02	-2.415517e+01
2.104561e+02	-2.420620e+01
2.116717e+02	-2.425344e+01
2.128943e+02	-2.430520e+01
2.141240e+02	-2.435552e+01
2.153608e+02	-2.440523e+01
2.166047e+02	-2.445279e+01
2.178558e+02	-2.450456e+01
2.191141e+02	-2.455547e+01
2.203797e+02	-2.460753e+01
2.216526e+02	-2.465574e+01
2.229329e+02	-2.470607e+01
2.242205e+02	-2.475291e+01
2.255156e+02	-2.480527e+01
2.268182e+02	-2.485620e+01
2.281283e+02	-2.490459e+01
2.294459e+02	-2.495631e+01
2.307712e+02	-2.500365e+01
2.321041e+02	-2.505193e+01
2.334447e+02	-2.510446e+01
2.347931e+02	-2.515693e+01
2.361493e+02	-2.520496e+01
2.375133e+02	-2.525239e+01
2.388851e+02	-2.530560e+01
2.402649e+02	-2.535336e+01
2.416527e+02	-2.540294e+01
2.430484e+02	-2.545496e+01
2.444523e+02	-2.550512e+01
2.458642e+02	-2.555168e+01
2.472843e+02	-2.560374e+01
2.487126e+02	-2.565151e+01
2.501492e+02	-2.570159e+01
2.515940e+02	-2.575160e+01
2.530472e+02	-2.580395e+01
2.545088e+02	-2.585522e+01
2.559789e+02	-2.590273e+01
2.574574e+02	-2.595404e+01
2.589444e+02	-2.600160e+01
2.604401e+02	-2.605001e+01
2.619444e+02	-2.610321e+01
2.634574e+02	-2.615046e+01
2.649791e+02	-2.620247e+01
2.665096e+02	-2.625131e+01
2.680489e+02	-2.630320e+01
2.695972e+02	-2.635582e+01
2.711544e+02	-2.640427e+01
2.727205e+02	-2.645745e+01
2.742958e+02	-2.650297e+01
2.758801e+02	-2.655448e+01
2.774736e+02	-2.660250e+01
2.790762e+02	-2.665203e+01
2.806882e+02	-2.670448e+01
2.823094e+02	-2.675324e+01
2.839400e+02	-2.680114e+01
2.855800e+02	-2.685039e+01
2.872295e+02	-2.690431e+01
2.888886e+02	-2.695424e+01
2.905572e+02	-2.699930e+01
2.922354e+02	-2.705197e+01
2.939234e+02	-2.710176e+01
2.956211e+02	-2.715303e+01
2.973286e+02	-2.719977e+01
2.990459e+02	-2.725379e+01
3.007732e+02	-2.730038e+01
3.025104e+02	-2.735109e+01
3.042577e+02	-2.739999e+01
3.060151e+02	-2.745216e+01
3.077826e+02	-2.750097e+01
3.095604e+02	-2.755411e+01
3.113484e+02	-2.760483e+01
3.131467e+02	-2.764873e+01
3.149554e+02	-2.770263e+01
3.167746e+02	-2.775186e+01
3.186043e+02	-2.780034e+01
3.204445e+02	-2.785099e+01
3.222954e+02	-2.790215e+01
3.241570e+02	-2.795057e+01
3.260293e+02	-2.800065e+01
3.279124e+02	-2.805290e+01
3.298064e+02	-2.810461e+01
3.317114e+02	-2.814628e+01
3.336273e+02	-2.820270e+01
3.355544e+02	-2.825300e+01
3.374925e+02	-2.830318e+01
3.394418e+02	-2.835631e+01
3.414024e+02	-2.840308e+01
3.433744e+02	-2.845242e+01
3.453577e+02	-2.850108e+01
3.473525e+02	-2.855635e+01
3.493588e+02	-2.860157e+01
3.513766e+02	-2.865128e+01
3.534062e+02	-2.870493e+01
3.554474e+02	-2.875622e+01
3.575005e+02	-2.881024e+01
3.595654e+02	-2.885419e+01
3.616422e+02	-2.890133e+01
3.637311e+02	-2.895796e+01
3.658320e+02	-2.900318e+01
3.679450e+02	-2.905626e+01
3.700702e+02	-2.910922e+01
3.722077e+02	-2.915181e+01
3.743576e+02	-2.920441e+01
3.765199e+02	-2.925355e+01
3.786946e+02	-2.930667e+01
3.808820e+02	-2.935361e+01
3.830819e+02	-2.940523e+01
3.852946e+02	-2.945743e+01
3.875200e+02	-2.950362e+01
3.897583e+02	-2.955520e+01
3.920096e+02	-2.960865e+01
3.942738e+02	-2.965504e+01
3.965511e+02	-2.970335e+01
3.988416e+02	-2.975768e+01
4.011452e+02	-2.980270e+01
4.034622e+02	-2.985430e+01
4.057926e+02	-2.990515e+01
4.081365e+02	-2.995437e+01
4.104938e+02	-3.000521e+01
4.128648e+02	-3.005600e+01
4.152495e+02	-3.010468e+01
4.176480e+02	-3.015445e+01
4.200603e+02	-3.020258e+01
4.224866e+02	-3.025604e+01
4.249268e+02	-3.030896e+01
4.273812e+02	-3.035444e+01
4.298497e+02	-3.040737e+01
4.323325e+02	-3.045538e+01
4.348297e+02	-3.050465e+01
4.373412e+02	-3.055805e+01
4.398673e+02	-3.060664e+01
4.424079e+02	-3.066324e+01
4.449633e+02	-3.070842e+01
4.475334e+02	-3.076067e+01
4.501183e+02	-3.080645e+01
4.527182e+02	-3.085986e+01
4.553330e+02	-3.090527e+01
4.579630e+02	-3.095393e+01
4.606082e+02	-3.101031e+01
4.632687e+02	-3.105646e+01
4.659445e+02	-3.110894e+01
4.686358e+02	-3.116213e+01
4.713426e+02	-3.120907e+01
4.740650e+02	-3.126267e+01
4.768032e+02	-3.130777e+01
4.795572e+02	-3.135598e+01
4.823271e+02	-3.140833e+01
4.851130e+02	-3.146107e+01
4.879150e+02	-3.150915e+01
4.907332e+02	-3.155631e+01
4.935676e+02	-3.160882e+01
4.964185e+02	-3.165549e+01
4.992858e+02	-3.171481e+01
5.021696e+02	-3.176014e+01
5.050701e+02	-3.180983e+01
5.079874e+02	-3.185974e+01
5.109215e+02	-3.191206e+01
5.138726e+02	-3.196418e+01
5.168407e+02	-3.201378e+01
5.198259e+02	-3.205952e+01
5.228284e+02	-3.211557e+01
5.258482e+02	-3.216206e+01
5.288855e+02	-3.220874e+01
5.319403e+02	-3.226372e+01
5.350128e+02	-3.231536e+01
5.381030e+02	-3.236168e+01
5.412111e+02	-3.241407e+01
5.443371e+02	-3.246280e+01
5.474812e+02	-3.251631e+01
5.506434e+02	-3.257024e+01
5.538239e+02	-3.261604e+01
5.570228e+02	-3.267297e+01
5.602401e+02	-3.271501e+01
5.634760e+02	-3.277037e+01
5.667306e+02	-3.282308e+01
5.700040e+02	-3.286738e+01
5.732964e+02	-3.291558e+01
5.766077e+02	-3.296611e+01
5.799382e+02	-3.301334e+01
5.832879e+02	-3.307010e+01
5.866569e+02	-3.311670e+01
5.900454e+02	-3.317126e+01
5.934535e+02	-3.322209e+01
5.968813e+02	-3.327018e+01
6.003288e+02	-3.332059e+01
6.037963e+02	-3.337246e+01
6.072838e+02	-3.341845e+01
6.107914e+02	-3.346298e+01
6.143194e+02	-3.352849e+01
6.178676e+02	-3.356639e+01
6.214364e+02	-3.361658e+01
6.250258e+02	-3.367044e+01
6.286359e+02	-3.372116e+01
6.322669e+02	-3.377630e+01
6.359189e+02	-3.382399e+01
6.395919e+02	-3.386974e+01
6.432862e+02	-3.391531e+01
6.470017e+02	-3.397635e+01
6.507388e+02	-3.402933e+01
6.544974e+02	-3.407755e+01
6.582778e+02	-3.413051e+01
6.620800e+02	-3.417666e+01
6.659041e+02	-3.422510e+01
6.697504e+02	-3.427671e+01
6.736188e+02	-3.431859e+01
6.775096e+02	-3.438074e+01
6.814229e+02	-3.441429e+01
6.853587e+02	-3.447326e+01
6.893173e+02	-3.452687e+01
6.932988e+02	-3.457671e+01
6.973033e+02	-3.463745e+01
7.013309e+02	-3.468267e+01
