Frequency(Hz)	Magnitude(dB)
1.000000e+01	-2.078231e+00
1.005776e+01	-2.097304e+00
1.011585e+01	-2.116609e+00
1.017428e+01	-2.135951e+00
1.023305e+01	-2.155702e+00
1.029215e+01	-2.175191e+00
1.035160e+01	-2.194974e+00
1.041139e+01	-2.214890e+00
1.047153e+01	-2.234899e+00
1.053201e+01	-2.255325e+00
1.059284e+01	-2.275346e+00
1.065403e+01	-2.295789e+00
1.071556e+01	-2.316504e+00
1.077746e+01	-2.337251e+00
1.083971e+01	-2.358261e+00
1.090232e+01	-2.378874e+00
1.096529e+01	-2.400129e+00
1.102862e+01	-2.421468e+00
1.109232e+01	-2.443094e+00
1.115639e+01	-2.464589e+00
1.122083e+01	-2.486452e+00
1.128564e+01	-2.508475e+00
1.135083e+01	-2.530257e+00
1.141639e+01	-2.552455e+00
1.148233e+01	-2.574548e+00
1.154865e+01	-2.597435e+00
1.161536e+01	-2.619992e+00
1.168245e+01	-2.642698e+00
1.174992e+01	-2.665393e+00
1.181779e+01	-2.688594e+00
1.188605e+01	-2.711452e+00
1.195470e+01	-2.734904e+00
1.202375e+01	-2.758299e+00
1.209320e+01	-2.781845e+00
1.216305e+01	-2.805607e+00
1.223330e+01	-2.829598e+00
1.230396e+01	-2.853439e+00
1.237503e+01	-2.877618e+00
1.244651e+01	-2.902227e+00
1.251840e+01	-2.926500e+00
1.259070e+01	-2.951258e+00
1.266343e+01	-2.975679e+00
1.273657e+01	-3.000721e+00
1.281014e+01	-3.025753e+00
1.288413e+01	-3.051015e+00
1.295855e+01	-3.076306e+00
1.303339e+01	-3.101722e+00
1.310867e+01	-3.127365e+00
1.318439e+01	-3.152976e+00
1.326054e+01	-3.179013e+00
1.333713e+01	-3.204916e+00
1.341417e+01	-3.231175e+00
1.349165e+01	-3.257406e+00
1.356958e+01	-3.283807e+00
1.364795e+01	-3.310517e+00
1.372678e+01	-3.337292e+00
1.380607e+01	-3.364247e+00
1.388581e+01	-3.391094e+00
1.396602e+01	-3.418308e+00
1.404668e+01	-3.445979e+00
1.412782e+01	-3.473426e+00
1.420942e+01	-3.500743e+00
1.429149e+01	-3.528781e+00
1.437404e+01	-3.556246e+00
1.445706e+01	-3.584543e+00
1.454057e+01	-3.612668e+00
1.462455e+01	-3.641014e+00
1.470902e+01	-3.669493e+00
1.479398e+01	-3.698131e+00
1.487943e+01	-3.726615e+00
1.496537e+01	-3.755581e+00
1.505181e+01	-3.784827e+00
1.513875e+01	-3.813969e+00
1.522619e+01	-3.843166e+00
1.531414e+01	-3.872649e+00
1.540259e+01	-3.902307e+00
1.549156e+01	-3.931958e+00
1.558103e+01	-3.961788e+00
1.567103e+01	-3.991732e+00
1.576155e+01	-4.021837e+00
1.585258e+01	-4.052318e+00
1.594415e+01	-4.082643e+00
1.603624e+01	-4.113189e+00
1.612886e+01	-4.144094e+00
1.622202e+01	-4.174766e+00
1.631572e+01	-4.205741e+00
1.640996e+01	-4.236777e+00
1.650474e+01	-4.268100e+00
1.660008e+01	-4.299444e+00
1.669596e+01	-4.330909e+00
1.679239e+01	-4.362622e+00
1.688938e+01	-4.394495e+00
1.698694e+01	-4.426283e+00
1.708505e+01	-4.458436e+00
1.718373e+01	-4.490450e+00
1.728299e+01	-4.522624e+00
1.738281e+01	-4.555257e+00
1.748322e+01	-4.587586e+00
1.758420e+01	-4.620519e+00
1.768576e+01	-4.653122e+00
1.778792e+01	-4.686220e+00
1.789066e+01	-4.719429e+00
1.799399e+01	-4.752712e+00
1.809793e+01	-4.785850e+00
1.820246e+01	-4.819556e+00
1.830760e+01	-4.852907e+00
1.841334e+01	-4.886665e+00
1.851969e+01	-4.920825e+00
1.862666e+01	-4.954510e+00
1.873425e+01	-4.988799e+00
1.884246e+01	-5.022863e+00
1.895129e+01	-5.057252e+00
1.906075e+01	-5.091650e+00
1.917085e+01	-5.126209e+00
1.928158e+01	-5.160911e+00
1.939295e+01	-5.195595e+00
1.950496e+01	-5.230882e+00
1.961762e+01	-5.265644e+00
1.973093e+01	-5.301254e+00
1.984490e+01	-5.336149e+00
1.995952e+01	-5.371760e+00
2.007480e+01	-5.407795e+00
2.019076e+01	-5.443077e+00
2.030738e+01	-5.478894e+00
2.042467e+01	-5.514657e+00
2.054264e+01	-5.550796e+00
2.066130e+01	-5.587198e+00
2.078064e+01	-5.623415e+00
2.090066e+01	-5.659694e+00
2.102139e+01	-5.696528e+00
2.114280e+01	-5.733103e+00
2.126492e+01	-5.769403e+00
2.138775e+01	-5.806889e+00
2.151128e+01	-5.843219e+00
2.163553e+01	-5.880535e+00
2.176050e+01	-5.917437e+00
2.188619e+01	-5.954799e+00
2.201260e+01	-5.991914e+00
2.213974e+01	-6.029512e+00
2.226762e+01	-6.067344e+00
2.239624e+01	-6.105102e+00
2.252560e+01	-6.142607e+00
2.265571e+01	-6.180890e+00
2.278656e+01	-6.219024e+00
2.291818e+01	-6.256698e+00
2.305055e+01	-6.295048e+00
2.318369e+01	-6.333453e+00
2.331760e+01	-6.371653e+00
2.345228e+01	-6.410320e+00
2.358774e+01	-6.449017e+00
2.372398e+01	-6.487865e+00
2.386101e+01	-6.526665e+00
2.399883e+01	-6.565408e+00
2.413745e+01	-6.604477e+00
2.427686e+01	-6.643581e+00
2.441709e+01	-6.683086e+00
2.455812e+01	-6.722286e+00
2.469997e+01	-6.761627e+00
2.484263e+01	-6.801271e+00
2.498612e+01	-6.841059e+00
2.513044e+01	-6.880758e+00
2.527559e+01	-6.920190e+00
2.542158e+01	-6.960169e+00
2.556842e+01	-7.000577e+00
2.571610e+01	-7.040418e+00
2.586463e+01	-7.080884e+00
2.601403e+01	-7.120798e+00
2.616428e+01	-7.160963e+00
2.631541e+01	-7.201631e+00
2.646740e+01	-7.242352e+00
2.662028e+01	-7.282912e+00
2.677404e+01	-7.323524e+00
2.692868e+01	-7.364190e+00
2.708422e+01	-7.405186e+00
2.724066e+01	-7.446051e+00
2.739800e+01	-7.487156e+00
2.755625e+01	-7.528400e+00
2.771541e+01	-7.569447e+00
2.787550e+01	-7.610621e+00
2.803650e+01	-7.652510e+00
2.819844e+01	-7.693633e+00
2.836131e+01	-7.735853e+00
2.852513e+01	-7.777088e+00
2.868989e+01	-7.818655e+00
2.885560e+01	-7.860604e+00
2.902227e+01	-7.902424e+00
2.918990e+01	-7.944362e+00
2.935850e+01	-7.986102e+00
2.952807e+01	-8.028493e+00
2.969863e+01	-8.070833e+00
2.987016e+01	-8.113011e+00
3.004269e+01	-8.155376e+00
3.021622e+01	-8.197896e+00
3.039075e+01	-8.240627e+00
3.056628e+01	-8.282756e+00
3.074283e+01	-8.325350e+00
3.092040e+01	-8.368588e+00
3.109900e+01	-8.410887e+00
3.127862e+01	-8.453801e+00
3.145929e+01	-8.496532e+00
3.164099e+01	-8.539584e+00
3.182375e+01	-8.582887e+00
3.200756e+01	-8.625739e+00
3.219244e+01	-8.669190e+00
3.237838e+01	-8.712324e+00
3.256540e+01	-8.755443e+00
3.275349e+01	-8.799134e+00
3.294268e+01	-8.842368e+00
3.313295e+01	-8.886368e+00
3.332433e+01	-8.929694e+00
3.351681e+01	-8.973007e+00
3.371040e+01	-9.016913e+00
3.390511e+01	-9.060987e+00
3.410094e+01	-9.104521e+00
3.429791e+01	-9.148334e+00
3.449601e+01	-9.192287e+00
3.469526e+01	-9.236500e+00
3.489566e+01	-9.280432e+00
3.509721e+01	-9.324609e+00
3.529993e+01	-9.368581e+00
3.550382e+01	-9.413548e+00
3.570889e+01	-9.457461e+00
3.591515e+01	-9.501913e+00
3.612259e+01	-9.546111e+00
3.633123e+01	-9.590972e+00
3.654108e+01	-9.635465e+00
3.675214e+01	-9.680416e+00
3.696442e+01	-9.724855e+00
3.717792e+01	-9.770033e+00
3.739266e+01	-9.813955e+00
3.760864e+01	-9.858965e+00
3.782587e+01	-9.904412e+00
3.804435e+01	-9.948848e+00
3.826409e+01	-9.993966e+00
3.848510e+01	-1.003901e+01
3.870739e+01	-1.008375e+01
3.893096e+01	-1.012930e+01
3.915583e+01	-1.017460e+01
3.938199e+01	-1.021952e+01
3.960946e+01	-1.026525e+01
3.983824e+01	-1.031049e+01
4.006834e+01	-1.035594e+01
4.029978e+01	-1.040150e+01
4.053255e+01	-1.044617e+01
4.076666e+01	-1.049242e+01
4.100213e+01	-1.053799e+01
4.123896e+01	-1.058328e+01
4.147715e+01	-1.062920e+01
4.171672e+01	-1.067496e+01
4.195767e+01	-1.072068e+01
4.220002e+01	-1.076675e+01
4.244377e+01	-1.081238e+01
4.268892e+01	-1.085835e+01
4.293549e+01	-1.090388e+01
4.318348e+01	-1.094956e+01
4.343291e+01	-1.099656e+01
4.368377e+01	-1.104258e+01
4.393609e+01	-1.108813e+01
4.418986e+01	-1.113454e+01
4.444510e+01	-1.118072e+01
4.470182e+01	-1.122669e+01
4.496001e+01	-1.127361e+01
4.521970e+01	-1.131957e+01
4.548089e+01	-1.136593e+01
4.574358e+01	-1.141219e+01
4.600779e+01	-1.145852e+01
4.627353e+01	-1.150502e+01
4.654081e+01	-1.155100e+01
4.680963e+01	-1.159801e+01
4.708000e+01	-1.164432e+01
4.735193e+01	-1.169125e+01
4.762543e+01	-1.173829e+01
4.790051e+01	-1.178381e+01
4.817719e+01	-1.183174e+01
4.845545e+01	-1.187859e+01
4.873533e+01	-1.192531e+01
4.901682e+01	-1.197142e+01
4.929994e+01	-1.201861e+01
4.958470e+01	-1.206538e+01
4.987110e+01	-1.211284e+01
5.015915e+01	-1.215939e+01
5.044887e+01	-1.220633e+01
5.074026e+01	-1.225370e+01
5.103333e+01	-1.230057e+01
5.132810e+01	-1.234706e+01
5.162457e+01	-1.239459e+01
5.192275e+01	-1.244172e+01
5.222265e+01	-1.248946e+01
5.252429e+01	-1.253706e+01
5.282767e+01	-1.258392e+01
5.313280e+01	-1.263116e+01
5.343969e+01	-1.267805e+01
5.374836e+01	-1.272554e+01
5.405880e+01	-1.277282e+01
5.437105e+01	-1.282096e+01
5.468509e+01	-1.286792e+01
5.500095e+01	-1.291530e+01
5.531863e+01	-1.296184e+01
5.563815e+01	-1.301054e+01
5.595951e+01	-1.305729e+01
5.628273e+01	-1.310560e+01
5.660782e+01	-1.315312e+01
5.693479e+01	-1.319981e+01
5.726364e+01	-1.324836e+01
5.759439e+01	-1.329520e+01
5.792705e+01	-1.334335e+01
5.826164e+01	-1.339082e+01
5.859815e+01	-1.343880e+01
5.893662e+01	-1.348699e+01
5.927703e+01	-1.353492e+01
5.961941e+01	-1.358249e+01
5.996377e+01	-1.362974e+01
6.031012e+01	-1.367840e+01
6.065847e+01	-1.372556e+01
6.100883e+01	-1.377437e+01
6.136121e+01	-1.382105e+01
6.171563e+01	-1.386915e+01
6.207210e+01	-1.391737e+01
6.243063e+01	-1.396567e+01
6.279122e+01	-1.401503e+01
6.315390e+01	-1.406200e+01
6.351868e+01	-1.410982e+01
6.388556e+01	-1.415715e+01
6.425456e+01	-1.420566e+01
6.462569e+01	-1.425378e+01
6.499897e+01	-1.430280e+01
6.537440e+01	-1.435058e+01
6.575200e+01	-1.439890e+01
6.613178e+01	-1.444625e+01
6.651375e+01	-1.449577e+01
6.689793e+01	-1.454343e+01
6.728433e+01	-1.459145e+01
6.767297e+01	-1.464051e+01
6.806384e+01	-1.468894e+01
6.845698e+01	-1.473681e+01
6.885238e+01	-1.478674e+01
6.925007e+01	-1.483373e+01
6.965005e+01	-1.488277e+01
7.005235e+01	-1.493033e+01
7.045697e+01	-1.497823e+01
7.086393e+01	-1.502816e+01
7.127323e+01	-1.507607e+01
7.168490e+01	-1.512434e+01
7.209895e+01	-1.517303e+01
7.251539e+01	-1.522044e+01
7.293424e+01	-1.526951e+01
7.335551e+01	-1.531913e+01
7.377920e+01	-1.536675e+01
7.420535e+01	-1.541506e+01
7.463396e+01	-1.546440e+01
7.506504e+01	-1.551299e+01
7.549861e+01	-1.556156e+01
7.593469e+01	-1.560986e+01
7.637328e+01	-1.565820e+01
7.681441e+01	-1.570780e+01
7.725809e+01	-1.575485e+01
7.770433e+01	-1.580417e+01
7.815315e+01	-1.585407e+01
7.860456e+01	-1.590242e+01
7.905857e+01	-1.595089e+01
7.951521e+01	-1.599834e+01
7.997449e+01	-1.604862e+01
8.043642e+01	-1.609679e+01
8.090102e+01	-1.614647e+01
8.136830e+01	-1.619529e+01
8.183828e+01	-1.624324e+01
8.231097e+01	-1.629315e+01
8.278640e+01	-1.634077e+01
8.326457e+01	-1.639032e+01
8.374550e+01	-1.643896e+01
8.422921e+01	-1.648867e+01
8.471572e+01	-1.653671e+01
8.520503e+01	-1.658531e+01
8.569717e+01	-1.663550e+01
8.619215e+01	-1.668276e+01
8.669000e+01	-1.673234e+01
8.719071e+01	-1.678328e+01
8.769432e+01	-1.683094e+01
8.820084e+01	-1.687946e+01
8.871029e+01	-1.692835e+01
8.922267e+01	-1.697751e+01
8.973802e+01	-1.702610e+01
9.025634e+01	-1.707656e+01
9.077766e+01	-1.712491e+01
9.130199e+01	-1.717298e+01
9.182935e+01	-1.722303e+01
9.235975e+01	-1.727431e+01
9.289321e+01	-1.732110e+01
9.342976e+01	-1.736941e+01
9.396941e+01	-1.741966e+01
9.451217e+01	-1.746840e+01
9.505807e+01	-1.751828e+01
9.560712e+01	-1.756803e+01
9.615934e+01	-1.761614e+01
9.671476e+01	-1.766489e+01
9.727338e+01	-1.771452e+01
9.783522e+01	-1.776429e+01
9.840032e+01	-1.781405e+01
9.896867e+01	-1.786322e+01
9.954031e+01	-1.791134e+01
1.001153e+02	-1.795986e+01
1.006935e+02	-1.801033e+01
1.012751e+02	-1.805863e+01
1.018601e+02	-1.810788e+01
1.024484e+02	-1.815717e+01
1.030402e+02	-1.820822e+01
1.036353e+02	-1.825577e+01
1.042339e+02	-1.830374e+01
1.048360e+02	-1.835528e+01
1.054415e+02	-1.840331e+01
1.060505e+02	-1.845357e+01
1.066631e+02	-1.850280e+01
1.072791e+02	-1.855169e+01
1.078988e+02	-1.859961e+01
1.085220e+02	-1.865039e+01
1.091488e+02	-1.870116e+01
1.097793e+02	-1.874876e+01
1.104133e+02	-1.880043e+01
1.110511e+02	-1.884914e+01
1.116925e+02	-1.889784e+01
1.123376e+02	-1.894560e+01
1.129865e+02	-1.899645e+01
1.136391e+02	-1.904619e+01
1.142955e+02	-1.909602e+01
1.149556e+02	-1.914527e+01
1.156196e+02	-1.919392e+01
1.162874e+02	-1.924392e+01
1.169591e+02	-1.929297e+01
1.176347e+02	-1.934190e+01
1.183141e+02	-1.939187e+01
1.189975e+02	-1.943888e+01
1.196848e+02	-1.949151e+01
1.203761e+02	-1.954115e+01
1.210714e+02	-1.958880e+01
1.217707e+02	-1.963837e+01
1.224740e+02	-1.968920e+01
1.231814e+02	-1.973808e+01
1.238929e+02	-1.978675e+01
1.246085e+02	-1.983731e+01
1.253283e+02	-1.988584e+01
1.260522e+02	-1.993652e+01
1.267802e+02	-1.998550e+01
1.275125e+02	-2.003417e+01
1.282490e+02	-2.008370e+01
1.289898e+02	-2.013426e+01
1.297348e+02	-2.018404e+01
1.304842e+02	-2.023167e+01
1.312378e+02	-2.028236e+01
1.319959e+02	-2.033187e+01
1.327583e+02	-2.038284e+01
1.335251e+02	-2.043235e+01
1.342963e+02	-2.047924e+01
1.350720e+02	-2.053078e+01
1.358522e+02	-2.058178e+01
1.366368e+02	-2.063090e+01
1.374260e+02	-2.067849e+01
1.382198e+02	-2.072964e+01
1.390182e+02	-2.077729e+01
1.398211e+02	-2.082943e+01
1.406287e+02	-2.087767e+01
1.414410e+02	-2.092823e+01
1.422579e+02	-2.097690e+01
1.430796e+02	-2.102609e+01
1.439060e+02	-2.107674e+01
1.447372e+02	-2.112776e+01
1.455732e+02	-2.117781e+01
1.464141e+02	-2.122795e+01
1.472597e+02	-2.127424e+01
1.481103e+02	-2.132586e+01
1.489658e+02	-2.137653e+01
1.498262e+02	-2.142634e+01
1.506916e+02	-2.147297e+01
1.515620e+02	-2.152250e+01
1.524374e+02	-2.157413e+01
1.533179e+02	-2.162442e+01
1.542034e+02	-2.167215e+01
1.550941e+02	-2.172289e+01
1.559899e+02	-2.177181e+01
1.568909e+02	-2.182310e+01
1.577971e+02	-2.187090e+01
1.587085e+02	-2.192218e+01
1.596252e+02	-2.196955e+01
1.605472e+02	-2.202039e+01
1.614745e+02	-2.207014e+01
1.624072e+02	-2.212246e+01
1.633453e+02	-2.216889e+01
1.642887e+02	-2.222009e+01
1.652377e+02	-2.227118e+01
1.661921e+02	-2.232042e+01
1.671520e+02	-2.236905e+01
1.681175e+02	-2.241895e+01
1.690885e+02	-2.246911e+01
1.700651e+02	-2.251694e+01
1.710474e+02	-2.256983e+01
1.720354e+02	-2.261750e+01
1.730291e+02	-2.266883e+01
1.740285e+02	-2.271900e+01
1.750337e+02	-2.276789e+01
1.760446e+02	-2.281581e+01
1.770615e+02	-2.286653e+01
1.780842e+02	-2.291573e+01
1.791128e+02	-2.296827e+01
1.801473e+02	-2.301714e+01
1.811878e+02	-2.306748e+01
1.822344e+02	-2.311803e+01
1.832870e+02	-2.316573e+01
1.843456e+02	-2.321640e+01
1.854104e+02	-2.326626e+01
1.864813e+02	-2.331393e+01
1.875584e+02	-2.336403e+01
1.886418e+02	-2.341536e+01
1.897313e+02	-2.346455e+01
1.908272e+02	-2.351296e+01
1.919294e+02	-2.356274e+01
1.930380e+02	-2.361105e+01
1.941530e+02	-2.366609e+01
1.952744e+02	-2.371312e+01
1.964023e+02	-2.376519e+01
1.975367e+02	-2.381471e+01
1.986777e+02	-2.386210e+01
1.998252e+02	-2.391187e+01
2.009794e+02	-2.396455e+01
2.021403e+02	-2.401277e+01
2.033078e+02	-2.406320e+01
2.044821e+02	-2.411169e+01
2.056632e+02	-2.415983e+01
2.068511e+02	-2.421185e+01
2.080459e+02	-2.426311e+01
2.092475e+02	-2.431348e+01
2.104561e+02	-2.436130e+01
2.116717e+02	-2.441175e+01
2.128943e+02	-2.446042e+01
2.141240e+02	-2.451171e+01
2.153608e+02	-2.456094e+01
2.166047e+02	-2.461380e+01
2.178558e+02	-2.466043e+01
2.191141e+02	-2.471113e+01
2.203797e+02	-2.476117e+01
2.216526e+02	-2.481314e+01
2.229329e+02	-2.485983e+01
2.242205e+02	-2.491054e+01
2.255156e+02	-2.496138e+01
2.268182e+02	-2.501028e+01
2.281283e+02	-2.506129e+01
2.294459e+02	-2.510920e+01
2.307712e+02	-2.515704e+01
2.321041e+02	-2.520899e+01
2.334447e+02	-2.525901e+01
2.347931e+02	-2.530972e+01
2.361493e+02	-2.536170e+01
2.375133e+02	-2.541171e+01
2.388851e+02	-2.545818e+01
2.402649e+02	-2.550974e+01
2.416527e+02	-2.555747e+01
2.430484e+02	-2.560933e+01
2.444523e+02	-2.565637e+01
2.458642e+02	-2.571095e+01
2.472843e+02	-2.576448e+01
2.487126e+02	-2.581133e+01
2.501492e+02	-2.585900e+01
2.515940e+02	-2.590760e+01
2.530472e+02	-2.595843e+01
2.545088e+02	-2.601042e+01
2.559789e+02	-2.605962e+01
2.574574e+02	-2.610658e+01
2.589444e+02	-2.615823e+01
2.604401e+02	-2.620799e+01
2.619444e+02	-2.625808e+01
2.634574e+02	-2.630713e+01
2.649791e+02	-2.635839e+01
2.665096e+02	-2.641243e+01
2.680489e+02	-2.645913e+01
2.695972e+02	-2.650748e+01
2.711544e+02	-2.655951e+01
2.727205e+02	-2.660529e+01
2.742958e+02	-2.665954e+01
2.758801e+02	-2.670824e+01
2.774736e+02	-2.675970e+01
2.790762e+02	-2.681007e+01
2.806882e+02	-2.685785e+01
2.823094e+02	-2.690910e+01
2.839400e+02	-2.695921e+01
2.855800e+02	-2.700896e+01
2.872295e+02	-2.706118e+01
2.888886e+02	-2.710863e+01
2.905572e+02	-2.715958e+01
2.922354e+02	-2.721096e+01
2.939234e+02	-2.726002e+01
2.956211e+02	-2.730958e+01
2.973286e+02	-2.736134e+01
2.990459e+02	-2.741054e+01
3.007732e+02	-2.746440e+01
3.025104e+02	-2.750510e+01
3.042577e+02	-2.755784e+01
3.060151e+02	-2.760772e+01
3.077826e+02	-2.765895e+01
3.095604e+02	-2.771406e+01
3.113484e+02	-2.775820e+01
3.131467e+02	-2.781009e+01
3.149554e+02	-2.785928e+01
3.167746e+02	-2.791306e+01
3.186043e+02	-2.795784e+01
3.204445e+02	-2.800898e+01
3.222954e+02	-2.806105e+01
3.241570e+02	-2.811073e+01
3.260293e+02	-2.816070e+01
3.279124e+02	-2.821280e+01
3.298064e+02	-2.826214e+01
3.317114e+02	-2.831006e+01
3.336273e+02	-2.835793e+01
3.355544e+02	-2.840868e+01
3.374925e+02	-2.845939e+01
3.394418e+02	-2.850935e+01
3.414024e+02	-2.856002e+01
3.433744e+02	-2.860840e+01
3.453577e+02	-2.866124e+01
3.473525e+02	-2.871153e+01
3.493588e+02	-2.876408e+01
3.513766e+02	-2.880494e+01
3.534062e+02	-2.885335e+01
3.554474e+02	-2.890619e+01
3.575005e+02	-2.895309e+01
3.595654e+02	-2.900862e+01
3.616422e+02	-2.905867e+01
3.637311e+02	-2.911055e+01
3.658320e+02	-2.915843e+01
3.679450e+02	-2.921477e+01
3.700702e+02	-2.926196e+01
3.722077e+02	-2.931040e+01
3.743576e+02	-2.935744e+01
3.765199e+02	-2.941234e+01
3.786946e+02	-2.946262e+01
3.808820e+02	-2.951029e+01
3.830819e+02	-2.955831e+01
3.852946e+02	-2.961572e+01
3.875200e+02	-2.966364e+01
3.897583e+02	-2.971830e+01
3.920096e+02	-2.975848e+01
3.942738e+02	-2.981239e+01
3.965511e+02	-2.986817e+01
3.988416e+02	-2.991197e+01
4.011452e+02	-2.996303e+01
4.034622e+02	-3.000743e+01
4.057926e+02	-3.006355e+01
4.081365e+02	-3.011144e+01
4.104938e+02	-3.015892e+01
4.128648e+02	-3.020558e+01
4.152495e+02	-3.026678e+01
4.176480e+02	-3.031718e+01
4.200603e+02	-3.036456e+01
4.224866e+02	-3.041808e+01
4.249268e+02	-3.046028e+01
4.273812e+02	-3.051692e+01
4.298497e+02	-3.056412e+01
4.323325e+02	-3.061333e+01
4.348297e+02	-3.065904e+01
4.373412e+02	-3.071536e+01
4.398673e+02	-3.076233e+01
4.424079e+02	-3.081151e+01
4.449633e+02	-3.086006e+01
4.475334e+02	-3.091422e+01
4.501183e+02	-3.096590e+01
4.527182e+02	-3.101303e+01
4.553330e+02	-3.106351e+01
4.579630e+02	-3.111639e+01
4.606082e+02	-3.116394e+01
4.632687e+02	-3.121665e+01
4.659445e+02	-3.126256e+01
4.686358e+02	-3.131474e+01
4.713426e+02	-3.135923e+01
4.740650e+02	-3.141624e+01
4.768032e+02	-3.146778e+01
4.795572e+02	-3.151854e+01
4.823271e+02	-3.155849e+01
4.851130e+02	-3.161919e+01
4.879150e+02	-3.167156e+01
4.907332e+02	-3.171370e+01
4.935676e+02	-3.176399e+01
4.964185e+02	-3.181891e+01
4.992858e+02	-3.186181e+01
5.021696e+02	-3.191973e+01
5.050701e+02	-3.196621e+01
5.079874e+02	-3.201407e+01
5.109215e+02	-3.206637e+01
5.138726e+02	-3.211538e+01
5.168407e+02	-3.216798e+01
5.198259e+02	-3.221308e+01
5.228284e+02	-3.227012e+01
5.258482e+02	-3.232061e+01
5.288855e+02	-3.237903e+01
5.319403e+02	-3.241665e+01
5.350128e+02	-3.247599e+01
5.381030e+02	-3.251615e+01
5.412111e+02	-3.257634e+01
5.443371e+02	-3.262241e+01
5.474812e+02	-3.266717e+01
5.506434e+02	-3.272399e+01
5.538239e+02	-3.277184e+01
5.570228e+02	-3.282198e+01
5.602401e+02	-3.287822e+01
5.634760e+02	-3.292298e+01
5.667306e+02	-3.297181e+01
5.700040e+02	-3.302302e+01
5.732964e+02	-3.307959e+01
5.766077e+02	-3.312249e+01
5.799382e+02	-3.316858e+01
5.832879e+02	-3.322166e+01
5.866569e+02	-3.327093e+01
5.900454e+02	-3.332207e+01
5.934535e+02	-3.337554e+01
5.968813e+02	-3.342752e+01
6.003288e+02	-3.347242e+01
6.037963e+02	-3.352778e+01
6.072838e+02	-3.357918e+01
6.107914e+02	-3.362972e+01
6.143194e+02	-3.367715e+01
6.178676e+02	-3.372278e+01
6.214364e+02	-3.377513e+01
6.250258e+02	-3.381887e+01
6.286359e+02	-3.387736e+01
6.322669e+02	-3.392977e+01
6.359189e+02	-3.398117e+01
6.395919e+02	-3.403179e+01
6.432862e+02	-3.407612e+01
6.470017e+02	-3.412990e+01
6.507388e+02	-3.417522e+01
6.544974e+02	-3.423618e+01
6.582778e+02	-3.428360e+01
6.620800e+02	-3.432294e+01
6.659041e+02	-3.437421e+01
6.697504e+02	-3.442725e+01
6.736188e+02	-3.448478e+01
6.775096e+02	-3.453465e+01
6.814229e+02	-3.458073e+01
6.853587e+02	-3.463483e+01
6.893173e+02	-3.467882e+01
6.932988e+02	-3.473274e+01
6.973033e+02	-3.478616e+01
7.013309e+02	-3.483820e+01
