Frequency(Hz)	Magnitude(dB)
1.000000e+01	-1.793614e-05
1.005776e+01	-1.814394e-05
1.011585e+01	-1.835414e-05
1.017428e+01	-1.856678e-05
1.023305e+01	-1.878188e-05
1.029215e+01	-1.899947e-05
1.035160e+01	-1.921958e-05
1.041139e+01	-1.944225e-05
1.047153e+01	-1.966749e-05
1.053201e+01	-1.989534e-05
1.059284e+01	-2.012584e-05
1.065403e+01	-2.035900e-05
1.071556e+01	-2.059486e-05
1.077746e+01	-2.083346e-05
1.083971e+01	-2.107482e-05
1.090232e+01	-2.131898e-05
1.096529e+01	-2.156596e-05
1.102862e+01	-2.181581e-05
1.109232e+01	-2.206855e-05
1.115639e+01	-2.232422e-05
1.122083e+01	-2.258285e-05
1.128564e+01	-2.284448e-05
1.135083e+01	-2.310914e-05
1.141639e+01	-2.337687e-05
1.148233e+01	-2.364769e-05
1.154865e+01	-2.392166e-05
1.161536e+01	-2.419879e-05
1.168245e+01	-2.447914e-05
1.174992e+01	-2.476274e-05
1.181779e+01	-2.504962e-05
1.188605e+01	-2.533983e-05
1.195470e+01	-2.563340e-05
1.202375e+01	-2.593037e-05
1.209320e+01	-2.623078e-05
1.216305e+01	-2.653467e-05
1.223330e+01	-2.684208e-05
1.230396e+01	-2.715305e-05
1.237503e+01	-2.746762e-05
1.244651e+01	-2.778584e-05
1.251840e+01	-2.810775e-05
1.259070e+01	-2.843338e-05
1.266343e+01	-2.876279e-05
1.273657e+01	-2.909602e-05
1.281014e+01	-2.943310e-05
1.288413e+01	-2.977409e-05
1.295855e+01	-3.011903e-05
1.303339e+01	-3.046797e-05
1.310867e+01	-3.082094e-05
1.318439e+01	-3.117801e-05
1.326054e+01	-3.153922e-05
1.333713e+01	-3.190461e-05
1.341417e+01	-3.227423e-05
1.349165e+01	-3.264813e-05
1.356958e+01	-3.302637e-05
1.364795e+01	-3.340899e-05
1.372678e+01	-3.379604e-05
1.380607e+01	-3.418757e-05
1.388581e+01	-3.458364e-05
1.396602e+01	-3.498430e-05
1.404668e+01	-3.538961e-05
1.412782e+01	-3.579960e-05
1.420942e+01	-3.621435e-05
1.429149e+01	-3.663390e-05
1.437404e+01	-3.705831e-05
1.445706e+01	-3.748764e-05
1.454057e+01	-3.792194e-05
1.462455e+01	-3.836128e-05
1.470902e+01	-3.880570e-05
1.479398e+01	-3.925528e-05
1.487943e+01	-3.971006e-05
1.496537e+01	-4.017011e-05
1.505181e+01	-4.063549e-05
1.513875e+01	-4.110626e-05
1.522619e+01	-4.158248e-05
1.531414e+01	-4.206423e-05
1.540259e+01	-4.255155e-05
1.549156e+01	-4.304452e-05
1.558103e+01	-4.354320e-05
1.567103e+01	-4.404766e-05
1.576155e+01	-4.455796e-05
1.585258e+01	-4.507417e-05
1.594415e+01	-4.559637e-05
1.603624e+01	-4.612461e-05
1.612886e+01	-4.665897e-05
1.622202e+01	-4.719953e-05
1.631572e+01	-4.774634e-05
1.640996e+01	-4.829950e-05
1.650474e+01	-4.885906e-05
1.660008e+01	-4.942510e-05
1.669596e+01	-4.999770e-05
1.679239e+01	-5.057693e-05
1.688938e+01	-5.116288e-05
1.698694e+01	-5.175561e-05
1.708505e+01	-5.235521e-05
1.718373e+01	-5.296176e-05
1.728299e+01	-5.357533e-05
1.738281e+01	-5.419601e-05
1.748322e+01	-5.482388e-05
1.758420e+01	-5.545903e-05
1.768576e+01	-5.610153e-05
1.778792e+01	-5.675148e-05
1.789066e+01	-5.740896e-05
1.799399e+01	-5.807405e-05
1.809793e+01	-5.874685e-05
1.820246e+01	-5.942745e-05
1.830760e+01	-6.011592e-05
1.841334e+01	-6.081238e-05
1.851969e+01	-6.151690e-05
1.862666e+01	-6.222959e-05
1.873425e+01	-6.295053e-05
1.884246e+01	-6.367982e-05
1.895129e+01	-6.441757e-05
1.906075e+01	-6.516386e-05
1.917085e+01	-6.591879e-05
1.928158e+01	-6.668248e-05
1.939295e+01	-6.745500e-05
1.950496e+01	-6.823648e-05
1.961762e+01	-6.902702e-05
1.973093e+01	-6.982671e-05
1.984490e+01	-7.063566e-05
1.995952e+01	-7.145399e-05
2.007480e+01	-7.228180e-05
2.019076e+01	-7.311919e-05
2.030738e+01	-7.396629e-05
2.042467e+01	-7.482321e-05
2.054264e+01	-7.569005e-05
2.066130e+01	-7.656693e-05
2.078064e+01	-7.745397e-05
2.090066e+01	-7.835129e-05
2.102139e+01	-7.925900e-05
2.114280e+01	-8.017723e-05
2.126492e+01	-8.110610e-05
2.138775e+01	-8.204573e-05
2.151128e+01	-8.299624e-05
2.163553e+01	-8.395776e-05
2.176050e+01	-8.493043e-05
2.188619e+01	-8.591436e-05
2.201260e+01	-8.690969e-05
2.213974e+01	-8.791656e-05
2.226762e+01	-8.893508e-05
2.239624e+01	-8.996541e-05
2.252560e+01	-9.100768e-05
2.265571e+01	-9.206201e-05
2.278656e+01	-9.312857e-05
2.291818e+01	-9.420748e-05
2.305055e+01	-9.529888e-05
2.318369e+01	-9.640294e-05
2.331760e+01	-9.751978e-05
2.345228e+01	-9.864956e-05
2.358774e+01	-9.979243e-05
2.372398e+01	-1.009485e-04
2.386101e+01	-1.021180e-04
2.399883e+01	-1.033011e-04
2.413745e+01	-1.044979e-04
2.427686e+01	-1.057085e-04
2.441709e+01	-1.069331e-04
2.455812e+01	-1.081720e-04
2.469997e+01	-1.094251e-04
2.484263e+01	-1.106928e-04
2.498612e+01	-1.119752e-04
2.513044e+01	-1.132725e-04
2.527559e+01	-1.145848e-04
2.542158e+01	-1.159122e-04
2.556842e+01	-1.172551e-04
2.571610e+01	-1.186135e-04
2.586463e+01	-1.199877e-04
2.601403e+01	-1.213777e-04
2.616428e+01	-1.227839e-04
2.631541e+01	-1.242064e-04
2.646740e+01	-1.256453e-04
2.662028e+01	-1.271009e-04
2.677404e+01	-1.285734e-04
2.692868e+01	-1.300629e-04
2.708422e+01	-1.315697e-04
2.724066e+01	-1.330940e-04
2.739800e+01	-1.346359e-04
2.755625e+01	-1.361957e-04
2.771541e+01	-1.377735e-04
2.787550e+01	-1.393696e-04
2.803650e+01	-1.409842e-04
2.819844e+01	-1.426176e-04
2.836131e+01	-1.442698e-04
2.852513e+01	-1.459412e-04
2.868989e+01	-1.476319e-04
2.885560e+01	-1.493422e-04
2.902227e+01	-1.510724e-04
2.918990e+01	-1.528226e-04
2.935850e+01	-1.545930e-04
2.952807e+01	-1.563840e-04
2.969863e+01	-1.581957e-04
2.987016e+01	-1.600284e-04
3.004269e+01	-1.618824e-04
3.021622e+01	-1.637578e-04
3.039075e+01	-1.656549e-04
3.056628e+01	-1.675740e-04
3.074283e+01	-1.695154e-04
3.092040e+01	-1.714792e-04
3.109900e+01	-1.734658e-04
3.127862e+01	-1.754754e-04
3.145929e+01	-1.775083e-04
3.164099e+01	-1.795648e-04
3.182375e+01	-1.816450e-04
3.200756e+01	-1.837494e-04
3.219244e+01	-1.858781e-04
3.237838e+01	-1.880315e-04
3.256540e+01	-1.902099e-04
3.275349e+01	-1.924135e-04
3.294268e+01	-1.946426e-04
3.313295e+01	-1.968975e-04
3.332433e+01	-1.991786e-04
3.351681e+01	-2.014861e-04
3.371040e+01	-2.038203e-04
3.390511e+01	-2.061816e-04
3.410094e+01	-2.085702e-04
3.429791e+01	-2.109865e-04
3.449601e+01	-2.134307e-04
3.469526e+01	-2.159033e-04
3.489566e+01	-2.184046e-04
3.509721e+01	-2.209348e-04
3.529993e+01	-2.234943e-04
3.550382e+01	-2.260835e-04
3.570889e+01	-2.287027e-04
3.591515e+01	-2.313522e-04
3.612259e+01	-2.340324e-04
3.633123e+01	-2.367436e-04
3.654108e+01	-2.394863e-04
3.675214e+01	-2.422607e-04
3.696442e+01	-2.450673e-04
3.717792e+01	-2.479064e-04
3.739266e+01	-2.507784e-04
3.760864e+01	-2.536836e-04
3.782587e+01	-2.566225e-04
3.804435e+01	-2.595955e-04
3.826409e+01	-2.626029e-04
3.848510e+01	-2.656451e-04
3.870739e+01	-2.687226e-04
3.893096e+01	-2.718357e-04
3.915583e+01	-2.749849e-04
3.938199e+01	-2.781706e-04
3.960946e+01	-2.813932e-04
3.983824e+01	-2.846531e-04
4.006834e+01	-2.879508e-04
4.029978e+01	-2.912866e-04
4.053255e+01	-2.946612e-04
4.076666e+01	-2.980748e-04
4.100213e+01	-3.015279e-04
4.123896e+01	-3.050211e-04
4.147715e+01	-3.085547e-04
4.171672e+01	-3.121293e-04
4.195767e+01	-3.157453e-04
4.220002e+01	-3.194031e-04
4.244377e+01	-3.231034e-04
4.268892e+01	-3.268465e-04
4.293549e+01	-3.306329e-04
4.318348e+01	-3.344633e-04
4.343291e+01	-3.383380e-04
4.368377e+01	-3.422575e-04
4.393609e+01	-3.462225e-04
4.418986e+01	-3.502335e-04
4.444510e+01	-3.542908e-04
4.470182e+01	-3.583952e-04
4.496001e+01	-3.625472e-04
4.521970e+01	-3.667472e-04
4.548089e+01	-3.709959e-04
4.574358e+01	-3.752938e-04
4.600779e+01	-3.796415e-04
4.627353e+01	-3.840395e-04
4.654081e+01	-3.884885e-04
4.680963e+01	-3.929891e-04
4.708000e+01	-3.975418e-04
4.735193e+01	-4.021472e-04
4.762543e+01	-4.068060e-04
4.790051e+01	-4.115187e-04
4.817719e+01	-4.162860e-04
4.845545e+01	-4.211086e-04
4.873533e+01	-4.259870e-04
4.901682e+01	-4.309219e-04
4.929994e+01	-4.359140e-04
4.958470e+01	-4.409640e-04
4.987110e+01	-4.460724e-04
5.015915e+01	-4.512400e-04
5.044887e+01	-4.564675e-04
5.074026e+01	-4.617555e-04
5.103333e+01	-4.671048e-04
5.132810e+01	-4.725160e-04
5.162457e+01	-4.779899e-04
5.192275e+01	-4.835273e-04
5.222265e+01	-4.891287e-04
5.252429e+01	-4.947951e-04
5.282767e+01	-5.005271e-04
5.313280e+01	-5.063255e-04
5.343969e+01	-5.121911e-04
5.374836e+01	-5.181246e-04
5.405880e+01	-5.241269e-04
5.437105e+01	-5.301987e-04
5.468509e+01	-5.363408e-04
5.500095e+01	-5.425540e-04
5.531863e+01	-5.488393e-04
5.563815e+01	-5.551973e-04
5.595951e+01	-5.616290e-04
5.628273e+01	-5.681352e-04
5.660782e+01	-5.747168e-04
5.693479e+01	-5.813746e-04
5.726364e+01	-5.881095e-04
5.759439e+01	-5.949225e-04
5.792705e+01	-6.018143e-04
5.826164e+01	-6.087860e-04
5.859815e+01	-6.158385e-04
5.893662e+01	-6.229726e-04
5.927703e+01	-6.301894e-04
5.961941e+01	-6.374898e-04
5.996377e+01	-6.448748e-04
6.031012e+01	-6.523453e-04
6.065847e+01	-6.599023e-04
6.100883e+01	-6.675468e-04
6.136121e+01	-6.752800e-04
6.171563e+01	-6.831026e-04
6.207210e+01	-6.910159e-04
6.243063e+01	-6.990209e-04
6.279122e+01	-7.071186e-04
6.315390e+01	-7.153101e-04
6.351868e+01	-7.235965e-04
6.388556e+01	-7.319788e-04
6.425456e+01	-7.404583e-04
6.462569e+01	-7.490359e-04
6.499897e+01	-7.577130e-04
6.537440e+01	-7.664905e-04
6.575200e+01	-7.753697e-04
6.613178e+01	-7.843518e-04
6.651375e+01	-7.934379e-04
6.689793e+01	-8.026292e-04
6.728433e+01	-8.119270e-04
6.767297e+01	-8.213325e-04
6.806384e+01	-8.308470e-04
6.845698e+01	-8.404717e-04
6.885238e+01	-8.502078e-04
6.925007e+01	-8.600567e-04
6.965005e+01	-8.700197e-04
7.005235e+01	-8.800981e-04
7.045697e+01	-8.902932e-04
7.086393e+01	-9.006065e-04
7.127323e+01	-9.110391e-04
7.168490e+01	-9.215927e-04
7.209895e+01	-9.322684e-04
7.251539e+01	-9.430678e-04
7.293424e+01	-9.539923e-04
7.335551e+01	-9.650434e-04
7.377920e+01	-9.762224e-04
7.420535e+01	-9.875309e-04
7.463396e+01	-9.989704e-04
7.506504e+01	-1.010542e-03
7.549861e+01	-1.022248e-03
7.593469e+01	-1.034090e-03
7.637328e+01	-1.046069e-03
7.681441e+01	-1.058186e-03
7.725809e+01	-1.070444e-03
7.770433e+01	-1.082844e-03
7.815315e+01	-1.095388e-03
7.860456e+01	-1.108076e-03
7.905857e+01	-1.120912e-03
7.951521e+01	-1.133896e-03
7.997449e+01	-1.147031e-03
8.043642e+01	-1.160318e-03
8.090102e+01	-1.173759e-03
8.136830e+01	-1.187355e-03
8.183828e+01	-1.201109e-03
8.231097e+01	-1.215022e-03
8.278640e+01	-1.229097e-03
8.326457e+01	-1.243334e-03
8.374550e+01	-1.257736e-03
8.422921e+01	-1.272305e-03
8.471572e+01	-1.287043e-03
8.520503e+01	-1.301952e-03
8.569717e+01	-1.317033e-03
8.619215e+01	-1.332289e-03
8.669000e+01	-1.347721e-03
8.719071e+01	-1.363333e-03
8.769432e+01	-1.379125e-03
8.820084e+01	-1.395100e-03
8.871029e+01	-1.411260e-03
8.922267e+01	-1.427607e-03
8.973802e+01	-1.444143e-03
9.025634e+01	-1.460871e-03
9.077766e+01	-1.477793e-03
9.130199e+01	-1.494911e-03
9.182935e+01	-1.512227e-03
9.235975e+01	-1.529743e-03
9.289321e+01	-1.547462e-03
9.342976e+01	-1.565387e-03
9.396941e+01	-1.583519e-03
9.451217e+01	-1.601861e-03
9.505807e+01	-1.620416e-03
9.560712e+01	-1.639185e-03
9.615934e+01	-1.658172e-03
9.671476e+01	-1.677378e-03
9.727338e+01	-1.696808e-03
9.783522e+01	-1.716462e-03
9.840032e+01	-1.736343e-03
9.896867e+01	-1.756455e-03
9.954031e+01	-1.776800e-03
1.001153e+02	-1.797381e-03
1.006935e+02	-1.818199e-03
1.012751e+02	-1.839259e-03
1.018601e+02	-1.860563e-03
1.024484e+02	-1.882113e-03
1.030402e+02	-1.903913e-03
1.036353e+02	-1.925966e-03
1.042339e+02	-1.948274e-03
1.048360e+02	-1.970840e-03
1.054415e+02	-1.993667e-03
1.060505e+02	-2.016759e-03
1.066631e+02	-2.040118e-03
1.072791e+02	-2.063748e-03
1.078988e+02	-2.087651e-03
1.085220e+02	-2.111831e-03
1.091488e+02	-2.136291e-03
1.097793e+02	-2.161035e-03
1.104133e+02	-2.186065e-03
1.110511e+02	-2.211384e-03
1.116925e+02	-2.236997e-03
1.123376e+02	-2.262907e-03
1.129865e+02	-2.289116e-03
1.136391e+02	-2.315629e-03
1.142955e+02	-2.342449e-03
1.149556e+02	-2.369579e-03
1.156196e+02	-2.397024e-03
1.162874e+02	-2.424787e-03
1.169591e+02	-2.452870e-03
1.176347e+02	-2.481279e-03
1.183141e+02	-2.510017e-03
1.189975e+02	-2.539088e-03
1.196848e+02	-2.568495e-03
1.203761e+02	-2.598243e-03
1.210714e+02	-2.628335e-03
1.217707e+02	-2.658776e-03
1.224740e+02	-2.689569e-03
1.231814e+02	-2.720719e-03
1.238929e+02	-2.752229e-03
1.246085e+02	-2.784104e-03
1.253283e+02	-2.816348e-03
1.260522e+02	-2.848966e-03
1.267802e+02	-2.881961e-03
1.275125e+02	-2.915338e-03
1.282490e+02	-2.949101e-03
1.289898e+02	-2.983255e-03
1.297348e+02	-3.017805e-03
1.304842e+02	-3.052755e-03
1.312378e+02	-3.088109e-03
1.319959e+02	-3.123873e-03
1.327583e+02	-3.160051e-03
1.335251e+02	-3.196647e-03
1.342963e+02	-3.233667e-03
1.350720e+02	-3.271116e-03
1.358522e+02	-3.308998e-03
1.366368e+02	-3.347319e-03
1.374260e+02	-3.386084e-03
1.382198e+02	-3.425297e-03
1.390182e+02	-3.464964e-03
1.398211e+02	-3.505090e-03
1.406287e+02	-3.545681e-03
1.414410e+02	-3.586742e-03
1.422579e+02	-3.628278e-03
1.430796e+02	-3.670294e-03
1.439060e+02	-3.712798e-03
1.447372e+02	-3.755793e-03
1.455732e+02	-3.799285e-03
1.464141e+02	-3.843282e-03
1.472597e+02	-3.887787e-03
1.481103e+02	-3.932808e-03
1.489658e+02	-3.978349e-03
1.498262e+02	-4.024418e-03
1.506916e+02	-4.071020e-03
1.515620e+02	-4.118162e-03
1.524374e+02	-4.165849e-03
1.533179e+02	-4.214088e-03
1.542034e+02	-4.262885e-03
1.550941e+02	-4.312247e-03
1.559899e+02	-4.362180e-03
1.568909e+02	-4.412692e-03
1.577971e+02	-4.463788e-03
1.587085e+02	-4.515475e-03
1.596252e+02	-4.567760e-03
1.605472e+02	-4.620651e-03
1.614745e+02	-4.674153e-03
1.624072e+02	-4.728275e-03
1.633453e+02	-4.783023e-03
1.642887e+02	-4.838405e-03
1.652377e+02	-4.894427e-03
1.661921e+02	-4.951098e-03
1.671520e+02	-5.008425e-03
1.681175e+02	-5.066415e-03
1.690885e+02	-5.125076e-03
1.700651e+02	-5.184415e-03
1.710474e+02	-5.244442e-03
1.720354e+02	-5.305163e-03
1.730291e+02	-5.366586e-03
1.740285e+02	-5.428721e-03
1.750337e+02	-5.491574e-03
1.760446e+02	-5.555155e-03
1.770615e+02	-5.619471e-03
1.780842e+02	-5.684531e-03
1.791128e+02	-5.750344e-03
1.801473e+02	-5.816919e-03
1.811878e+02	-5.884263e-03
1.822344e+02	-5.952387e-03
1.832870e+02	-6.021299e-03
1.843456e+02	-6.091008e-03
1.854104e+02	-6.161524e-03
1.864813e+02	-6.232856e-03
1.875584e+02	-6.305012e-03
1.886418e+02	-6.378004e-03
1.897313e+02	-6.451840e-03
1.908272e+02	-6.526529e-03
1.919294e+02	-6.602083e-03
1.930380e+02	-6.678511e-03
1.941530e+02	-6.755823e-03
1.952744e+02	-6.834029e-03
1.964023e+02	-6.913140e-03
1.975367e+02	-6.993166e-03
1.986777e+02	-7.074117e-03
1.998252e+02	-7.156005e-03
2.009794e+02	-7.238840e-03
2.021403e+02	-7.322633e-03
2.033078e+02	-7.407395e-03
2.044821e+02	-7.493137e-03
2.056632e+02	-7.579871e-03
2.068511e+02	-7.667608e-03
2.080459e+02	-7.756360e-03
2.092475e+02	-7.846138e-03
2.104561e+02	-7.936954e-03
2.116717e+02	-8.028821e-03
2.128943e+02	-8.121749e-03
2.141240e+02	-8.215753e-03
2.153608e+02	-8.310843e-03
2.166047e+02	-8.407033e-03
2.178558e+02	-8.504335e-03
2.191141e+02	-8.602762e-03
2.203797e+02	-8.702327e-03
2.216526e+02	-8.803043e-03
2.229329e+02	-8.904923e-03
2.242205e+02	-9.007982e-03
2.255156e+02	-9.112232e-03
2.268182e+02	-9.217687e-03
2.281283e+02	-9.324361e-03
2.294459e+02	-9.432269e-03
2.307712e+02	-9.541424e-03
2.321041e+02	-9.651840e-03
2.334447e+02	-9.763533e-03
2.347931e+02	-9.876517e-03
2.361493e+02	-9.990807e-03
2.375133e+02	-1.010642e-02
2.388851e+02	-1.022337e-02
2.402649e+02	-1.034166e-02
2.416527e+02	-1.046133e-02
2.430484e+02	-1.058238e-02
2.444523e+02	-1.070483e-02
2.458642e+02	-1.082869e-02
2.472843e+02	-1.095398e-02
2.487126e+02	-1.108073e-02
2.501492e+02	-1.120893e-02
2.515940e+02	-1.133862e-02
2.530472e+02	-1.146981e-02
2.545088e+02	-1.160251e-02
2.559789e+02	-1.173675e-02
2.574574e+02	-1.187253e-02
2.589444e+02	-1.200989e-02
2.604401e+02	-1.214883e-02
2.619444e+02	-1.228938e-02
2.634574e+02	-1.243155e-02
2.649791e+02	-1.257536e-02
2.665096e+02	-1.272084e-02
2.680489e+02	-1.286799e-02
2.695972e+02	-1.301685e-02
2.711544e+02	-1.316742e-02
2.727205e+02	-1.331974e-02
2.742958e+02	-1.347381e-02
2.758801e+02	-1.362966e-02
2.774736e+02	-1.378731e-02
2.790762e+02	-1.394678e-02
2.806882e+02	-1.410810e-02
2.823094e+02	-1.427127e-02
2.839400e+02	-1.443633e-02
2.855800e+02	-1.460330e-02
2.872295e+02	-1.477220e-02
2.888886e+02	-1.494304e-02
2.905572e+02	-1.511586e-02
2.922354e+02	-1.529067e-02
2.939234e+02	-1.546750e-02
2.956211e+02	-1.564637e-02
2.973286e+02	-1.582730e-02
2.990459e+02	-1.601033e-02
3.007732e+02	-1.619547e-02
3.025104e+02	-1.638274e-02
3.042577e+02	-1.657217e-02
3.060151e+02	-1.676379e-02
3.077826e+02	-1.695763e-02
3.095604e+02	-1.715370e-02
3.113484e+02	-1.735203e-02
3.131467e+02	-1.755265e-02
3.149554e+02	-1.775558e-02
3.167746e+02	-1.796086e-02
3.186043e+02	-1.816850e-02
3.204445e+02	-1.837854e-02
3.222954e+02	-1.859101e-02
3.241570e+02	-1.880592e-02
3.260293e+02	-1.902331e-02
3.279124e+02	-1.924321e-02
3.298064e+02	-1.946565e-02
3.317114e+02	-1.969065e-02
3.336273e+02	-1.991825e-02
3.355544e+02	-2.014847e-02
3.374925e+02	-2.038134e-02
3.394418e+02	-2.061690e-02
3.414024e+02	-2.085518e-02
3.433744e+02	-2.109620e-02
3.453577e+02	-2.134001e-02
3.473525e+02	-2.158662e-02
3.493588e+02	-2.183608e-02
3.513766e+02	-2.208841e-02
3.534062e+02	-2.234365e-02
3.554474e+02	-2.260183e-02
3.575005e+02	-2.286298e-02
3.595654e+02	-2.312715e-02
3.616422e+02	-2.339436e-02
3.637311e+02	-2.366465e-02
3.658320e+02	-2.393805e-02
3.679450e+02	-2.421460e-02
3.700702e+02	-2.449434e-02
3.722077e+02	-2.477730e-02
3.743576e+02	-2.506352e-02
3.765199e+02	-2.535304e-02
3.786946e+02	-2.564589e-02
3.808820e+02	-2.594212e-02
3.830819e+02	-2.624175e-02
3.852946e+02	-2.654484e-02
3.875200e+02	-2.685141e-02
3.897583e+02	-2.716152e-02
3.920096e+02	-2.747519e-02
3.942738e+02	-2.779248e-02
3.965511e+02	-2.811342e-02
3.988416e+02	-2.843805e-02
4.011452e+02	-2.876642e-02
4.034622e+02	-2.909856e-02
4.057926e+02	-2.943453e-02
4.081365e+02	-2.977436e-02
4.104938e+02	-3.011811e-02
4.128648e+02	-3.046581e-02
4.152495e+02	-3.081751e-02
4.176480e+02	-3.117325e-02
4.200603e+02	-3.153308e-02
4.224866e+02	-3.189706e-02
4.249268e+02	-3.226522e-02
4.273812e+02	-3.263761e-02
4.298497e+02	-3.301428e-02
4.323325e+02	-3.339529e-02
4.348297e+02	-3.378067e-02
4.373412e+02	-3.417049e-02
4.398673e+02	-3.456478e-02
4.424079e+02	-3.496361e-02
4.449633e+02	-3.536702e-02
4.475334e+02	-3.577506e-02
4.501183e+02	-3.618779e-02
4.527182e+02	-3.660526e-02
4.553330e+02	-3.702753e-02
4.579630e+02	-3.745465e-02
4.606082e+02	-3.788668e-02
4.632687e+02	-3.832366e-02
4.659445e+02	-3.876567e-02
4.686358e+02	-3.921274e-02
4.713426e+02	-3.966495e-02
4.740650e+02	-4.012236e-02
4.768032e+02	-4.058501e-02
4.795572e+02	-4.105297e-02
4.823271e+02	-4.152630e-02
4.851130e+02	-4.200506e-02
4.879150e+02	-4.248931e-02
4.907332e+02	-4.297912e-02
4.935676e+02	-4.347455e-02
4.964185e+02	-4.397566e-02
4.992858e+02	-4.448251e-02
5.021696e+02	-4.499518e-02
5.050701e+02	-4.551372e-02
5.079874e+02	-4.603821e-02
5.109215e+02	-4.656871e-02
5.138726e+02	-4.710529e-02
5.168407e+02	-4.764802e-02
5.198259e+02	-4.819696e-02
5.228284e+02	-4.875220e-02
5.258482e+02	-4.931379e-02
5.288855e+02	-4.988182e-02
5.319403e+02	-5.045635e-02
5.350128e+02	-5.103746e-02
5.381030e+02	-5.162522e-02
5.412111e+02	-5.221971e-02
5.443371e+02	-5.282101e-02
5.474812e+02	-5.342918e-02
5.506434e+02	-5.404432e-02
5.538239e+02	-5.466649e-02
5.570228e+02	-5.529578e-02
5.602401e+02	-5.593226e-02
5.634760e+02	-5.657602e-02
5.667306e+02	-5.722715e-02
5.700040e+02	-5.788572e-02
5.732964e+02	-5.855181e-02
5.766077e+02	-5.922552e-02
5.799382e+02	-5.990693e-02
5.832879e+02	-6.059612e-02
5.866569e+02	-6.129318e-02
5.900454e+02	-6.199821e-02
5.934535e+02	-6.271128e-02
5.968813e+02	-6.343250e-02
6.003288e+02	-6.416195e-02
6.037963e+02	-6.489972e-02
6.072838e+02	-6.564592e-02
6.107914e+02	-6.640063e-02
6.143194e+02	-6.716394e-02
6.178676e+02	-6.793597e-02
6.214364e+02	-6.871679e-02
6.250258e+02	-6.950652e-02
6.286359e+02	-7.030525e-02
6.322669e+02	-7.111309e-02
6.359189e+02	-7.193013e-02
6.395919e+02	-7.275648e-02
6.432862e+02	-7.359224e-02
6.470017e+02	-7.443752e-02
6.507388e+02	-7.529242e-02
6.544974e+02	-7.615706e-02
6.582778e+02	-7.703153e-02
6.620800e+02	-7.791596e-02
6.659041e+02	-7.881045e-02
6.697504e+02	-7.971511e-02
6.736188e+02	-8.063007e-02
6.775096e+02	-8.155542e-02
6.814229e+02	-8.249129e-02
6.853587e+02	-8.343780e-02
6.893173e+02	-8.439507e-02
6.932988e+02	-8.536321e-02
6.973033e+02	-8.634234e-02
7.013309e+02	-8.733259e-02
