Frequency(Hz)	Magnitude(dB)
1.000000e+01	-2.302487e+00
1.005776e+01	-2.323025e+00
1.011585e+01	-2.343808e+00
1.017428e+01	-2.364895e+00
1.023305e+01	-2.385922e+00
1.029215e+01	-2.407091e+00
1.035160e+01	-2.428338e+00
1.041139e+01	-2.449916e+00
1.047153e+01	-2.471740e+00
1.053201e+01	-2.493507e+00
1.059284e+01	-2.515319e+00
1.065403e+01	-2.537388e+00
1.071556e+01	-2.559521e+00
1.077746e+01	-2.581834e+00
1.083971e+01	-2.604456e+00
1.090232e+01	-2.627141e+00
1.096529e+01	-2.649661e+00
1.102862e+01	-2.672705e+00
1.109232e+01	-2.695854e+00
1.115639e+01	-2.719060e+00
1.122083e+01	-2.742484e+00
1.128564e+01	-2.765827e+00
1.135083e+01	-2.789516e+00
1.141639e+01	-2.813430e+00
1.148233e+01	-2.837099e+00
1.154865e+01	-2.861248e+00
1.161536e+01	-2.885440e+00
1.168245e+01	-2.909886e+00
1.174992e+01	-2.934368e+00
1.181779e+01	-2.958914e+00
1.188605e+01	-2.983767e+00
1.195470e+01	-3.008623e+00
1.202375e+01	-3.033689e+00
1.209320e+01	-3.059119e+00
1.216305e+01	-3.084456e+00
1.223330e+01	-3.109986e+00
1.230396e+01	-3.135483e+00
1.237503e+01	-3.161273e+00
1.244651e+01	-3.187272e+00
1.251840e+01	-3.213449e+00
1.259070e+01	-3.239654e+00
1.266343e+01	-3.266079e+00
1.273657e+01	-3.292539e+00
1.281014e+01	-3.319127e+00
1.288413e+01	-3.345860e+00
1.295855e+01	-3.372986e+00
1.303339e+01	-3.399878e+00
1.310867e+01	-3.427096e+00
1.318439e+01	-3.454278e+00
1.326054e+01	-3.481952e+00
1.333713e+01	-3.509550e+00
1.341417e+01	-3.537536e+00
1.349165e+01	-3.565293e+00
1.356958e+01	-3.593434e+00
1.364795e+01	-3.621813e+00
1.372678e+01	-3.650149e+00
1.380607e+01	-3.678622e+00
1.388581e+01	-3.707458e+00
1.396602e+01	-3.736012e+00
1.404668e+01	-3.765075e+00
1.412782e+01	-3.793994e+00
1.420942e+01	-3.823554e+00
1.429149e+01	-3.852695e+00
1.437404e+01	-3.882277e+00
1.445706e+01	-3.911701e+00
1.454057e+01	-3.941479e+00
1.462455e+01	-3.971271e+00
1.470902e+01	-4.001257e+00
1.479398e+01	-4.031829e+00
1.487943e+01	-4.062072e+00
1.496537e+01	-4.092599e+00
1.505181e+01	-4.123225e+00
1.513875e+01	-4.153565e+00
1.522619e+01	-4.184900e+00
1.531414e+01	-4.215677e+00
1.540259e+01	-4.246635e+00
1.549156e+01	-4.277794e+00
1.558103e+01	-4.309502e+00
1.567103e+01	-4.341154e+00
1.576155e+01	-4.372455e+00
1.585258e+01	-4.404515e+00
1.594415e+01	-4.436523e+00
1.603624e+01	-4.468704e+00
1.612886e+01	-4.500716e+00
1.622202e+01	-4.533225e+00
1.631572e+01	-4.565728e+00
1.640996e+01	-4.598093e+00
1.650474e+01	-4.630763e+00
1.660008e+01	-4.663970e+00
1.669596e+01	-4.696801e+00
1.679239e+01	-4.730004e+00
1.688938e+01	-4.762732e+00
1.698694e+01	-4.796812e+00
1.708505e+01	-4.830065e+00
1.718373e+01	-4.863751e+00
1.728299e+01	-4.897641e+00
1.738281e+01	-4.931315e+00
1.748322e+01	-4.965398e+00
1.758420e+01	-4.999725e+00
1.768576e+01	-5.033850e+00
1.778792e+01	-5.067965e+00
1.789066e+01	-5.102708e+00
1.799399e+01	-5.137085e+00
1.809793e+01	-5.172269e+00
1.820246e+01	-5.207039e+00
1.830760e+01	-5.242103e+00
1.841334e+01	-5.277155e+00
1.851969e+01	-5.312622e+00
1.862666e+01	-5.347819e+00
1.873425e+01	-5.383021e+00
1.884246e+01	-5.418698e+00
1.895129e+01	-5.455027e+00
1.906075e+01	-5.490226e+00
1.917085e+01	-5.526338e+00
1.928158e+01	-5.562482e+00
1.939295e+01	-5.598881e+00
1.950496e+01	-5.635187e+00
1.961762e+01	-5.671543e+00
1.973093e+01	-5.707889e+00
1.984490e+01	-5.744616e+00
1.995952e+01	-5.781724e+00
2.007480e+01	-5.818370e+00
2.019076e+01	-5.855253e+00
2.030738e+01	-5.892336e+00
2.042467e+01	-5.929325e+00
2.054264e+01	-5.966701e+00
2.066130e+01	-6.003949e+00
2.078064e+01	-6.041588e+00
2.090066e+01	-6.079300e+00
2.102139e+01	-6.116941e+00
2.114280e+01	-6.154750e+00
2.126492e+01	-6.192821e+00
2.138775e+01	-6.230767e+00
2.151128e+01	-6.269324e+00
2.163553e+01	-6.307066e+00
2.176050e+01	-6.345614e+00
2.188619e+01	-6.384410e+00
2.201260e+01	-6.422656e+00
2.213974e+01	-6.461495e+00
2.226762e+01	-6.500226e+00
2.239624e+01	-6.538855e+00
2.252560e+01	-6.577855e+00
2.265571e+01	-6.616707e+00
2.278656e+01	-6.656166e+00
2.291818e+01	-6.695678e+00
2.305055e+01	-6.734788e+00
2.318369e+01	-6.774499e+00
2.331760e+01	-6.813932e+00
2.345228e+01	-6.853607e+00
2.358774e+01	-6.893236e+00
2.372398e+01	-6.933331e+00
2.386101e+01	-6.973149e+00
2.399883e+01	-7.013287e+00
2.413745e+01	-7.053386e+00
2.427686e+01	-7.093267e+00
2.441709e+01	-7.134031e+00
2.455812e+01	-7.174086e+00
2.469997e+01	-7.214763e+00
2.484263e+01	-7.254994e+00
2.498612e+01	-7.295902e+00
2.513044e+01	-7.336424e+00
2.527559e+01	-7.377247e+00
2.542158e+01	-7.418185e+00
2.556842e+01	-7.459450e+00
2.571610e+01	-7.500140e+00
2.586463e+01	-7.541849e+00
2.601403e+01	-7.582917e+00
2.616428e+01	-7.624240e+00
2.631541e+01	-7.665564e+00
2.646740e+01	-7.707267e+00
2.662028e+01	-7.749016e+00
2.677404e+01	-7.790343e+00
2.692868e+01	-7.832313e+00
2.708422e+01	-7.874333e+00
2.724066e+01	-7.915678e+00
2.739800e+01	-7.957948e+00
2.755625e+01	-7.999835e+00
2.771541e+01	-8.042172e+00
2.787550e+01	-8.083988e+00
2.803650e+01	-8.126954e+00
2.819844e+01	-8.168842e+00
2.836131e+01	-8.211364e+00
2.852513e+01	-8.253577e+00
2.868989e+01	-8.296740e+00
2.885560e+01	-8.338962e+00
2.902227e+01	-8.381365e+00
2.918990e+01	-8.424819e+00
2.935850e+01	-8.467967e+00
2.952807e+01	-8.510528e+00
2.969863e+01	-8.553483e+00
2.987016e+01	-8.596278e+00
3.004269e+01	-8.639991e+00
3.021622e+01	-8.683137e+00
3.039075e+01	-8.726125e+00
3.056628e+01	-8.769371e+00
3.074283e+01	-8.813068e+00
3.092040e+01	-8.856396e+00
3.109900e+01	-8.899507e+00
3.127862e+01	-8.943124e+00
3.145929e+01	-8.987527e+00
3.164099e+01	-9.031328e+00
3.182375e+01	-9.074393e+00
3.200756e+01	-9.118505e+00
3.219244e+01	-9.162836e+00
3.237838e+01	-9.206720e+00
3.256540e+01	-9.250587e+00
3.275349e+01	-9.294461e+00
3.294268e+01	-9.338971e+00
3.313295e+01	-9.383563e+00
3.332433e+01	-9.427341e+00
3.351681e+01	-9.472004e+00
3.371040e+01	-9.515967e+00
3.390511e+01	-9.561074e+00
3.410094e+01	-9.605412e+00
3.429791e+01	-9.649699e+00
3.449601e+01	-9.694385e+00
3.469526e+01	-9.738966e+00
3.489566e+01	-9.783565e+00
3.509721e+01	-9.828652e+00
3.529993e+01	-9.873464e+00
3.550382e+01	-9.917861e+00
3.570889e+01	-9.963071e+00
3.591515e+01	-1.000770e+01
3.612259e+01	-1.005358e+01
3.633123e+01	-1.009837e+01
3.654108e+01	-1.014389e+01
3.675214e+01	-1.018910e+01
3.696442e+01	-1.023374e+01
3.717792e+01	-1.027924e+01
3.739266e+01	-1.032498e+01
3.760864e+01	-1.036991e+01
3.782587e+01	-1.041534e+01
3.804435e+01	-1.046137e+01
3.826409e+01	-1.050664e+01
3.848510e+01	-1.055196e+01
3.870739e+01	-1.059775e+01
3.893096e+01	-1.064410e+01
3.915583e+01	-1.068883e+01
3.938199e+01	-1.073490e+01
3.960946e+01	-1.078074e+01
3.983824e+01	-1.082687e+01
4.006834e+01	-1.087295e+01
4.029978e+01	-1.091830e+01
4.053255e+01	-1.096443e+01
4.076666e+01	-1.101080e+01
4.100213e+01	-1.105654e+01
4.123896e+01	-1.110327e+01
4.147715e+01	-1.114900e+01
4.171672e+01	-1.119526e+01
4.195767e+01	-1.124106e+01
4.220002e+01	-1.128817e+01
4.244377e+01	-1.133415e+01
4.268892e+01	-1.138062e+01
4.293549e+01	-1.142717e+01
4.318348e+01	-1.147370e+01
4.343291e+01	-1.151942e+01
4.368377e+01	-1.156659e+01
4.393609e+01	-1.161293e+01
4.418986e+01	-1.165929e+01
4.444510e+01	-1.170660e+01
4.470182e+01	-1.175291e+01
4.496001e+01	-1.180014e+01
4.521970e+01	-1.184635e+01
4.548089e+01	-1.189321e+01
4.574358e+01	-1.194079e+01
4.600779e+01	-1.198722e+01
4.627353e+01	-1.203379e+01
4.654081e+01	-1.208051e+01
4.680963e+01	-1.212776e+01
4.708000e+01	-1.217448e+01
4.735193e+01	-1.222167e+01
4.762543e+01	-1.226912e+01
4.790051e+01	-1.231546e+01
4.817719e+01	-1.236268e+01
4.845545e+01	-1.240908e+01
4.873533e+01	-1.245690e+01
4.901682e+01	-1.250385e+01
4.929994e+01	-1.255154e+01
4.958470e+01	-1.259859e+01
4.987110e+01	-1.264601e+01
5.015915e+01	-1.269382e+01
5.044887e+01	-1.274082e+01
5.074026e+01	-1.278840e+01
5.103333e+01	-1.283507e+01
5.132810e+01	-1.288312e+01
5.162457e+01	-1.293009e+01
5.192275e+01	-1.297817e+01
5.222265e+01	-1.302523e+01
5.252429e+01	-1.307244e+01
5.282767e+01	-1.312027e+01
5.313280e+01	-1.316819e+01
5.343969e+01	-1.321594e+01
5.374836e+01	-1.326356e+01
5.405880e+01	-1.331126e+01
5.437105e+01	-1.335824e+01
5.468509e+01	-1.340701e+01
5.500095e+01	-1.345432e+01
5.531863e+01	-1.350222e+01
5.563815e+01	-1.354959e+01
5.595951e+01	-1.359793e+01
5.628273e+01	-1.364601e+01
5.660782e+01	-1.369314e+01
5.693479e+01	-1.374156e+01
5.726364e+01	-1.378874e+01
5.759439e+01	-1.383714e+01
5.792705e+01	-1.388524e+01
5.826164e+01	-1.393295e+01
5.859815e+01	-1.398099e+01
5.893662e+01	-1.402860e+01
5.927703e+01	-1.407766e+01
5.961941e+01	-1.412565e+01
5.996377e+01	-1.417363e+01
6.031012e+01	-1.422226e+01
6.065847e+01	-1.426952e+01
6.100883e+01	-1.431743e+01
6.136121e+01	-1.436588e+01
6.171563e+01	-1.441372e+01
6.207210e+01	-1.446215e+01
6.243063e+01	-1.451047e+01
6.279122e+01	-1.455842e+01
6.315390e+01	-1.460671e+01
6.351868e+01	-1.465525e+01
6.388556e+01	-1.470362e+01
6.425456e+01	-1.475241e+01
6.462569e+01	-1.480076e+01
6.499897e+01	-1.484970e+01
6.537440e+01	-1.489796e+01
6.575200e+01	-1.494650e+01
6.613178e+01	-1.499513e+01
6.651375e+01	-1.504152e+01
6.689793e+01	-1.509068e+01
6.728433e+01	-1.513969e+01
6.767297e+01	-1.518787e+01
6.806384e+01	-1.523649e+01
6.845698e+01	-1.528514e+01
6.885238e+01	-1.533414e+01
6.925007e+01	-1.538171e+01
6.965005e+01	-1.543117e+01
7.005235e+01	-1.547933e+01
7.045697e+01	-1.552787e+01
7.086393e+01	-1.557663e+01
7.127323e+01	-1.562618e+01
7.168490e+01	-1.567364e+01
7.209895e+01	-1.572342e+01
7.251539e+01	-1.577184e+01
7.293424e+01	-1.582049e+01
7.335551e+01	-1.586919e+01
7.377920e+01	-1.591675e+01
7.420535e+01	-1.596700e+01
7.463396e+01	-1.601492e+01
7.506504e+01	-1.606366e+01
7.549861e+01	-1.611315e+01
7.593469e+01	-1.616102e+01
7.637328e+01	-1.621103e+01
7.681441e+01	-1.626026e+01
7.725809e+01	-1.630848e+01
7.770433e+01	-1.635698e+01
7.815315e+01	-1.640536e+01
7.860456e+01	-1.645478e+01
7.905857e+01	-1.650423e+01
7.951521e+01	-1.655400e+01
7.997449e+01	-1.660181e+01
8.043642e+01	-1.665140e+01
8.090102e+01	-1.669891e+01
8.136830e+01	-1.674859e+01
8.183828e+01	-1.679770e+01
8.231097e+01	-1.684714e+01
8.278640e+01	-1.689530e+01
8.326457e+01	-1.694470e+01
8.374550e+01	-1.699395e+01
8.422921e+01	-1.704212e+01
8.471572e+01	-1.709147e+01
8.520503e+01	-1.714019e+01
8.569717e+01	-1.718991e+01
8.619215e+01	-1.723894e+01
8.669000e+01	-1.728910e+01
8.719071e+01	-1.733772e+01
8.769432e+01	-1.738582e+01
8.820084e+01	-1.743573e+01
8.871029e+01	-1.748415e+01
8.922267e+01	-1.753201e+01
8.973802e+01	-1.758191e+01
9.025634e+01	-1.763139e+01
9.077766e+01	-1.768016e+01
9.130199e+01	-1.772982e+01
9.182935e+01	-1.777894e+01
9.235975e+01	-1.782936e+01
9.289321e+01	-1.787803e+01
9.342976e+01	-1.792725e+01
9.396941e+01	-1.797667e+01
9.451217e+01	-1.802593e+01
9.505807e+01	-1.807451e+01
9.560712e+01	-1.812380e+01
9.615934e+01	-1.817448e+01
9.671476e+01	-1.822284e+01
9.727338e+01	-1.827178e+01
9.783522e+01	-1.832272e+01
9.840032e+01	-1.837097e+01
9.896867e+01	-1.841897e+01
9.954031e+01	-1.847038e+01
1.001153e+02	-1.851710e+01
1.006935e+02	-1.856705e+01
1.012751e+02	-1.861552e+01
1.018601e+02	-1.866551e+01
1.024484e+02	-1.871624e+01
1.030402e+02	-1.876513e+01
1.036353e+02	-1.881304e+01
1.042339e+02	-1.886347e+01
1.048360e+02	-1.891328e+01
1.054415e+02	-1.896396e+01
1.060505e+02	-1.901138e+01
1.066631e+02	-1.906156e+01
1.072791e+02	-1.911015e+01
1.078988e+02	-1.915983e+01
1.085220e+02	-1.920909e+01
1.091488e+02	-1.925916e+01
1.097793e+02	-1.930881e+01
1.104133e+02	-1.935807e+01
1.110511e+02	-1.940559e+01
1.116925e+02	-1.945568e+01
1.123376e+02	-1.950734e+01
1.129865e+02	-1.955647e+01
1.136391e+02	-1.960567e+01
1.142955e+02	-1.965445e+01
1.149556e+02	-1.970557e+01
1.156196e+02	-1.975430e+01
1.162874e+02	-1.980467e+01
1.169591e+02	-1.985246e+01
1.176347e+02	-1.990370e+01
1.183141e+02	-1.995255e+01
1.189975e+02	-2.000248e+01
1.196848e+02	-2.005047e+01
1.203761e+02	-2.010062e+01
1.210714e+02	-2.014971e+01
1.217707e+02	-2.019871e+01
1.224740e+02	-2.024906e+01
1.231814e+02	-2.029949e+01
1.238929e+02	-2.034701e+01
1.246085e+02	-2.039798e+01
1.253283e+02	-2.044639e+01
1.260522e+02	-2.049751e+01
1.267802e+02	-2.054659e+01
1.275125e+02	-2.059560e+01
1.282490e+02	-2.064539e+01
1.289898e+02	-2.069616e+01
1.297348e+02	-2.074419e+01
1.304842e+02	-2.079554e+01
1.312378e+02	-2.084378e+01
1.319959e+02	-2.089499e+01
1.327583e+02	-2.094344e+01
1.335251e+02	-2.099324e+01
1.342963e+02	-2.104434e+01
1.350720e+02	-2.109232e+01
1.358522e+02	-2.114222e+01
1.366368e+02	-2.119036e+01
1.374260e+02	-2.124126e+01
1.382198e+02	-2.129170e+01
1.390182e+02	-2.134082e+01
1.398211e+02	-2.139137e+01
1.406287e+02	-2.143866e+01
1.414410e+02	-2.149093e+01
1.422579e+02	-2.153957e+01
1.430796e+02	-2.159053e+01
1.439060e+02	-2.163780e+01
1.447372e+02	-2.168950e+01
1.455732e+02	-2.173918e+01
1.464141e+02	-2.178805e+01
1.472597e+02	-2.183785e+01
1.481103e+02	-2.188651e+01
1.489658e+02	-2.193616e+01
1.498262e+02	-2.198591e+01
1.506916e+02	-2.203886e+01
1.515620e+02	-2.208349e+01
1.524374e+02	-2.213694e+01
1.533179e+02	-2.218681e+01
1.542034e+02	-2.223435e+01
1.550941e+02	-2.228304e+01
1.559899e+02	-2.233665e+01
1.568909e+02	-2.238367e+01
1.577971e+02	-2.243520e+01
1.587085e+02	-2.248688e+01
1.596252e+02	-2.253331e+01
1.605472e+02	-2.257995e+01
1.614745e+02	-2.263556e+01
1.624072e+02	-2.268282e+01
1.633453e+02	-2.273591e+01
1.642887e+02	-2.278282e+01
1.652377e+02	-2.283294e+01
1.661921e+02	-2.288149e+01
1.671520e+02	-2.293280e+01
1.681175e+02	-2.298304e+01
1.690885e+02	-2.303084e+01
1.700651e+02	-2.308179e+01
1.710474e+02	-2.313235e+01
1.720354e+02	-2.318178e+01
1.730291e+02	-2.323120e+01
1.740285e+02	-2.328109e+01
1.750337e+02	-2.333116e+01
1.760446e+02	-2.337941e+01
1.770615e+02	-2.343054e+01
1.780842e+02	-2.348290e+01
1.791128e+02	-2.353148e+01
1.801473e+02	-2.357936e+01
1.811878e+02	-2.363043e+01
1.822344e+02	-2.367980e+01
1.832870e+02	-2.372749e+01
1.843456e+02	-2.377904e+01
1.854104e+02	-2.382867e+01
1.864813e+02	-2.387885e+01
1.875584e+02	-2.393228e+01
1.886418e+02	-2.397861e+01
1.897313e+02	-2.403086e+01
1.908272e+02	-2.407907e+01
1.919294e+02	-2.412660e+01
1.930380e+02	-2.417827e+01
1.941530e+02	-2.422790e+01
1.952744e+02	-2.427773e+01
1.964023e+02	-2.432669e+01
1.975367e+02	-2.437622e+01
1.986777e+02	-2.442834e+01
1.998252e+02	-2.447788e+01
2.009794e+02	-2.452747e+01
2.021403e+02	-2.457708e+01
2.033078e+02	-2.463051e+01
2.044821e+02	-2.467689e+01
2.056632e+02	-2.472595e+01
2.068511e+02	-2.477493e+01
2.080459e+02	-2.482472e+01
2.092475e+02	-2.487643e+01
2.104561e+02	-2.492680e+01
2.116717e+02	-2.497612e+01
2.128943e+02	-2.502677e+01
2.141240e+02	-2.507610e+01
2.153608e+02	-2.512601e+01
2.166047e+02	-2.517711e+01
2.178558e+02	-2.522235e+01
2.191141e+02	-2.527232e+01
2.203797e+02	-2.532851e+01
2.216526e+02	-2.537415e+01
2.229329e+02	-2.542677e+01
2.242205e+02	-2.547444e+01
2.255156e+02	-2.552217e+01
2.268182e+02	-2.557614e+01
2.281283e+02	-2.562624e+01
2.294459e+02	-2.567129e+01
2.307712e+02	-2.572449e+01
2.321041e+02	-2.577273e+01
2.334447e+02	-2.582523e+01
2.347931e+02	-2.587322e+01
2.361493e+02	-2.592607e+01
2.375133e+02	-2.597473e+01
2.388851e+02	-2.602222e+01
2.402649e+02	-2.607601e+01
2.416527e+02	-2.612429e+01
2.430484e+02	-2.617520e+01
2.444523e+02	-2.622469e+01
2.458642e+02	-2.627369e+01
2.472843e+02	-2.632575e+01
2.487126e+02	-2.637666e+01
2.501492e+02	-2.642677e+01
2.515940e+02	-2.647309e+01
2.530472e+02	-2.652094e+01
2.545088e+02	-2.657482e+01
2.559789e+02	-2.662542e+01
2.574574e+02	-2.667530e+01
2.589444e+02	-2.672624e+01
2.604401e+02	-2.677579e+01
2.619444e+02	-2.682251e+01
2.634574e+02	-2.687197e+01
2.649791e+02	-2.692343e+01
2.665096e+02	-2.697205e+01
2.680489e+02	-2.702562e+01
2.695972e+02	-2.707317e+01
2.711544e+02	-2.712429e+01
2.727205e+02	-2.717338e+01
2.742958e+02	-2.722171e+01
2.758801e+02	-2.727135e+01
2.774736e+02	-2.732492e+01
2.790762e+02	-2.737442e+01
2.806882e+02	-2.742120e+01
2.823094e+02	-2.747528e+01
2.839400e+02	-2.752453e+01
2.855800e+02	-2.757841e+01
2.872295e+02	-2.762236e+01
2.888886e+02	-2.767531e+01
2.905572e+02	-2.772473e+01
2.922354e+02	-2.777194e+01
2.939234e+02	-2.782449e+01
2.956211e+02	-2.787215e+01
2.973286e+02	-2.792328e+01
2.990459e+02	-2.797128e+01
3.007732e+02	-2.802445e+01
3.025104e+02	-2.807240e+01
3.042577e+02	-2.812593e+01
3.060151e+02	-2.817637e+01
3.077826e+02	-2.822769e+01
3.095604e+02	-2.827241e+01
3.113484e+02	-2.832490e+01
3.131467e+02	-2.837213e+01
3.149554e+02	-2.842346e+01
3.167746e+02	-2.847387e+01
3.186043e+02	-2.851837e+01
3.204445e+02	-2.857737e+01
3.222954e+02	-2.862954e+01
3.241570e+02	-2.867437e+01
3.260293e+02	-2.872378e+01
3.279124e+02	-2.877177e+01
3.298064e+02	-2.882751e+01
3.317114e+02	-2.887640e+01
3.336273e+02	-2.892312e+01
3.355544e+02	-2.897146e+01
3.374925e+02	-2.902253e+01
3.394418e+02	-2.907511e+01
3.414024e+02	-2.912375e+01
3.433744e+02	-2.917407e+01
3.453577e+02	-2.922545e+01
3.473525e+02	-2.927448e+01
3.493588e+02	-2.932677e+01
3.513766e+02	-2.937641e+01
3.534062e+02	-2.943089e+01
3.554474e+02	-2.947612e+01
3.575005e+02	-2.952439e+01
3.595654e+02	-2.957756e+01
3.616422e+02	-2.962746e+01
3.637311e+02	-2.967397e+01
3.658320e+02	-2.972450e+01
3.679450e+02	-2.977296e+01
3.700702e+02	-2.982438e+01
3.722077e+02	-2.987740e+01
3.743576e+02	-2.992831e+01
3.765199e+02	-2.997848e+01
3.786946e+02	-3.002648e+01
3.808820e+02	-3.007871e+01
3.830819e+02	-3.012780e+01
3.852946e+02	-3.017650e+01
3.875200e+02	-3.023346e+01
3.897583e+02	-3.027760e+01
3.920096e+02	-3.032820e+01
3.942738e+02	-3.037934e+01
3.965511e+02	-3.042803e+01
3.988416e+02	-3.048012e+01
4.011452e+02	-3.052392e+01
4.034622e+02	-3.057837e+01
4.057926e+02	-3.062879e+01
4.081365e+02	-3.067792e+01
4.104938e+02	-3.073202e+01
4.128648e+02	-3.077507e+01
4.152495e+02	-3.082777e+01
4.176480e+02	-3.087655e+01
4.200603e+02	-3.092500e+01
4.224866e+02	-3.097988e+01
4.249268e+02	-3.102711e+01
4.273812e+02	-3.108138e+01
4.298497e+02	-3.112624e+01
4.323325e+02	-3.117761e+01
4.348297e+02	-3.123020e+01
4.373412e+02	-3.128239e+01
4.398673e+02	-3.132844e+01
4.424079e+02	-3.137995e+01
4.449633e+02	-3.143084e+01
4.475334e+02	-3.147478e+01
4.501183e+02	-3.153355e+01
4.527182e+02	-3.158658e+01
4.553330e+02	-3.162964e+01
4.579630e+02	-3.167883e+01
4.606082e+02	-3.172969e+01
4.632687e+02	-3.178688e+01
4.659445e+02	-3.183451e+01
4.686358e+02	-3.188689e+01
4.713426e+02	-3.193436e+01
4.740650e+02	-3.198014e+01
4.768032e+02	-3.202701e+01
4.795572e+02	-3.207942e+01
4.823271e+02	-3.213689e+01
4.851130e+02	-3.218047e+01
4.879150e+02	-3.223070e+01
4.907332e+02	-3.228171e+01
4.935676e+02	-3.233421e+01
4.964185e+02	-3.238611e+01
4.992858e+02	-3.242763e+01
5.021696e+02	-3.248632e+01
5.050701e+02	-3.253037e+01
5.079874e+02	-3.258307e+01
5.109215e+02	-3.263840e+01
5.138726e+02	-3.268583e+01
5.168407e+02	-3.273654e+01
5.198259e+02	-3.278169e+01
5.228284e+02	-3.283331e+01
5.258482e+02	-3.288090e+01
5.288855e+02	-3.293510e+01
5.319403e+02	-3.299439e+01
5.350128e+02	-3.303822e+01
5.381030e+02	-3.308589e+01
5.412111e+02	-3.313912e+01
5.443371e+02	-3.318389e+01
5.474812e+02	-3.324269e+01
5.506434e+02	-3.328369e+01
5.538239e+02	-3.333762e+01
5.570228e+02	-3.338664e+01
5.602401e+02	-3.343566e+01
5.634760e+02	-3.348101e+01
5.667306e+02	-3.354046e+01
5.700040e+02	-3.358944e+01
5.732964e+02	-3.364182e+01
5.766077e+02	-3.367961e+01
5.799382e+02	-3.373048e+01
5.832879e+02	-3.379284e+01
5.866569e+02	-3.384284e+01
5.900454e+02	-3.389388e+01
5.934535e+02	-3.393269e+01
5.968813e+02	-3.399234e+01
6.003288e+02	-3.403657e+01
6.037963e+02	-3.409576e+01
6.072838e+02	-3.414282e+01
6.107914e+02	-3.418208e+01
6.143194e+02	-3.424371e+01
6.178676e+02	-3.428772e+01
6.214364e+02	-3.435342e+01
6.250258e+02	-3.439401e+01
6.286359e+02	-3.444144e+01
6.322669e+02	-3.450261e+01
6.359189e+02	-3.454604e+01
6.395919e+02	-3.460352e+01
6.432862e+02	-3.464234e+01
6.470017e+02	-3.470423e+01
6.507388e+02	-3.474130e+01
6.544974e+02	-3.479389e+01
6.582778e+02	-3.484531e+01
6.620800e+02	-3.490564e+01
6.659041e+02	-3.494877e+01
6.697504e+02	-3.499416e+01
6.736188e+02	-3.504445e+01
6.775096e+02	-3.509170e+01
6.814229e+02	-3.514966e+01
6.853587e+02	-3.519951e+01
6.893173e+02	-3.525489e+01
6.932988e+02	-3.529822e+01
6.973033e+02	-3.535487e+01
7.013309e+02	-3.540076e+01
