Frequency(Hz)	Magnitude(dB)
1.000000e+01	-2.304173e+00
1.005776e+01	-2.324782e+00
1.011585e+01	-2.345830e+00
1.017428e+01	-2.366439e+00
1.023305e+01	-2.387596e+00
1.029215e+01	-2.408994e+00
1.035160e+01	-2.430191e+00
1.041139e+01	-2.451716e+00
1.047153e+01	-2.473519e+00
1.053201e+01	-2.495190e+00
1.059284e+01	-2.517125e+00
1.065403e+01	-2.539419e+00
1.071556e+01	-2.561502e+00
1.077746e+01	-2.583941e+00
1.083971e+01	-2.606223e+00
1.090232e+01	-2.629008e+00
1.096529e+01	-2.651531e+00
1.102862e+01	-2.674732e+00
1.109232e+01	-2.697682e+00
1.115639e+01	-2.720983e+00
1.122083e+01	-2.744315e+00
1.128564e+01	-2.767756e+00
1.135083e+01	-2.791688e+00
1.141639e+01	-2.815245e+00
1.148233e+01	-2.839093e+00
1.154865e+01	-2.863352e+00
1.161536e+01	-2.887412e+00
1.168245e+01	-2.911822e+00
1.174992e+01	-2.936331e+00
1.181779e+01	-2.960908e+00
1.188605e+01	-2.986015e+00
1.195470e+01	-3.010632e+00
1.202375e+01	-3.035880e+00
1.209320e+01	-3.061164e+00
1.216305e+01	-3.086569e+00
1.223330e+01	-3.111808e+00
1.230396e+01	-3.137355e+00
1.237503e+01	-3.163551e+00
1.244651e+01	-3.189498e+00
1.251840e+01	-3.215753e+00
1.259070e+01	-3.241797e+00
1.266343e+01	-3.268179e+00
1.273657e+01	-3.294647e+00
1.281014e+01	-3.321207e+00
1.288413e+01	-3.348115e+00
1.295855e+01	-3.375275e+00
1.303339e+01	-3.402338e+00
1.310867e+01	-3.429495e+00
1.318439e+01	-3.456965e+00
1.326054e+01	-3.484465e+00
1.333713e+01	-3.512017e+00
1.341417e+01	-3.539925e+00
1.349165e+01	-3.567784e+00
1.356958e+01	-3.596075e+00
1.364795e+01	-3.624325e+00
1.372678e+01	-3.652618e+00
1.380607e+01	-3.680924e+00
1.388581e+01	-3.709720e+00
1.396602e+01	-3.738420e+00
1.404668e+01	-3.767522e+00
1.412782e+01	-3.796601e+00
1.420942e+01	-3.825748e+00
1.429149e+01	-3.855139e+00
1.437404e+01	-3.884653e+00
1.445706e+01	-3.914437e+00
1.454057e+01	-3.944109e+00
1.462455e+01	-3.973830e+00
1.470902e+01	-4.004148e+00
1.479398e+01	-4.034324e+00
1.487943e+01	-4.064539e+00
1.496537e+01	-4.094853e+00
1.505181e+01	-4.125662e+00
1.513875e+01	-4.156355e+00
1.522619e+01	-4.187152e+00
1.531414e+01	-4.217996e+00
1.540259e+01	-4.249323e+00
1.549156e+01	-4.280899e+00
1.558103e+01	-4.312153e+00
1.567103e+01	-4.343803e+00
1.576155e+01	-4.375491e+00
1.585258e+01	-4.407145e+00
1.594415e+01	-4.439468e+00
1.603624e+01	-4.471425e+00
1.612886e+01	-4.503279e+00
1.622202e+01	-4.536029e+00
1.631572e+01	-4.568530e+00
1.640996e+01	-4.601044e+00
1.650474e+01	-4.633926e+00
1.660008e+01	-4.666758e+00
1.669596e+01	-4.699652e+00
1.679239e+01	-4.732839e+00
1.688938e+01	-4.765854e+00
1.698694e+01	-4.799426e+00
1.708505e+01	-4.833073e+00
1.718373e+01	-4.866362e+00
1.728299e+01	-4.900401e+00
1.738281e+01	-4.934434e+00
1.748322e+01	-4.968178e+00
1.758420e+01	-5.002347e+00
1.768576e+01	-5.036689e+00
1.778792e+01	-5.071292e+00
1.789066e+01	-5.105723e+00
1.799399e+01	-5.140463e+00
1.809793e+01	-5.175185e+00
1.820246e+01	-5.210017e+00
1.830760e+01	-5.244558e+00
1.841334e+01	-5.280255e+00
1.851969e+01	-5.315096e+00
1.862666e+01	-5.350868e+00
1.873425e+01	-5.386231e+00
1.884246e+01	-5.421827e+00
1.895129e+01	-5.457734e+00
1.906075e+01	-5.493364e+00
1.917085e+01	-5.529228e+00
1.928158e+01	-5.565932e+00
1.939295e+01	-5.601783e+00
1.950496e+01	-5.638219e+00
1.961762e+01	-5.674251e+00
1.973093e+01	-5.710843e+00
1.984490e+01	-5.747493e+00
1.995952e+01	-5.784380e+00
2.007480e+01	-5.821326e+00
2.019076e+01	-5.858134e+00
2.030738e+01	-5.895724e+00
2.042467e+01	-5.932665e+00
2.054264e+01	-5.969643e+00
2.066130e+01	-6.007243e+00
2.078064e+01	-6.045017e+00
2.090066e+01	-6.082566e+00
2.102139e+01	-6.120205e+00
2.114280e+01	-6.158109e+00
2.126492e+01	-6.195915e+00
2.138775e+01	-6.234063e+00
2.151128e+01	-6.272239e+00
2.163553e+01	-6.310378e+00
2.176050e+01	-6.348852e+00
2.188619e+01	-6.387209e+00
2.201260e+01	-6.426308e+00
2.213974e+01	-6.464509e+00
2.226762e+01	-6.503407e+00
2.239624e+01	-6.542448e+00
2.252560e+01	-6.580999e+00
2.265571e+01	-6.620491e+00
2.278656e+01	-6.659770e+00
2.291818e+01	-6.698592e+00
2.305055e+01	-6.738448e+00
2.318369e+01	-6.777648e+00
2.331760e+01	-6.817579e+00
2.345228e+01	-6.857071e+00
2.358774e+01	-6.896978e+00
2.372398e+01	-6.936554e+00
2.386101e+01	-6.976482e+00
2.399883e+01	-7.016298e+00
2.413745e+01	-7.056985e+00
2.427686e+01	-7.096777e+00
2.441709e+01	-7.137096e+00
2.455812e+01	-7.177303e+00
2.469997e+01	-7.218118e+00
2.484263e+01	-7.258597e+00
2.498612e+01	-7.299292e+00
2.513044e+01	-7.339862e+00
2.527559e+01	-7.380772e+00
2.542158e+01	-7.422080e+00
2.556842e+01	-7.462996e+00
2.571610e+01	-7.503856e+00
2.586463e+01	-7.544837e+00
2.601403e+01	-7.586433e+00
2.616428e+01	-7.627552e+00
2.631541e+01	-7.669110e+00
2.646740e+01	-7.710714e+00
2.662028e+01	-7.752316e+00
2.677404e+01	-7.793864e+00
2.692868e+01	-7.835579e+00
2.708422e+01	-7.876891e+00
2.724066e+01	-7.919453e+00
2.739800e+01	-7.961440e+00
2.755625e+01	-8.003542e+00
2.771541e+01	-8.045301e+00
2.787550e+01	-8.087448e+00
2.803650e+01	-8.129621e+00
2.819844e+01	-8.172285e+00
2.836131e+01	-8.215137e+00
2.852513e+01	-8.257436e+00
2.868989e+01	-8.300093e+00
2.885560e+01	-8.342925e+00
2.902227e+01	-8.385397e+00
2.918990e+01	-8.428178e+00
2.935850e+01	-8.471404e+00
2.952807e+01	-8.513919e+00
2.969863e+01	-8.557218e+00
2.987016e+01	-8.600239e+00
3.004269e+01	-8.643361e+00
3.021622e+01	-8.686519e+00
3.039075e+01	-8.729700e+00
3.056628e+01	-8.773187e+00
3.074283e+01	-8.816414e+00
3.092040e+01	-8.860013e+00
3.109900e+01	-8.903263e+00
3.127862e+01	-8.947441e+00
3.145929e+01	-8.990841e+00
3.164099e+01	-9.034546e+00
3.182375e+01	-9.078792e+00
3.200756e+01	-9.122214e+00
3.219244e+01	-9.166266e+00
3.237838e+01	-9.210441e+00
3.256540e+01	-9.254681e+00
3.275349e+01	-9.298484e+00
3.294268e+01	-9.342391e+00
3.313295e+01	-9.386833e+00
3.332433e+01	-9.431046e+00
3.351681e+01	-9.475951e+00
3.371040e+01	-9.520039e+00
3.390511e+01	-9.564611e+00
3.410094e+01	-9.608852e+00
3.429791e+01	-9.653429e+00
3.449601e+01	-9.698279e+00
3.469526e+01	-9.742456e+00
3.489566e+01	-9.787939e+00
3.509721e+01	-9.832494e+00
3.529993e+01	-9.876950e+00
3.550382e+01	-9.922336e+00
3.570889e+01	-9.967055e+00
3.591515e+01	-1.001182e+01
3.612259e+01	-1.005710e+01
3.633123e+01	-1.010219e+01
3.654108e+01	-1.014720e+01
3.675214e+01	-1.019270e+01
3.696442e+01	-1.023803e+01
3.717792e+01	-1.028337e+01
3.739266e+01	-1.032856e+01
3.760864e+01	-1.037423e+01
3.782587e+01	-1.041920e+01
3.804435e+01	-1.046490e+01
3.826409e+01	-1.051011e+01
3.848510e+01	-1.055588e+01
3.870739e+01	-1.060205e+01
3.893096e+01	-1.064790e+01
3.915583e+01	-1.069366e+01
3.938199e+01	-1.073886e+01
3.960946e+01	-1.078459e+01
3.983824e+01	-1.083069e+01
4.006834e+01	-1.087689e+01
4.029978e+01	-1.092225e+01
4.053255e+01	-1.096877e+01
4.076666e+01	-1.101538e+01
4.100213e+01	-1.106084e+01
4.123896e+01	-1.110663e+01
4.147715e+01	-1.115249e+01
4.171672e+01	-1.119917e+01
4.195767e+01	-1.124511e+01
4.220002e+01	-1.129179e+01
4.244377e+01	-1.133772e+01
4.268892e+01	-1.138475e+01
4.293549e+01	-1.143090e+01
4.318348e+01	-1.147715e+01
4.343291e+01	-1.152415e+01
4.368377e+01	-1.157032e+01
4.393609e+01	-1.161703e+01
4.418986e+01	-1.166333e+01
4.444510e+01	-1.171104e+01
4.470182e+01	-1.175731e+01
4.496001e+01	-1.180351e+01
4.521970e+01	-1.185017e+01
4.548089e+01	-1.189668e+01
4.574358e+01	-1.194405e+01
4.600779e+01	-1.199104e+01
4.627353e+01	-1.203750e+01
4.654081e+01	-1.208470e+01
4.680963e+01	-1.213140e+01
4.708000e+01	-1.217834e+01
4.735193e+01	-1.222520e+01
4.762543e+01	-1.227194e+01
4.790051e+01	-1.231922e+01
4.817719e+01	-1.236624e+01
4.845545e+01	-1.241403e+01
4.873533e+01	-1.246096e+01
4.901682e+01	-1.250762e+01
4.929994e+01	-1.255570e+01
4.958470e+01	-1.260252e+01
4.987110e+01	-1.264963e+01
5.015915e+01	-1.269747e+01
5.044887e+01	-1.274513e+01
5.074026e+01	-1.279203e+01
5.103333e+01	-1.283920e+01
5.132810e+01	-1.288754e+01
5.162457e+01	-1.293487e+01
5.192275e+01	-1.298201e+01
5.222265e+01	-1.302943e+01
5.252429e+01	-1.307701e+01
5.282767e+01	-1.312446e+01
5.313280e+01	-1.317195e+01
5.343969e+01	-1.322016e+01
5.374836e+01	-1.326777e+01
5.405880e+01	-1.331502e+01
5.437105e+01	-1.336305e+01
5.468509e+01	-1.341009e+01
5.500095e+01	-1.345812e+01
5.531863e+01	-1.350565e+01
5.563815e+01	-1.355366e+01
5.595951e+01	-1.360222e+01
5.628273e+01	-1.364893e+01
5.660782e+01	-1.369742e+01
5.693479e+01	-1.374508e+01
5.726364e+01	-1.379367e+01
5.759439e+01	-1.384130e+01
5.792705e+01	-1.388908e+01
5.826164e+01	-1.393739e+01
5.859815e+01	-1.398516e+01
5.893662e+01	-1.403346e+01
5.927703e+01	-1.408188e+01
5.961941e+01	-1.412927e+01
5.996377e+01	-1.417725e+01
6.031012e+01	-1.422609e+01
6.065847e+01	-1.427418e+01
6.100883e+01	-1.432183e+01
6.136121e+01	-1.436992e+01
6.171563e+01	-1.441860e+01
6.207210e+01	-1.446652e+01
6.243063e+01	-1.451490e+01
6.279122e+01	-1.456358e+01
6.315390e+01	-1.461076e+01
6.351868e+01	-1.465953e+01
6.388556e+01	-1.470772e+01
6.425456e+01	-1.475658e+01
6.462569e+01	-1.480535e+01
6.499897e+01	-1.485317e+01
6.537440e+01	-1.490125e+01
6.575200e+01	-1.495074e+01
6.613178e+01	-1.499918e+01
6.651375e+01	-1.504683e+01
6.689793e+01	-1.509540e+01
6.728433e+01	-1.514399e+01
6.767297e+01	-1.519135e+01
6.806384e+01	-1.524121e+01
6.845698e+01	-1.528902e+01
6.885238e+01	-1.533846e+01
6.925007e+01	-1.538620e+01
6.965005e+01	-1.543459e+01
7.005235e+01	-1.548361e+01
7.045697e+01	-1.553268e+01
7.086393e+01	-1.558126e+01
7.127323e+01	-1.562931e+01
7.168490e+01	-1.567851e+01
7.209895e+01	-1.572775e+01
7.251539e+01	-1.577641e+01
7.293424e+01	-1.582466e+01
7.335551e+01	-1.587356e+01
7.377920e+01	-1.592165e+01
7.420535e+01	-1.597044e+01
7.463396e+01	-1.601901e+01
7.506504e+01	-1.606784e+01
7.549861e+01	-1.611633e+01
7.593469e+01	-1.616509e+01
7.637328e+01	-1.621450e+01
7.681441e+01	-1.626367e+01
7.725809e+01	-1.631144e+01
7.770433e+01	-1.636056e+01
7.815315e+01	-1.640967e+01
7.860456e+01	-1.645903e+01
7.905857e+01	-1.650714e+01
7.951521e+01	-1.655664e+01
7.997449e+01	-1.660684e+01
8.043642e+01	-1.665470e+01
8.090102e+01	-1.670310e+01
8.136830e+01	-1.675202e+01
8.183828e+01	-1.680228e+01
8.231097e+01	-1.684991e+01
8.278640e+01	-1.689937e+01
8.326457e+01	-1.694876e+01
8.374550e+01	-1.699777e+01
8.422921e+01	-1.704654e+01
8.471572e+01	-1.709610e+01
8.520503e+01	-1.714485e+01
8.569717e+01	-1.719457e+01
8.619215e+01	-1.724334e+01
8.669000e+01	-1.729274e+01
8.719071e+01	-1.734082e+01
8.769432e+01	-1.739055e+01
8.820084e+01	-1.743925e+01
8.871029e+01	-1.748810e+01
8.922267e+01	-1.753793e+01
8.973802e+01	-1.758780e+01
9.025634e+01	-1.763536e+01
9.077766e+01	-1.768504e+01
9.130199e+01	-1.773354e+01
9.182935e+01	-1.778288e+01
9.235975e+01	-1.783264e+01
9.289321e+01	-1.788216e+01
9.342976e+01	-1.793103e+01
9.396941e+01	-1.798046e+01
9.451217e+01	-1.803006e+01
9.505807e+01	-1.807895e+01
9.560712e+01	-1.812780e+01
9.615934e+01	-1.817717e+01
9.671476e+01	-1.822727e+01
9.727338e+01	-1.827593e+01
9.783522e+01	-1.832549e+01
9.840032e+01	-1.837476e+01
9.896867e+01	-1.842423e+01
9.954031e+01	-1.847240e+01
1.001153e+02	-1.852167e+01
1.006935e+02	-1.857164e+01
1.012751e+02	-1.862073e+01
1.018601e+02	-1.866955e+01
1.024484e+02	-1.871907e+01
1.030402e+02	-1.877020e+01
1.036353e+02	-1.881721e+01
1.042339e+02	-1.886765e+01
1.048360e+02	-1.891713e+01
1.054415e+02	-1.896626e+01
1.060505e+02	-1.901783e+01
1.066631e+02	-1.906565e+01
1.072791e+02	-1.911401e+01
1.078988e+02	-1.916468e+01
1.085220e+02	-1.921415e+01
1.091488e+02	-1.926261e+01
1.097793e+02	-1.931297e+01
1.104133e+02	-1.936308e+01
1.110511e+02	-1.941113e+01
1.116925e+02	-1.945938e+01
1.123376e+02	-1.951041e+01
1.129865e+02	-1.955968e+01
1.136391e+02	-1.960965e+01
1.142955e+02	-1.965814e+01
1.149556e+02	-1.970757e+01
1.156196e+02	-1.975872e+01
1.162874e+02	-1.980603e+01
1.169591e+02	-1.985809e+01
1.176347e+02	-1.990764e+01
1.183141e+02	-1.995591e+01
1.189975e+02	-2.000614e+01
1.196848e+02	-2.005398e+01
1.203761e+02	-2.010472e+01
1.210714e+02	-2.015405e+01
1.217707e+02	-2.020403e+01
1.224740e+02	-2.025069e+01
1.231814e+02	-2.030356e+01
1.238929e+02	-2.035144e+01
1.246085e+02	-2.040198e+01
1.253283e+02	-2.045197e+01
1.260522e+02	-2.050024e+01
1.267802e+02	-2.055069e+01
1.275125e+02	-2.060120e+01
1.282490e+02	-2.065067e+01
1.289898e+02	-2.070068e+01
1.297348e+02	-2.074972e+01
1.304842e+02	-2.079939e+01
1.312378e+02	-2.084965e+01
1.319959e+02	-2.089841e+01
1.327583e+02	-2.094688e+01
1.335251e+02	-2.099638e+01
1.342963e+02	-2.104839e+01
1.350720e+02	-2.109757e+01
1.358522e+02	-2.114604e+01
1.366368e+02	-2.119641e+01
1.374260e+02	-2.124419e+01
1.382198e+02	-2.129471e+01
1.390182e+02	-2.134408e+01
1.398211e+02	-2.139405e+01
1.406287e+02	-2.144498e+01
1.414410e+02	-2.149312e+01
1.422579e+02	-2.154208e+01
1.430796e+02	-2.159241e+01
1.439060e+02	-2.164377e+01
1.447372e+02	-2.169382e+01
1.455732e+02	-2.174131e+01
1.464141e+02	-2.179183e+01
1.472597e+02	-2.184061e+01
1.481103e+02	-2.189373e+01
1.489658e+02	-2.194116e+01
1.498262e+02	-2.199111e+01
1.506916e+02	-2.204111e+01
1.515620e+02	-2.208973e+01
1.524374e+02	-2.214134e+01
1.533179e+02	-2.219151e+01
1.542034e+02	-2.224022e+01
1.550941e+02	-2.228950e+01
1.559899e+02	-2.233981e+01
1.568909e+02	-2.238817e+01
1.577971e+02	-2.243928e+01
1.587085e+02	-2.248844e+01
1.596252e+02	-2.253936e+01
1.605472e+02	-2.258746e+01
1.614745e+02	-2.263708e+01
1.624072e+02	-2.268622e+01
1.633453e+02	-2.273684e+01
1.642887e+02	-2.278837e+01
1.652377e+02	-2.283793e+01
1.661921e+02	-2.288569e+01
1.671520e+02	-2.293632e+01
1.681175e+02	-2.298655e+01
1.690885e+02	-2.303726e+01
1.700651e+02	-2.308383e+01
1.710474e+02	-2.313401e+01
1.720354e+02	-2.318540e+01
1.730291e+02	-2.323438e+01
1.740285e+02	-2.328410e+01
1.750337e+02	-2.333431e+01
1.760446e+02	-2.338596e+01
1.770615e+02	-2.343448e+01
1.780842e+02	-2.348375e+01
1.791128e+02	-2.353616e+01
1.801473e+02	-2.358375e+01
1.811878e+02	-2.363463e+01
1.822344e+02	-2.368298e+01
1.832870e+02	-2.373167e+01
1.843456e+02	-2.378391e+01
1.854104e+02	-2.383704e+01
1.864813e+02	-2.388364e+01
1.875584e+02	-2.393379e+01
1.886418e+02	-2.398336e+01
1.897313e+02	-2.403225e+01
1.908272e+02	-2.408218e+01
1.919294e+02	-2.413564e+01
1.930380e+02	-2.418529e+01
1.941530e+02	-2.423258e+01
1.952744e+02	-2.428276e+01
1.964023e+02	-2.433132e+01
1.975367e+02	-2.438023e+01
1.986777e+02	-2.443379e+01
1.998252e+02	-2.448070e+01
2.009794e+02	-2.452932e+01
2.021403e+02	-2.458033e+01
2.033078e+02	-2.463268e+01
2.044821e+02	-2.467729e+01
2.056632e+02	-2.473003e+01
2.068511e+02	-2.478206e+01
2.080459e+02	-2.483002e+01
2.092475e+02	-2.488434e+01
2.104561e+02	-2.492980e+01
2.116717e+02	-2.498004e+01
2.128943e+02	-2.502991e+01
2.141240e+02	-2.508009e+01
2.153608e+02	-2.513430e+01
2.166047e+02	-2.518231e+01
2.178558e+02	-2.522778e+01
2.191141e+02	-2.527773e+01
2.203797e+02	-2.533197e+01
2.216526e+02	-2.537946e+01
2.229329e+02	-2.542886e+01
2.242205e+02	-2.548109e+01
2.255156e+02	-2.552665e+01
2.268182e+02	-2.557763e+01
2.281283e+02	-2.562908e+01
2.294459e+02	-2.567818e+01
2.307712e+02	-2.573160e+01
2.321041e+02	-2.577915e+01
2.334447e+02	-2.583003e+01
2.347931e+02	-2.587859e+01
2.361493e+02	-2.592809e+01
2.375133e+02	-2.597513e+01
2.388851e+02	-2.602751e+01
2.402649e+02	-2.607907e+01
2.416527e+02	-2.612636e+01
2.430484e+02	-2.617846e+01
2.444523e+02	-2.622650e+01
2.458642e+02	-2.628052e+01
2.472843e+02	-2.632745e+01
2.487126e+02	-2.637726e+01
2.501492e+02	-2.642921e+01
2.515940e+02	-2.648040e+01
2.530472e+02	-2.653055e+01
2.545088e+02	-2.657955e+01
2.559789e+02	-2.662634e+01
2.574574e+02	-2.667554e+01
2.589444e+02	-2.672851e+01
2.604401e+02	-2.677814e+01
2.619444e+02	-2.682520e+01
2.634574e+02	-2.688027e+01
2.649791e+02	-2.692461e+01
2.665096e+02	-2.697881e+01
2.680489e+02	-2.702953e+01
2.695972e+02	-2.707746e+01
2.711544e+02	-2.712875e+01
2.727205e+02	-2.717864e+01
2.742958e+02	-2.723199e+01
2.758801e+02	-2.728243e+01
2.774736e+02	-2.732538e+01
2.790762e+02	-2.737713e+01
2.806882e+02	-2.742929e+01
2.823094e+02	-2.748049e+01
2.839400e+02	-2.753102e+01
2.855800e+02	-2.757886e+01
2.872295e+02	-2.762889e+01
2.888886e+02	-2.768065e+01
2.905572e+02	-2.772609e+01
2.922354e+02	-2.777524e+01
2.939234e+02	-2.782920e+01
2.956211e+02	-2.788059e+01
2.973286e+02	-2.792549e+01
2.990459e+02	-2.798053e+01
3.007732e+02	-2.803071e+01
3.025104e+02	-2.807872e+01
3.042577e+02	-2.813063e+01
3.060151e+02	-2.817897e+01
3.077826e+02	-2.822967e+01
3.095604e+02	-2.827561e+01
3.113484e+02	-2.832781e+01
3.131467e+02	-2.838054e+01
3.149554e+02	-2.842690e+01
3.167746e+02	-2.848219e+01
3.186043e+02	-2.852489e+01
3.204445e+02	-2.858347e+01
3.222954e+02	-2.863110e+01
3.241570e+02	-2.867925e+01
3.260293e+02	-2.872541e+01
3.279124e+02	-2.877963e+01
3.298064e+02	-2.882838e+01
3.317114e+02	-2.887967e+01
3.336273e+02	-2.893239e+01
3.355544e+02	-2.897807e+01
3.374925e+02	-2.902878e+01
3.394418e+02	-2.907720e+01
3.414024e+02	-2.912811e+01
3.433744e+02	-2.917721e+01
3.453577e+02	-2.923288e+01
3.473525e+02	-2.927833e+01
3.493588e+02	-2.932889e+01
3.513766e+02	-2.937927e+01
3.534062e+02	-2.943399e+01
3.554474e+02	-2.948017e+01
3.575005e+02	-2.952929e+01
3.595654e+02	-2.958416e+01
3.616422e+02	-2.962697e+01
3.637311e+02	-2.967995e+01
3.658320e+02	-2.972966e+01
3.679450e+02	-2.978052e+01
3.700702e+02	-2.983157e+01
3.722077e+02	-2.988343e+01
3.743576e+02	-2.993153e+01
3.765199e+02	-2.998026e+01
3.786946e+02	-3.002562e+01
3.808820e+02	-3.007593e+01
3.830819e+02	-3.012988e+01
3.852946e+02	-3.018303e+01
3.875200e+02	-3.022698e+01
3.897583e+02	-3.027750e+01
3.920096e+02	-3.033496e+01
3.942738e+02	-3.037809e+01
3.965511e+02	-3.043172e+01
3.988416e+02	-3.048616e+01
4.011452e+02	-3.052932e+01
4.034622e+02	-3.058377e+01
4.057926e+02	-3.063146e+01
4.081365e+02	-3.068182e+01
4.104938e+02	-3.073266e+01
4.128648e+02	-3.078839e+01
4.152495e+02	-3.083060e+01
4.176480e+02	-3.088122e+01
4.200603e+02	-3.093389e+01
4.224866e+02	-3.098311e+01
4.249268e+02	-3.103887e+01
4.273812e+02	-3.108206e+01
4.298497e+02	-3.113390e+01
4.323325e+02	-3.118266e+01
4.348297e+02	-3.123504e+01
4.373412e+02	-3.128589e+01
4.398673e+02	-3.133680e+01
4.424079e+02	-3.138022e+01
4.449633e+02	-3.143951e+01
4.475334e+02	-3.148419e+01
4.501183e+02	-3.153609e+01
4.527182e+02	-3.158633e+01
4.553330e+02	-3.162801e+01
4.579630e+02	-3.167885e+01
4.606082e+02	-3.173438e+01
4.632687e+02	-3.178490e+01
4.659445e+02	-3.183448e+01
4.686358e+02	-3.188758e+01
4.713426e+02	-3.193426e+01
4.740650e+02	-3.198779e+01
4.768032e+02	-3.203736e+01
4.795572e+02	-3.209196e+01
4.823271e+02	-3.213610e+01
4.851130e+02	-3.218883e+01
4.879150e+02	-3.223718e+01
4.907332e+02	-3.228924e+01
4.935676e+02	-3.233590e+01
4.964185e+02	-3.238806e+01
4.992858e+02	-3.243762e+01
5.021696e+02	-3.248740e+01
5.050701e+02	-3.253624e+01
5.079874e+02	-3.259014e+01
5.109215e+02	-3.264037e+01
5.138726e+02	-3.268874e+01
5.168407e+02	-3.273946e+01
5.198259e+02	-3.279102e+01
5.228284e+02	-3.284550e+01
5.258482e+02	-3.289327e+01
5.288855e+02	-3.294150e+01
5.319403e+02	-3.298824e+01
5.350128e+02	-3.304072e+01
5.381030e+02	-3.309371e+01
5.412111e+02	-3.313229e+01
5.443371e+02	-3.319128e+01
5.474812e+02	-3.324511e+01
5.506434e+02	-3.328269e+01
5.538239e+02	-3.334185e+01
5.570228e+02	-3.339253e+01
5.602401e+02	-3.344989e+01
5.634760e+02	-3.348977e+01
5.667306e+02	-3.353829e+01
5.700040e+02	-3.359701e+01
5.732964e+02	-3.364186e+01
5.766077e+02	-3.369134e+01
5.799382e+02	-3.374407e+01
5.832879e+02	-3.379085e+01
5.866569e+02	-3.385131e+01
5.900454e+02	-3.390076e+01
5.934535e+02	-3.394591e+01
5.968813e+02	-3.399824e+01
6.003288e+02	-3.404826e+01
6.037963e+02	-3.408818e+01
6.072838e+02	-3.414864e+01
6.107914e+02	-3.419475e+01
6.143194e+02	-3.424723e+01
6.178676e+02	-3.429749e+01
6.214364e+02	-3.434922e+01
6.250258e+02	-3.439562e+01
6.286359e+02	-3.445404e+01
6.322669e+02	-3.450042e+01
6.359189e+02	-3.455824e+01
6.395919e+02	-3.460010e+01
6.432862e+02	-3.465367e+01
6.470017e+02	-3.470180e+01
6.507388e+02	-3.474133e+01
6.544974e+02	-3.479521e+01
6.582778e+02	-3.485733e+01
6.620800e+02	-3.489740e+01
6.659041e+02	-3.495036e+01
6.697504e+02	-3.500118e+01
6.736188e+02	-3.505075e+01
6.775096e+02	-3.509827e+01
6.814229e+02	-3.515345e+01
6.853587e+02	-3.519937e+01
6.893173e+02	-3.525994e+01
6.932988e+02	-3.530553e+01
6.973033e+02	-3.535285e+01
7.013309e+02	-3.540071e+01
