Frequency(Hz)	Magnitude(dB)
1.000000e+01	-1.627994e-05
1.005776e+01	-1.646854e-05
1.011585e+01	-1.665934e-05
1.017428e+01	-1.685234e-05
1.023305e+01	-1.704758e-05
1.029215e+01	-1.724508e-05
1.035160e+01	-1.744487e-05
1.041139e+01	-1.764697e-05
1.047153e+01	-1.785142e-05
1.053201e+01	-1.805823e-05
1.059284e+01	-1.826744e-05
1.065403e+01	-1.847907e-05
1.071556e+01	-1.869316e-05
1.077746e+01	-1.890972e-05
1.083971e+01	-1.912880e-05
1.090232e+01	-1.935041e-05
1.096529e+01	-1.957459e-05
1.102862e+01	-1.980136e-05
1.109232e+01	-2.003077e-05
1.115639e+01	-2.026283e-05
1.122083e+01	-2.049758e-05
1.128564e+01	-2.073505e-05
1.135083e+01	-2.097527e-05
1.141639e+01	-2.121827e-05
1.148233e+01	-2.146409e-05
1.154865e+01	-2.171276e-05
1.161536e+01	-2.196431e-05
1.168245e+01	-2.221877e-05
1.174992e+01	-2.247618e-05
1.181779e+01	-2.273657e-05
1.188605e+01	-2.299998e-05
1.195470e+01	-2.326644e-05
1.202375e+01	-2.353599e-05
1.209320e+01	-2.380866e-05
1.216305e+01	-2.408449e-05
1.223330e+01	-2.436351e-05
1.230396e+01	-2.464577e-05
1.237503e+01	-2.493130e-05
1.244651e+01	-2.522013e-05
1.251840e+01	-2.551231e-05
1.259070e+01	-2.580788e-05
1.266343e+01	-2.610687e-05
1.273657e+01	-2.640932e-05
1.281014e+01	-2.671528e-05
1.288413e+01	-2.702479e-05
1.295855e+01	-2.733787e-05
1.303339e+01	-2.765459e-05
1.310867e+01	-2.797498e-05
1.318439e+01	-2.829907e-05
1.326054e+01	-2.862692e-05
1.333713e+01	-2.895857e-05
1.341417e+01	-2.929407e-05
1.349165e+01	-2.963344e-05
1.356958e+01	-2.997676e-05
1.364795e+01	-3.032404e-05
1.372678e+01	-3.067535e-05
1.380607e+01	-3.103074e-05
1.388581e+01	-3.139023e-05
1.396602e+01	-3.175390e-05
1.404668e+01	-3.212177e-05
1.412782e+01	-3.249391e-05
1.420942e+01	-3.287036e-05
1.429149e+01	-3.325117e-05
1.437404e+01	-3.363640e-05
1.445706e+01	-3.402608e-05
1.454057e+01	-3.442028e-05
1.462455e+01	-3.481905e-05
1.470902e+01	-3.522243e-05
1.479398e+01	-3.563049e-05
1.487943e+01	-3.604328e-05
1.496537e+01	-3.646085e-05
1.505181e+01	-3.688326e-05
1.513875e+01	-3.731056e-05
1.522619e+01	-3.774281e-05
1.531414e+01	-3.818007e-05
1.540259e+01	-3.862240e-05
1.549156e+01	-3.906984e-05
1.558103e+01	-3.952248e-05
1.567103e+01	-3.998035e-05
1.576155e+01	-4.044354e-05
1.585258e+01	-4.091208e-05
1.594415e+01	-4.138606e-05
1.603624e+01	-4.186553e-05
1.612886e+01	-4.235055e-05
1.622202e+01	-4.284119e-05
1.631572e+01	-4.333751e-05
1.640996e+01	-4.383959e-05
1.650474e+01	-4.434748e-05
1.660008e+01	-4.486125e-05
1.669596e+01	-4.538098e-05
1.679239e+01	-4.590673e-05
1.688938e+01	-4.643857e-05
1.698694e+01	-4.697657e-05
1.708505e+01	-4.752080e-05
1.718373e+01	-4.807134e-05
1.728299e+01	-4.862826e-05
1.738281e+01	-4.919163e-05
1.748322e+01	-4.976152e-05
1.758420e+01	-5.033802e-05
1.768576e+01	-5.092120e-05
1.778792e+01	-5.151113e-05
1.789066e+01	-5.210790e-05
1.799399e+01	-5.271158e-05
1.809793e+01	-5.332225e-05
1.820246e+01	-5.394000e-05
1.830760e+01	-5.456491e-05
1.841334e+01	-5.519706e-05
1.851969e+01	-5.583653e-05
1.862666e+01	-5.648340e-05
1.873425e+01	-5.713777e-05
1.884246e+01	-5.779973e-05
1.895129e+01	-5.846935e-05
1.906075e+01	-5.914673e-05
1.917085e+01	-5.983195e-05
1.928158e+01	-6.052512e-05
1.939295e+01	-6.122632e-05
1.950496e+01	-6.193563e-05
1.961762e+01	-6.265317e-05
1.973093e+01	-6.337902e-05
1.984490e+01	-6.411328e-05
1.995952e+01	-6.485604e-05
2.007480e+01	-6.560741e-05
2.019076e+01	-6.636749e-05
2.030738e+01	-6.713637e-05
2.042467e+01	-6.791415e-05
2.054264e+01	-6.870095e-05
2.066130e+01	-6.949687e-05
2.078064e+01	-7.030200e-05
2.090066e+01	-7.111646e-05
2.102139e+01	-7.194036e-05
2.114280e+01	-7.277380e-05
2.126492e+01	-7.361690e-05
2.138775e+01	-7.446976e-05
2.151128e+01	-7.533251e-05
2.163553e+01	-7.620525e-05
2.176050e+01	-7.708810e-05
2.188619e+01	-7.798118e-05
2.201260e+01	-7.888461e-05
2.213974e+01	-7.979850e-05
2.226762e+01	-8.072298e-05
2.239624e+01	-8.165817e-05
2.252560e+01	-8.260419e-05
2.265571e+01	-8.356117e-05
2.278656e+01	-8.452924e-05
2.291818e+01	-8.550853e-05
2.305055e+01	-8.649916e-05
2.318369e+01	-8.750127e-05
2.331760e+01	-8.851498e-05
2.345228e+01	-8.954044e-05
2.358774e+01	-9.057778e-05
2.372398e+01	-9.162714e-05
2.386101e+01	-9.268866e-05
2.399883e+01	-9.376247e-05
2.413745e+01	-9.484872e-05
2.427686e+01	-9.594756e-05
2.441709e+01	-9.705913e-05
2.455812e+01	-9.818357e-05
2.469997e+01	-9.932104e-05
2.484263e+01	-1.004717e-04
2.498612e+01	-1.016357e-04
2.513044e+01	-1.028131e-04
2.527559e+01	-1.040042e-04
2.542158e+01	-1.052091e-04
2.556842e+01	-1.064280e-04
2.571610e+01	-1.076610e-04
2.586463e+01	-1.089083e-04
2.601403e+01	-1.101700e-04
2.616428e+01	-1.114463e-04
2.631541e+01	-1.127374e-04
2.646740e+01	-1.140435e-04
2.662028e+01	-1.153647e-04
2.677404e+01	-1.167012e-04
2.692868e+01	-1.180532e-04
2.708422e+01	-1.194209e-04
2.724066e+01	-1.208044e-04
2.739800e+01	-1.222039e-04
2.755625e+01	-1.236197e-04
2.771541e+01	-1.250518e-04
2.787550e+01	-1.265006e-04
2.803650e+01	-1.279661e-04
2.819844e+01	-1.294486e-04
2.836131e+01	-1.309483e-04
2.852513e+01	-1.324653e-04
2.868989e+01	-1.339999e-04
2.885560e+01	-1.355523e-04
2.902227e+01	-1.371227e-04
2.918990e+01	-1.387113e-04
2.935850e+01	-1.403183e-04
2.952807e+01	-1.419439e-04
2.969863e+01	-1.435883e-04
2.987016e+01	-1.452518e-04
3.004269e+01	-1.469345e-04
3.021622e+01	-1.486368e-04
3.039075e+01	-1.503588e-04
3.056628e+01	-1.521007e-04
3.074283e+01	-1.538628e-04
3.092040e+01	-1.556453e-04
3.109900e+01	-1.574484e-04
3.127862e+01	-1.592725e-04
3.145929e+01	-1.611177e-04
3.164099e+01	-1.629842e-04
3.182375e+01	-1.648724e-04
3.200756e+01	-1.667825e-04
3.219244e+01	-1.687147e-04
3.237838e+01	-1.706692e-04
3.256540e+01	-1.726464e-04
3.275349e+01	-1.746466e-04
3.294268e+01	-1.766698e-04
3.313295e+01	-1.787166e-04
3.332433e+01	-1.807870e-04
3.351681e+01	-1.828814e-04
3.371040e+01	-1.850001e-04
3.390511e+01	-1.871434e-04
3.410094e+01	-1.893114e-04
3.429791e+01	-1.915046e-04
3.449601e+01	-1.937232e-04
3.469526e+01	-1.959675e-04
3.489566e+01	-1.982378e-04
3.509721e+01	-2.005343e-04
3.529993e+01	-2.028575e-04
3.550382e+01	-2.052076e-04
3.570889e+01	-2.075850e-04
3.591515e+01	-2.099898e-04
3.612259e+01	-2.124226e-04
3.633123e+01	-2.148835e-04
3.654108e+01	-2.173729e-04
3.675214e+01	-2.198912e-04
3.696442e+01	-2.224386e-04
3.717792e+01	-2.250155e-04
3.739266e+01	-2.276223e-04
3.760864e+01	-2.302593e-04
3.782587e+01	-2.329269e-04
3.804435e+01	-2.356253e-04
3.826409e+01	-2.383551e-04
3.848510e+01	-2.411164e-04
3.870739e+01	-2.439097e-04
3.893096e+01	-2.467354e-04
3.915583e+01	-2.495938e-04
3.938199e+01	-2.524853e-04
3.960946e+01	-2.554104e-04
3.983824e+01	-2.583693e-04
4.006834e+01	-2.613625e-04
4.029978e+01	-2.643903e-04
4.053255e+01	-2.674533e-04
4.076666e+01	-2.705517e-04
4.100213e+01	-2.736860e-04
4.123896e+01	-2.768566e-04
4.147715e+01	-2.800640e-04
4.171672e+01	-2.833085e-04
4.195767e+01	-2.865906e-04
4.220002e+01	-2.899107e-04
4.244377e+01	-2.932693e-04
4.268892e+01	-2.966668e-04
4.293549e+01	-3.001037e-04
4.318348e+01	-3.035803e-04
4.343291e+01	-3.070973e-04
4.368377e+01	-3.106549e-04
4.393609e+01	-3.142538e-04
4.418986e+01	-3.178944e-04
4.444510e+01	-3.215772e-04
4.470182e+01	-3.253026e-04
4.496001e+01	-3.290712e-04
4.521970e+01	-3.328834e-04
4.548089e+01	-3.367398e-04
4.574358e+01	-3.406409e-04
4.600779e+01	-3.445871e-04
4.627353e+01	-3.485791e-04
4.654081e+01	-3.526173e-04
4.680963e+01	-3.567023e-04
4.708000e+01	-3.608347e-04
4.735193e+01	-3.650149e-04
4.762543e+01	-3.692435e-04
4.790051e+01	-3.735211e-04
4.817719e+01	-3.778482e-04
4.845545e+01	-3.822255e-04
4.873533e+01	-3.866535e-04
4.901682e+01	-3.911328e-04
4.929994e+01	-3.956640e-04
4.958470e+01	-4.002476e-04
4.987110e+01	-4.048844e-04
5.015915e+01	-4.095749e-04
5.044887e+01	-4.143197e-04
5.074026e+01	-4.191195e-04
5.103333e+01	-4.239748e-04
5.132810e+01	-4.288865e-04
5.162457e+01	-4.338550e-04
5.192275e+01	-4.388811e-04
5.222265e+01	-4.439654e-04
5.252429e+01	-4.491086e-04
5.282767e+01	-4.543113e-04
5.313280e+01	-4.595744e-04
5.343969e+01	-4.648984e-04
5.374836e+01	-4.702841e-04
5.405880e+01	-4.757321e-04
5.437105e+01	-4.812433e-04
5.468509e+01	-4.868184e-04
5.500095e+01	-4.924580e-04
5.531863e+01	-4.981629e-04
5.563815e+01	-5.039339e-04
5.595951e+01	-5.097718e-04
5.628273e+01	-5.156773e-04
5.660782e+01	-5.216512e-04
5.693479e+01	-5.276943e-04
5.726364e+01	-5.338074e-04
5.759439e+01	-5.399913e-04
5.792705e+01	-5.462469e-04
5.826164e+01	-5.525749e-04
5.859815e+01	-5.589762e-04
5.893662e+01	-5.654517e-04
5.927703e+01	-5.720022e-04
5.961941e+01	-5.786285e-04
5.996377e+01	-5.853317e-04
6.031012e+01	-5.921124e-04
6.065847e+01	-5.989717e-04
6.100883e+01	-6.059105e-04
6.136121e+01	-6.129296e-04
6.171563e+01	-6.200301e-04
6.207210e+01	-6.272128e-04
6.243063e+01	-6.344787e-04
6.279122e+01	-6.418288e-04
6.315390e+01	-6.492640e-04
6.351868e+01	-6.567853e-04
6.388556e+01	-6.643938e-04
6.425456e+01	-6.720904e-04
6.462569e+01	-6.798761e-04
6.499897e+01	-6.877520e-04
6.537440e+01	-6.957192e-04
6.575200e+01	-7.037786e-04
6.613178e+01	-7.119314e-04
6.651375e+01	-7.201787e-04
6.689793e+01	-7.285214e-04
6.728433e+01	-7.369608e-04
6.767297e+01	-7.454980e-04
6.806384e+01	-7.541341e-04
6.845698e+01	-7.628701e-04
6.885238e+01	-7.717074e-04
6.925007e+01	-7.806470e-04
6.965005e+01	-7.896902e-04
7.005235e+01	-7.988382e-04
7.045697e+01	-8.080921e-04
7.086393e+01	-8.174532e-04
7.127323e+01	-8.269227e-04
7.168490e+01	-8.365019e-04
7.209895e+01	-8.461920e-04
7.251539e+01	-8.559944e-04
7.293424e+01	-8.659104e-04
7.335551e+01	-8.759412e-04
7.377920e+01	-8.860882e-04
7.420535e+01	-8.963527e-04
7.463396e+01	-9.067361e-04
7.506504e+01	-9.172398e-04
7.549861e+01	-9.278651e-04
7.593469e+01	-9.386135e-04
7.637328e+01	-9.494864e-04
7.681441e+01	-9.604852e-04
7.725809e+01	-9.716115e-04
7.770433e+01	-9.828666e-04
7.815315e+01	-9.942521e-04
7.860456e+01	-1.005769e-03
7.905857e+01	-1.017420e-03
7.951521e+01	-1.029206e-03
7.997449e+01	-1.041128e-03
8.043642e+01	-1.053188e-03
8.090102e+01	-1.065388e-03
8.136830e+01	-1.077730e-03
8.183828e+01	-1.090214e-03
8.231097e+01	-1.102843e-03
8.278640e+01	-1.115618e-03
8.326457e+01	-1.128541e-03
8.374550e+01	-1.141614e-03
8.422921e+01	-1.154838e-03
8.471572e+01	-1.168215e-03
8.520503e+01	-1.181747e-03
8.569717e+01	-1.195436e-03
8.619215e+01	-1.209284e-03
8.669000e+01	-1.223292e-03
8.719071e+01	-1.237462e-03
8.769432e+01	-1.251796e-03
8.820084e+01	-1.266296e-03
8.871029e+01	-1.280965e-03
8.922267e+01	-1.295803e-03
8.973802e+01	-1.310813e-03
9.025634e+01	-1.325996e-03
9.077766e+01	-1.341356e-03
9.130199e+01	-1.356894e-03
9.182935e+01	-1.372611e-03
9.235975e+01	-1.388511e-03
9.289321e+01	-1.404594e-03
9.342976e+01	-1.420864e-03
9.396941e+01	-1.437323e-03
9.451217e+01	-1.453972e-03
9.505807e+01	-1.470813e-03
9.560712e+01	-1.487850e-03
9.615934e+01	-1.505084e-03
9.671476e+01	-1.522518e-03
9.727338e+01	-1.540154e-03
9.783522e+01	-1.557994e-03
9.840032e+01	-1.576040e-03
9.896867e+01	-1.594296e-03
9.954031e+01	-1.612763e-03
1.001153e+02	-1.631443e-03
1.006935e+02	-1.650341e-03
1.012751e+02	-1.669456e-03
1.018601e+02	-1.688794e-03
1.024484e+02	-1.708355e-03
1.030402e+02	-1.728143e-03
1.036353e+02	-1.748160e-03
1.042339e+02	-1.768409e-03
1.048360e+02	-1.788892e-03
1.054415e+02	-1.809612e-03
1.060505e+02	-1.830573e-03
1.066631e+02	-1.851776e-03
1.072791e+02	-1.873225e-03
1.078988e+02	-1.894922e-03
1.085220e+02	-1.916870e-03
1.091488e+02	-1.939073e-03
1.097793e+02	-1.961532e-03
1.104133e+02	-1.984252e-03
1.110511e+02	-2.007235e-03
1.116925e+02	-2.030484e-03
1.123376e+02	-2.054002e-03
1.129865e+02	-2.077792e-03
1.136391e+02	-2.101858e-03
1.142955e+02	-2.126203e-03
1.149556e+02	-2.150829e-03
1.156196e+02	-2.175741e-03
1.162874e+02	-2.200941e-03
1.169591e+02	-2.226433e-03
1.176347e+02	-2.252220e-03
1.183141e+02	-2.278306e-03
1.189975e+02	-2.304694e-03
1.196848e+02	-2.331387e-03
1.203761e+02	-2.358389e-03
1.210714e+02	-2.385704e-03
1.217707e+02	-2.413336e-03
1.224740e+02	-2.441287e-03
1.231814e+02	-2.469562e-03
1.238929e+02	-2.498164e-03
1.246085e+02	-2.527098e-03
1.253283e+02	-2.556366e-03
1.260522e+02	-2.585973e-03
1.267802e+02	-2.615924e-03
1.275125e+02	-2.646221e-03
1.282490e+02	-2.676868e-03
1.289898e+02	-2.707871e-03
1.297348e+02	-2.739232e-03
1.304842e+02	-2.770957e-03
1.312378e+02	-2.803049e-03
1.319959e+02	-2.835512e-03
1.327583e+02	-2.868351e-03
1.335251e+02	-2.901571e-03
1.342963e+02	-2.935175e-03
1.350720e+02	-2.969168e-03
1.358522e+02	-3.003555e-03
1.366368e+02	-3.038340e-03
1.374260e+02	-3.073527e-03
1.382198e+02	-3.109122e-03
1.390182e+02	-3.145129e-03
1.398211e+02	-3.181553e-03
1.406287e+02	-3.218398e-03
1.414410e+02	-3.255670e-03
1.422579e+02	-3.293374e-03
1.430796e+02	-3.331514e-03
1.439060e+02	-3.370095e-03
1.447372e+02	-3.409123e-03
1.455732e+02	-3.448603e-03
1.464141e+02	-3.488540e-03
1.472597e+02	-3.528939e-03
1.481103e+02	-3.569806e-03
1.489658e+02	-3.611146e-03
1.498262e+02	-3.652964e-03
1.506916e+02	-3.695267e-03
1.515620e+02	-3.738059e-03
1.524374e+02	-3.781347e-03
1.533179e+02	-3.825135e-03
1.542034e+02	-3.869430e-03
1.550941e+02	-3.914239e-03
1.559899e+02	-3.959565e-03
1.568909e+02	-4.005417e-03
1.577971e+02	-4.051799e-03
1.587085e+02	-4.098718e-03
1.596252e+02	-4.146180e-03
1.605472e+02	-4.194191e-03
1.614745e+02	-4.242758e-03
1.624072e+02	-4.291887e-03
1.633453e+02	-4.341585e-03
1.642887e+02	-4.391858e-03
1.652377e+02	-4.442713e-03
1.661921e+02	-4.494156e-03
1.671520e+02	-4.546195e-03
1.681175e+02	-4.598836e-03
1.690885e+02	-4.652086e-03
1.700651e+02	-4.705952e-03
1.710474e+02	-4.760442e-03
1.720354e+02	-4.815562e-03
1.730291e+02	-4.871320e-03
1.740285e+02	-4.927724e-03
1.750337e+02	-4.984780e-03
1.760446e+02	-5.042496e-03
1.770615e+02	-5.100880e-03
1.780842e+02	-5.159940e-03
1.791128e+02	-5.219683e-03
1.801473e+02	-5.280118e-03
1.811878e+02	-5.341252e-03
1.822344e+02	-5.403093e-03
1.832870e+02	-5.465650e-03
1.843456e+02	-5.528930e-03
1.854104e+02	-5.592943e-03
1.864813e+02	-5.657696e-03
1.875584e+02	-5.723199e-03
1.886418e+02	-5.789460e-03
1.897313e+02	-5.856487e-03
1.908272e+02	-5.924289e-03
1.919294e+02	-5.992876e-03
1.930380e+02	-6.062256e-03
1.941530e+02	-6.132440e-03
1.952744e+02	-6.203435e-03
1.964023e+02	-6.275251e-03
1.975367e+02	-6.347898e-03
1.986777e+02	-6.421386e-03
1.998252e+02	-6.495723e-03
2.009794e+02	-6.570921e-03
2.021403e+02	-6.646988e-03
2.033078e+02	-6.723935e-03
2.044821e+02	-6.801773e-03
2.056632e+02	-6.880510e-03
2.068511e+02	-6.960159e-03
2.080459e+02	-7.040729e-03
2.092475e+02	-7.122230e-03
2.104561e+02	-7.204674e-03
2.116717e+02	-7.288072e-03
2.128943e+02	-7.372434e-03
2.141240e+02	-7.457772e-03
2.153608e+02	-7.544097e-03
2.166047e+02	-7.631421e-03
2.178558e+02	-7.719754e-03
2.191141e+02	-7.809109e-03
2.203797e+02	-7.899497e-03
2.216526e+02	-7.990930e-03
2.229329e+02	-8.083420e-03
2.242205e+02	-8.176980e-03
2.255156e+02	-8.271622e-03
2.268182e+02	-8.367359e-03
2.281283e+02	-8.464202e-03
2.294459e+02	-8.562165e-03
2.307712e+02	-8.661261e-03
2.321041e+02	-8.761502e-03
2.334447e+02	-8.862902e-03
2.347931e+02	-8.965475e-03
2.361493e+02	-9.069234e-03
2.375133e+02	-9.174192e-03
2.388851e+02	-9.280363e-03
2.402649e+02	-9.387762e-03
2.416527e+02	-9.496402e-03
2.430484e+02	-9.606298e-03
2.444523e+02	-9.717465e-03
2.458642e+02	-9.829916e-03
2.472843e+02	-9.943668e-03
2.487126e+02	-1.005873e-02
2.501492e+02	-1.017513e-02
2.515940e+02	-1.029287e-02
2.530472e+02	-1.041197e-02
2.545088e+02	-1.053245e-02
2.559789e+02	-1.065432e-02
2.574574e+02	-1.077760e-02
2.589444e+02	-1.090231e-02
2.604401e+02	-1.102845e-02
2.619444e+02	-1.115605e-02
2.634574e+02	-1.128513e-02
2.649791e+02	-1.141570e-02
2.665096e+02	-1.154778e-02
2.680489e+02	-1.168138e-02
2.695972e+02	-1.181653e-02
2.711544e+02	-1.195324e-02
2.727205e+02	-1.209152e-02
2.742958e+02	-1.223141e-02
2.758801e+02	-1.237291e-02
2.774736e+02	-1.251605e-02
2.790762e+02	-1.266084e-02
2.806882e+02	-1.280730e-02
2.823094e+02	-1.295545e-02
2.839400e+02	-1.310532e-02
2.855800e+02	-1.325691e-02
2.872295e+02	-1.341026e-02
2.888886e+02	-1.356538e-02
2.905572e+02	-1.372229e-02
2.922354e+02	-1.388101e-02
2.939234e+02	-1.404156e-02
2.956211e+02	-1.420397e-02
2.973286e+02	-1.436826e-02
2.990459e+02	-1.453444e-02
3.007732e+02	-1.470253e-02
3.025104e+02	-1.487257e-02
3.042577e+02	-1.504458e-02
3.060151e+02	-1.521857e-02
3.077826e+02	-1.539456e-02
3.095604e+02	-1.557259e-02
3.113484e+02	-1.575268e-02
3.131467e+02	-1.593484e-02
3.149554e+02	-1.611911e-02
3.167746e+02	-1.630550e-02
3.186043e+02	-1.649404e-02
3.204445e+02	-1.668476e-02
3.222954e+02	-1.687768e-02
3.241570e+02	-1.707283e-02
3.260293e+02	-1.727023e-02
3.279124e+02	-1.746990e-02
3.298064e+02	-1.767188e-02
3.317114e+02	-1.787619e-02
3.336273e+02	-1.808286e-02
3.355544e+02	-1.829191e-02
3.374925e+02	-1.850338e-02
3.394418e+02	-1.871728e-02
3.414024e+02	-1.893365e-02
3.433744e+02	-1.915251e-02
3.453577e+02	-1.937391e-02
3.473525e+02	-1.959785e-02
3.493588e+02	-1.982437e-02
3.513766e+02	-2.005351e-02
3.534062e+02	-2.028529e-02
3.554474e+02	-2.051975e-02
3.575005e+02	-2.075690e-02
3.595654e+02	-2.099679e-02
3.616422e+02	-2.123945e-02
3.637311e+02	-2.148490e-02
3.658320e+02	-2.173319e-02
3.679450e+02	-2.198433e-02
3.700702e+02	-2.223837e-02
3.722077e+02	-2.249534e-02
3.743576e+02	-2.275527e-02
3.765199e+02	-2.301820e-02
3.786946e+02	-2.328415e-02
3.808820e+02	-2.355317e-02
3.830819e+02	-2.382529e-02
3.852946e+02	-2.410054e-02
3.875200e+02	-2.437897e-02
3.897583e+02	-2.466060e-02
3.920096e+02	-2.494547e-02
3.942738e+02	-2.523363e-02
3.965511e+02	-2.552511e-02
3.988416e+02	-2.581994e-02
4.011452e+02	-2.611817e-02
4.034622e+02	-2.641983e-02
4.057926e+02	-2.672497e-02
4.081365e+02	-2.703362e-02
4.104938e+02	-2.734582e-02
4.128648e+02	-2.766162e-02
4.152495e+02	-2.798105e-02
4.176480e+02	-2.830416e-02
4.200603e+02	-2.863098e-02
4.224866e+02	-2.896157e-02
4.249268e+02	-2.929596e-02
4.273812e+02	-2.963420e-02
4.298497e+02	-2.997633e-02
4.323325e+02	-3.032240e-02
4.348297e+02	-3.067245e-02
4.373412e+02	-3.102653e-02
4.398673e+02	-3.138467e-02
4.424079e+02	-3.174694e-02
4.449633e+02	-3.211337e-02
4.475334e+02	-3.248402e-02
4.501183e+02	-3.285893e-02
4.527182e+02	-3.323815e-02
4.553330e+02	-3.362172e-02
4.579630e+02	-3.400971e-02
4.606082e+02	-3.440216e-02
4.632687e+02	-3.479911e-02
4.659445e+02	-3.520063e-02
4.686358e+02	-3.560677e-02
4.713426e+02	-3.601756e-02
4.740650e+02	-3.643308e-02
4.768032e+02	-3.685337e-02
4.795572e+02	-3.727849e-02
4.823271e+02	-3.770849e-02
4.851130e+02	-3.814343e-02
4.879150e+02	-3.858337e-02
4.907332e+02	-3.902835e-02
4.935676e+02	-3.947845e-02
4.964185e+02	-3.993371e-02
4.992858e+02	-4.039419e-02
5.021696e+02	-4.085996e-02
5.050701e+02	-4.133108e-02
5.079874e+02	-4.180760e-02
5.109215e+02	-4.228959e-02
5.138726e+02	-4.277711e-02
5.168407e+02	-4.327022e-02
5.198259e+02	-4.376898e-02
5.228284e+02	-4.427347e-02
5.258482e+02	-4.478374e-02
5.288855e+02	-4.529986e-02
5.319403e+02	-4.582189e-02
5.350128e+02	-4.634991e-02
5.381030e+02	-4.688398e-02
5.412111e+02	-4.742418e-02
5.443371e+02	-4.797056e-02
5.474812e+02	-4.852320e-02
5.506434e+02	-4.908217e-02
5.538239e+02	-4.964755e-02
5.570228e+02	-5.021939e-02
5.602401e+02	-5.079779e-02
5.634760e+02	-5.138281e-02
5.667306e+02	-5.197452e-02
5.700040e+02	-5.257301e-02
5.732964e+02	-5.317835e-02
5.766077e+02	-5.379062e-02
5.799382e+02	-5.440988e-02
5.832879e+02	-5.503624e-02
5.866569e+02	-5.566976e-02
5.900454e+02	-5.631052e-02
5.934535e+02	-5.695861e-02
5.968813e+02	-5.761411e-02
6.003288e+02	-5.827710e-02
6.037963e+02	-5.894766e-02
6.072838e+02	-5.962590e-02
6.107914e+02	-6.031188e-02
6.143194e+02	-6.100569e-02
6.178676e+02	-6.170744e-02
6.214364e+02	-6.241719e-02
6.250258e+02	-6.313505e-02
6.286359e+02	-6.386110e-02
6.322669e+02	-6.459545e-02
6.359189e+02	-6.533817e-02
6.395919e+02	-6.608937e-02
6.432862e+02	-6.684913e-02
6.470017e+02	-6.761757e-02
6.507388e+02	-6.839476e-02
6.544974e+02	-6.918082e-02
6.582778e+02	-6.997584e-02
6.620800e+02	-7.077992e-02
6.659041e+02	-7.159317e-02
6.697504e+02	-7.241568e-02
6.736188e+02	-7.324755e-02
6.775096e+02	-7.408891e-02
6.814229e+02	-7.493984e-02
6.853587e+02	-7.580047e-02
6.893173e+02	-7.667088e-02
6.932988e+02	-7.755121e-02
6.973033e+02	-7.844155e-02
7.013309e+02	-7.934202e-02
