Frequency(Hz)	Magnitude(dB)
1.000000e+01	-1.796359e-05
1.005776e+01	-1.817171e-05
1.011585e+01	-1.838223e-05
1.017428e+01	-1.859519e-05
1.023305e+01	-1.881062e-05
1.029215e+01	-1.902855e-05
1.035160e+01	-1.924900e-05
1.041139e+01	-1.947200e-05
1.047153e+01	-1.969759e-05
1.053201e+01	-1.992579e-05
1.059284e+01	-2.015664e-05
1.065403e+01	-2.039016e-05
1.071556e+01	-2.062638e-05
1.077746e+01	-2.086535e-05
1.083971e+01	-2.110708e-05
1.090232e+01	-2.135161e-05
1.096529e+01	-2.159897e-05
1.102862e+01	-2.184920e-05
1.109232e+01	-2.210233e-05
1.115639e+01	-2.235839e-05
1.122083e+01	-2.261742e-05
1.128564e+01	-2.287945e-05
1.135083e+01	-2.314451e-05
1.141639e+01	-2.341264e-05
1.148233e+01	-2.368389e-05
1.154865e+01	-2.395827e-05
1.161536e+01	-2.423583e-05
1.168245e+01	-2.451661e-05
1.174992e+01	-2.480064e-05
1.181779e+01	-2.508796e-05
1.188605e+01	-2.537861e-05
1.195470e+01	-2.567263e-05
1.202375e+01	-2.597005e-05
1.209320e+01	-2.627092e-05
1.216305e+01	-2.657528e-05
1.223330e+01	-2.688316e-05
1.230396e+01	-2.719461e-05
1.237503e+01	-2.750966e-05
1.244651e+01	-2.782837e-05
1.251840e+01	-2.815077e-05
1.259070e+01	-2.847690e-05
1.266343e+01	-2.880681e-05
1.273657e+01	-2.914055e-05
1.281014e+01	-2.947815e-05
1.288413e+01	-2.981966e-05
1.295855e+01	-3.016513e-05
1.303339e+01	-3.051460e-05
1.310867e+01	-3.086812e-05
1.318439e+01	-3.122573e-05
1.326054e+01	-3.158749e-05
1.333713e+01	-3.195344e-05
1.341417e+01	-3.232362e-05
1.349165e+01	-3.269810e-05
1.356958e+01	-3.307692e-05
1.364795e+01	-3.346012e-05
1.372678e+01	-3.384776e-05
1.380607e+01	-3.423990e-05
1.388581e+01	-3.463657e-05
1.396602e+01	-3.503785e-05
1.404668e+01	-3.544377e-05
1.412782e+01	-3.585439e-05
1.420942e+01	-3.626977e-05
1.429149e+01	-3.668997e-05
1.437404e+01	-3.711503e-05
1.445706e+01	-3.754502e-05
1.454057e+01	-3.797998e-05
1.462455e+01	-3.841999e-05
1.470902e+01	-3.886510e-05
1.479398e+01	-3.931536e-05
1.487943e+01	-3.977083e-05
1.496537e+01	-4.023159e-05
1.505181e+01	-4.069768e-05
1.513875e+01	-4.116917e-05
1.522619e+01	-4.164613e-05
1.531414e+01	-4.212861e-05
1.540259e+01	-4.261667e-05
1.549156e+01	-4.311040e-05
1.558103e+01	-4.360984e-05
1.567103e+01	-4.411507e-05
1.576155e+01	-4.462615e-05
1.585258e+01	-4.514316e-05
1.594415e+01	-4.566615e-05
1.603624e+01	-4.619520e-05
1.612886e+01	-4.673039e-05
1.622202e+01	-4.727177e-05
1.631572e+01	-4.781942e-05
1.640996e+01	-4.837342e-05
1.650474e+01	-4.893384e-05
1.660008e+01	-4.950074e-05
1.669596e+01	-5.007422e-05
1.679239e+01	-5.065434e-05
1.688938e+01	-5.124118e-05
1.698694e+01	-5.183482e-05
1.708505e+01	-5.243534e-05
1.718373e+01	-5.304281e-05
1.728299e+01	-5.365733e-05
1.738281e+01	-5.427896e-05
1.748322e+01	-5.490779e-05
1.758420e+01	-5.554391e-05
1.768576e+01	-5.618740e-05
1.778792e+01	-5.683834e-05
1.789066e+01	-5.749682e-05
1.799399e+01	-5.816293e-05
1.809793e+01	-5.883676e-05
1.820246e+01	-5.951840e-05
1.830760e+01	-6.020793e-05
1.841334e+01	-6.090545e-05
1.851969e+01	-6.161105e-05
1.862666e+01	-6.232483e-05
1.873425e+01	-6.304688e-05
1.884246e+01	-6.377729e-05
1.895129e+01	-6.451616e-05
1.906075e+01	-6.526359e-05
1.917085e+01	-6.601968e-05
1.928158e+01	-6.678453e-05
1.939295e+01	-6.755824e-05
1.950496e+01	-6.834092e-05
1.961762e+01	-6.913266e-05
1.973093e+01	-6.993358e-05
1.984490e+01	-7.074377e-05
1.995952e+01	-7.156335e-05
2.007480e+01	-7.239242e-05
2.019076e+01	-7.323110e-05
2.030738e+01	-7.407950e-05
2.042467e+01	-7.493772e-05
2.054264e+01	-7.580589e-05
2.066130e+01	-7.668411e-05
2.078064e+01	-7.757251e-05
2.090066e+01	-7.847121e-05
2.102139e+01	-7.938031e-05
2.114280e+01	-8.029994e-05
2.126492e+01	-8.123023e-05
2.138775e+01	-8.217130e-05
2.151128e+01	-8.312327e-05
2.163553e+01	-8.408626e-05
2.176050e+01	-8.506042e-05
2.188619e+01	-8.604585e-05
2.201260e+01	-8.704271e-05
2.213974e+01	-8.805111e-05
2.226762e+01	-8.907120e-05
2.239624e+01	-9.010310e-05
2.252560e+01	-9.114696e-05
2.265571e+01	-9.220291e-05
2.278656e+01	-9.327110e-05
2.291818e+01	-9.435166e-05
2.305055e+01	-9.544474e-05
2.318369e+01	-9.655048e-05
2.331760e+01	-9.766903e-05
2.345228e+01	-9.880054e-05
2.358774e+01	-9.994516e-05
2.372398e+01	-1.011030e-04
2.386101e+01	-1.022743e-04
2.399883e+01	-1.034592e-04
2.413745e+01	-1.046578e-04
2.427686e+01	-1.058703e-04
2.441709e+01	-1.070968e-04
2.455812e+01	-1.083375e-04
2.469997e+01	-1.095926e-04
2.484263e+01	-1.108623e-04
2.498612e+01	-1.121466e-04
2.513044e+01	-1.134458e-04
2.527559e+01	-1.147601e-04
2.542158e+01	-1.160896e-04
2.556842e+01	-1.174346e-04
2.571610e+01	-1.187950e-04
2.586463e+01	-1.201713e-04
2.601403e+01	-1.215635e-04
2.616428e+01	-1.229718e-04
2.631541e+01	-1.243965e-04
2.646740e+01	-1.258376e-04
2.662028e+01	-1.272955e-04
2.677404e+01	-1.287702e-04
2.692868e+01	-1.302620e-04
2.708422e+01	-1.317711e-04
2.724066e+01	-1.332977e-04
2.739800e+01	-1.348420e-04
2.755625e+01	-1.364041e-04
2.771541e+01	-1.379844e-04
2.787550e+01	-1.395829e-04
2.803650e+01	-1.412000e-04
2.819844e+01	-1.428358e-04
2.836131e+01	-1.444906e-04
2.852513e+01	-1.461645e-04
2.868989e+01	-1.478579e-04
2.885560e+01	-1.495708e-04
2.902227e+01	-1.513036e-04
2.918990e+01	-1.530565e-04
2.935850e+01	-1.548296e-04
2.952807e+01	-1.566233e-04
2.969863e+01	-1.584378e-04
2.987016e+01	-1.602733e-04
3.004269e+01	-1.621301e-04
3.021622e+01	-1.640084e-04
3.039075e+01	-1.659084e-04
3.056628e+01	-1.678305e-04
3.074283e+01	-1.697748e-04
3.092040e+01	-1.717417e-04
3.109900e+01	-1.737313e-04
3.127862e+01	-1.757440e-04
3.145929e+01	-1.777800e-04
3.164099e+01	-1.798396e-04
3.182375e+01	-1.819230e-04
3.200756e+01	-1.840306e-04
3.219244e+01	-1.861626e-04
3.237838e+01	-1.883193e-04
3.256540e+01	-1.905010e-04
3.275349e+01	-1.927080e-04
3.294268e+01	-1.949405e-04
3.313295e+01	-1.971989e-04
3.332433e+01	-1.994834e-04
3.351681e+01	-2.017945e-04
3.371040e+01	-2.041322e-04
3.390511e+01	-2.064971e-04
3.410094e+01	-2.088894e-04
3.429791e+01	-2.113094e-04
3.449601e+01	-2.137574e-04
3.469526e+01	-2.162338e-04
3.489566e+01	-2.187388e-04
3.509721e+01	-2.212729e-04
3.529993e+01	-2.238364e-04
3.550382e+01	-2.264295e-04
3.570889e+01	-2.290527e-04
3.591515e+01	-2.317062e-04
3.612259e+01	-2.343905e-04
3.633123e+01	-2.371060e-04
3.654108e+01	-2.398528e-04
3.675214e+01	-2.426315e-04
3.696442e+01	-2.454424e-04
3.717792e+01	-2.482858e-04
3.739266e+01	-2.511622e-04
3.760864e+01	-2.540719e-04
3.782587e+01	-2.570153e-04
3.804435e+01	-2.599928e-04
3.826409e+01	-2.630048e-04
3.848510e+01	-2.660517e-04
3.870739e+01	-2.691339e-04
3.893096e+01	-2.722518e-04
3.915583e+01	-2.754058e-04
3.938199e+01	-2.785963e-04
3.960946e+01	-2.818238e-04
3.983824e+01	-2.850887e-04
4.006834e+01	-2.883915e-04
4.029978e+01	-2.917324e-04
4.053255e+01	-2.951121e-04
4.076666e+01	-2.985310e-04
4.100213e+01	-3.019894e-04
4.123896e+01	-3.054879e-04
4.147715e+01	-3.090270e-04
4.171672e+01	-3.126070e-04
4.195767e+01	-3.162285e-04
4.220002e+01	-3.198920e-04
4.244377e+01	-3.235979e-04
4.268892e+01	-3.273467e-04
4.293549e+01	-3.311390e-04
4.318348e+01	-3.349751e-04
4.343291e+01	-3.388558e-04
4.368377e+01	-3.427814e-04
4.393609e+01	-3.467524e-04
4.418986e+01	-3.507695e-04
4.444510e+01	-3.548331e-04
4.470182e+01	-3.589437e-04
4.496001e+01	-3.631020e-04
4.521970e+01	-3.673085e-04
4.548089e+01	-3.715637e-04
4.574358e+01	-3.758682e-04
4.600779e+01	-3.802225e-04
4.627353e+01	-3.846273e-04
4.654081e+01	-3.890831e-04
4.680963e+01	-3.935905e-04
4.708000e+01	-3.981502e-04
4.735193e+01	-4.027626e-04
4.762543e+01	-4.074285e-04
4.790051e+01	-4.121485e-04
4.817719e+01	-4.169231e-04
4.845545e+01	-4.217531e-04
4.873533e+01	-4.266389e-04
4.901682e+01	-4.315814e-04
4.929994e+01	-4.365812e-04
4.958470e+01	-4.416388e-04
4.987110e+01	-4.467551e-04
5.015915e+01	-4.519306e-04
5.044887e+01	-4.571660e-04
5.074026e+01	-4.624622e-04
5.103333e+01	-4.678196e-04
5.132810e+01	-4.732391e-04
5.162457e+01	-4.787214e-04
5.192275e+01	-4.842673e-04
5.222265e+01	-4.898773e-04
5.252429e+01	-4.955524e-04
5.282767e+01	-5.012931e-04
5.313280e+01	-5.071004e-04
5.343969e+01	-5.129750e-04
5.374836e+01	-5.189176e-04
5.405880e+01	-5.249290e-04
5.437105e+01	-5.310101e-04
5.468509e+01	-5.371616e-04
5.500095e+01	-5.433844e-04
5.531863e+01	-5.496792e-04
5.563815e+01	-5.560470e-04
5.595951e+01	-5.624886e-04
5.628273e+01	-5.690047e-04
5.660782e+01	-5.755964e-04
5.693479e+01	-5.822643e-04
5.726364e+01	-5.890096e-04
5.759439e+01	-5.958330e-04
5.792705e+01	-6.027354e-04
5.826164e+01	-6.097177e-04
5.859815e+01	-6.167810e-04
5.893662e+01	-6.239260e-04
5.927703e+01	-6.311539e-04
5.961941e+01	-6.384654e-04
5.996377e+01	-6.458617e-04
6.031012e+01	-6.533436e-04
6.065847e+01	-6.609122e-04
6.100883e+01	-6.685684e-04
6.136121e+01	-6.763134e-04
6.171563e+01	-6.841480e-04
6.207210e+01	-6.920735e-04
6.243063e+01	-7.000907e-04
6.279122e+01	-7.082008e-04
6.315390e+01	-7.164048e-04
6.351868e+01	-7.247038e-04
6.388556e+01	-7.330990e-04
6.425456e+01	-7.415914e-04
6.462569e+01	-7.501822e-04
6.499897e+01	-7.588725e-04
6.537440e+01	-7.676635e-04
6.575200e+01	-7.765563e-04
6.613178e+01	-7.855521e-04
6.651375e+01	-7.946521e-04
6.689793e+01	-8.038575e-04
6.728433e+01	-8.131696e-04
6.767297e+01	-8.225895e-04
6.806384e+01	-8.321185e-04
6.845698e+01	-8.417579e-04
6.885238e+01	-8.515089e-04
6.925007e+01	-8.613729e-04
6.965005e+01	-8.713511e-04
7.005235e+01	-8.814449e-04
7.045697e+01	-8.916557e-04
7.086393e+01	-9.019847e-04
7.127323e+01	-9.124333e-04
7.168490e+01	-9.230030e-04
7.209895e+01	-9.336951e-04
7.251539e+01	-9.445110e-04
7.293424e+01	-9.554522e-04
7.335551e+01	-9.665202e-04
7.377920e+01	-9.777163e-04
7.420535e+01	-9.890421e-04
7.463396e+01	-1.000499e-03
7.506504e+01	-1.012089e-03
7.549861e+01	-1.023813e-03
7.593469e+01	-1.035673e-03
7.637328e+01	-1.047670e-03
7.681441e+01	-1.059806e-03
7.725809e+01	-1.072082e-03
7.770433e+01	-1.084501e-03
7.815315e+01	-1.097064e-03
7.860456e+01	-1.109772e-03
7.905857e+01	-1.122627e-03
7.951521e+01	-1.135632e-03
7.997449e+01	-1.148786e-03
8.043642e+01	-1.162094e-03
8.090102e+01	-1.175555e-03
8.136830e+01	-1.189172e-03
8.183828e+01	-1.202947e-03
8.231097e+01	-1.216882e-03
8.278640e+01	-1.230978e-03
8.326457e+01	-1.245237e-03
8.374550e+01	-1.259661e-03
8.422921e+01	-1.274252e-03
8.471572e+01	-1.289013e-03
8.520503e+01	-1.303944e-03
8.569717e+01	-1.319048e-03
8.619215e+01	-1.334328e-03
8.669000e+01	-1.349784e-03
8.719071e+01	-1.365419e-03
8.769432e+01	-1.381235e-03
8.820084e+01	-1.397234e-03
8.871029e+01	-1.413419e-03
8.922267e+01	-1.429791e-03
8.973802e+01	-1.446353e-03
9.025634e+01	-1.463107e-03
9.077766e+01	-1.480054e-03
9.130199e+01	-1.497198e-03
9.182935e+01	-1.514541e-03
9.235975e+01	-1.532084e-03
9.289321e+01	-1.549830e-03
9.342976e+01	-1.567782e-03
9.396941e+01	-1.585942e-03
9.451217e+01	-1.604312e-03
9.505807e+01	-1.622895e-03
9.560712e+01	-1.641693e-03
9.615934e+01	-1.660709e-03
9.671476e+01	-1.679945e-03
9.727338e+01	-1.699404e-03
9.783522e+01	-1.719088e-03
9.840032e+01	-1.739000e-03
9.896867e+01	-1.759143e-03
9.954031e+01	-1.779519e-03
1.001153e+02	-1.800131e-03
1.006935e+02	-1.820981e-03
1.012751e+02	-1.842073e-03
1.018601e+02	-1.863410e-03
1.024484e+02	-1.884993e-03
1.030402e+02	-1.906827e-03
1.036353e+02	-1.928913e-03
1.042339e+02	-1.951255e-03
1.048360e+02	-1.973855e-03
1.054415e+02	-1.996718e-03
1.060505e+02	-2.019845e-03
1.066631e+02	-2.043240e-03
1.072791e+02	-2.066906e-03
1.078988e+02	-2.090846e-03
1.085220e+02	-2.115063e-03
1.091488e+02	-2.139560e-03
1.097793e+02	-2.164341e-03
1.104133e+02	-2.189409e-03
1.110511e+02	-2.214768e-03
1.116925e+02	-2.240420e-03
1.123376e+02	-2.266369e-03
1.129865e+02	-2.292619e-03
1.136391e+02	-2.319172e-03
1.142955e+02	-2.346033e-03
1.149556e+02	-2.373205e-03
1.156196e+02	-2.400692e-03
1.162874e+02	-2.428496e-03
1.169591e+02	-2.456623e-03
1.176347e+02	-2.485076e-03
1.183141e+02	-2.513858e-03
1.189975e+02	-2.542973e-03
1.196848e+02	-2.572425e-03
1.203761e+02	-2.602218e-03
1.210714e+02	-2.632357e-03
1.217707e+02	-2.662844e-03
1.224740e+02	-2.693684e-03
1.231814e+02	-2.724881e-03
1.238929e+02	-2.756440e-03
1.246085e+02	-2.788363e-03
1.253283e+02	-2.820657e-03
1.260522e+02	-2.853324e-03
1.267802e+02	-2.886370e-03
1.275125e+02	-2.919798e-03
1.282490e+02	-2.953613e-03
1.289898e+02	-2.987820e-03
1.297348e+02	-3.022422e-03
1.304842e+02	-3.057425e-03
1.312378e+02	-3.092834e-03
1.319959e+02	-3.128652e-03
1.327583e+02	-3.164885e-03
1.335251e+02	-3.201538e-03
1.342963e+02	-3.238614e-03
1.350720e+02	-3.276121e-03
1.358522e+02	-3.314061e-03
1.366368e+02	-3.352440e-03
1.374260e+02	-3.391264e-03
1.382198e+02	-3.430537e-03
1.390182e+02	-3.470265e-03
1.398211e+02	-3.510452e-03
1.406287e+02	-3.551105e-03
1.414410e+02	-3.592229e-03
1.422579e+02	-3.633828e-03
1.430796e+02	-3.675909e-03
1.439060e+02	-3.718477e-03
1.447372e+02	-3.761538e-03
1.455732e+02	-3.805097e-03
1.464141e+02	-3.849161e-03
1.472597e+02	-3.893734e-03
1.481103e+02	-3.938824e-03
1.489658e+02	-3.984435e-03
1.498262e+02	-4.030574e-03
1.506916e+02	-4.077248e-03
1.515620e+02	-4.124461e-03
1.524374e+02	-4.172221e-03
1.533179e+02	-4.220534e-03
1.542034e+02	-4.269406e-03
1.550941e+02	-4.318843e-03
1.559899e+02	-4.368853e-03
1.568909e+02	-4.419441e-03
1.577971e+02	-4.470615e-03
1.587085e+02	-4.522382e-03
1.596252e+02	-4.574747e-03
1.605472e+02	-4.627718e-03
1.614745e+02	-4.681303e-03
1.624072e+02	-4.735507e-03
1.633453e+02	-4.790339e-03
1.642887e+02	-4.845805e-03
1.652377e+02	-4.901913e-03
1.661921e+02	-4.958671e-03
1.671520e+02	-5.016085e-03
1.681175e+02	-5.074163e-03
1.690885e+02	-5.132914e-03
1.700651e+02	-5.192345e-03
1.710474e+02	-5.252463e-03
1.720354e+02	-5.313277e-03
1.730291e+02	-5.374794e-03
1.740285e+02	-5.437023e-03
1.750337e+02	-5.499973e-03
1.760446e+02	-5.563650e-03
1.770615e+02	-5.628065e-03
1.780842e+02	-5.693225e-03
1.791128e+02	-5.759138e-03
1.801473e+02	-5.825814e-03
1.811878e+02	-5.893262e-03
1.822344e+02	-5.961490e-03
1.832870e+02	-6.030507e-03
1.843456e+02	-6.100323e-03
1.854104e+02	-6.170947e-03
1.864813e+02	-6.242387e-03
1.875584e+02	-6.314654e-03
1.886418e+02	-6.387757e-03
1.897313e+02	-6.461706e-03
1.908272e+02	-6.536510e-03
1.919294e+02	-6.612179e-03
1.930380e+02	-6.688724e-03
1.941530e+02	-6.766154e-03
1.952744e+02	-6.844479e-03
1.964023e+02	-6.923711e-03
1.975367e+02	-7.003859e-03
1.986777e+02	-7.084934e-03
1.998252e+02	-7.166947e-03
2.009794e+02	-7.249908e-03
2.021403e+02	-7.333829e-03
2.033078e+02	-7.418721e-03
2.044821e+02	-7.504594e-03
2.056632e+02	-7.591461e-03
2.068511e+02	-7.679332e-03
2.080459e+02	-7.768219e-03
2.092475e+02	-7.858134e-03
2.104561e+02	-7.949089e-03
2.116717e+02	-8.041096e-03
2.128943e+02	-8.134166e-03
2.141240e+02	-8.228313e-03
2.153608e+02	-8.323548e-03
2.166047e+02	-8.419885e-03
2.178558e+02	-8.517336e-03
2.191141e+02	-8.615913e-03
2.203797e+02	-8.715630e-03
2.216526e+02	-8.816500e-03
2.229329e+02	-8.918536e-03
2.242205e+02	-9.021752e-03
2.255156e+02	-9.126161e-03
2.268182e+02	-9.231777e-03
2.281283e+02	-9.338614e-03
2.294459e+02	-9.446687e-03
2.307712e+02	-9.556008e-03
2.321041e+02	-9.666593e-03
2.334447e+02	-9.778457e-03
2.347931e+02	-9.891613e-03
2.361493e+02	-1.000608e-02
2.375133e+02	-1.012187e-02
2.388851e+02	-1.023899e-02
2.402649e+02	-1.035747e-02
2.416527e+02	-1.047732e-02
2.430484e+02	-1.059855e-02
2.444523e+02	-1.072119e-02
2.458642e+02	-1.084524e-02
2.472843e+02	-1.097073e-02
2.487126e+02	-1.109766e-02
2.501492e+02	-1.122606e-02
2.515940e+02	-1.135595e-02
2.530472e+02	-1.148734e-02
2.545088e+02	-1.162024e-02
2.559789e+02	-1.175468e-02
2.574574e+02	-1.189068e-02
2.589444e+02	-1.202824e-02
2.604401e+02	-1.216740e-02
2.619444e+02	-1.230816e-02
2.634574e+02	-1.245055e-02
2.649791e+02	-1.259458e-02
2.665096e+02	-1.274027e-02
2.680489e+02	-1.288765e-02
2.695972e+02	-1.303674e-02
2.711544e+02	-1.318754e-02
2.727205e+02	-1.334009e-02
2.742958e+02	-1.349439e-02
2.758801e+02	-1.365048e-02
2.774736e+02	-1.380837e-02
2.790762e+02	-1.396809e-02
2.806882e+02	-1.412965e-02
2.823094e+02	-1.429307e-02
2.839400e+02	-1.445839e-02
2.855800e+02	-1.462561e-02
2.872295e+02	-1.479476e-02
2.888886e+02	-1.496586e-02
2.905572e+02	-1.513894e-02
2.922354e+02	-1.531402e-02
2.939234e+02	-1.549112e-02
2.956211e+02	-1.567027e-02
2.973286e+02	-1.585148e-02
2.990459e+02	-1.603478e-02
3.007732e+02	-1.622020e-02
3.025104e+02	-1.640776e-02
3.042577e+02	-1.659748e-02
3.060151e+02	-1.678939e-02
3.077826e+02	-1.698352e-02
3.095604e+02	-1.717989e-02
3.113484e+02	-1.737852e-02
3.131467e+02	-1.757945e-02
3.149554e+02	-1.778269e-02
3.167746e+02	-1.798828e-02
3.186043e+02	-1.819624e-02
3.204445e+02	-1.840660e-02
3.222954e+02	-1.861939e-02
3.241570e+02	-1.883463e-02
3.260293e+02	-1.905235e-02
3.279124e+02	-1.927259e-02
3.298064e+02	-1.949536e-02
3.317114e+02	-1.972071e-02
3.336273e+02	-1.994865e-02
3.355544e+02	-2.017922e-02
3.374925e+02	-2.041245e-02
3.394418e+02	-2.064837e-02
3.414024e+02	-2.088701e-02
3.433744e+02	-2.112840e-02
3.453577e+02	-2.137257e-02
3.473525e+02	-2.161956e-02
3.493588e+02	-2.186940e-02
3.513766e+02	-2.212211e-02
3.534062e+02	-2.237774e-02
3.554474e+02	-2.263631e-02
3.575005e+02	-2.289787e-02
3.595654e+02	-2.316244e-02
3.616422e+02	-2.343005e-02
3.637311e+02	-2.370075e-02
3.658320e+02	-2.397457e-02
3.679450e+02	-2.425154e-02
3.700702e+02	-2.453171e-02
3.722077e+02	-2.481510e-02
3.743576e+02	-2.510176e-02
3.765199e+02	-2.539171e-02
3.786946e+02	-2.568501e-02
3.808820e+02	-2.598168e-02
3.830819e+02	-2.628177e-02
3.852946e+02	-2.658532e-02
3.875200e+02	-2.689236e-02
3.897583e+02	-2.720294e-02
3.920096e+02	-2.751709e-02
3.942738e+02	-2.783486e-02
3.965511e+02	-2.815628e-02
3.988416e+02	-2.848141e-02
4.011452e+02	-2.881027e-02
4.034622e+02	-2.914292e-02
4.057926e+02	-2.947940e-02
4.081365e+02	-2.981975e-02
4.104938e+02	-3.016402e-02
4.128648e+02	-3.051224e-02
4.152495e+02	-3.086448e-02
4.176480e+02	-3.122076e-02
4.200603e+02	-3.158114e-02
4.224866e+02	-3.194567e-02
4.249268e+02	-3.231439e-02
4.273812e+02	-3.268734e-02
4.298497e+02	-3.306459e-02
4.323325e+02	-3.344617e-02
4.348297e+02	-3.383214e-02
4.373412e+02	-3.422254e-02
4.398673e+02	-3.461744e-02
4.424079e+02	-3.501687e-02
4.449633e+02	-3.542089e-02
4.475334e+02	-3.582955e-02
4.501183e+02	-3.624291e-02
4.527182e+02	-3.666101e-02
4.553330e+02	-3.708392e-02
4.579630e+02	-3.751169e-02
4.606082e+02	-3.794437e-02
4.632687e+02	-3.838202e-02
4.659445e+02	-3.882469e-02
4.686358e+02	-3.927244e-02
4.713426e+02	-3.972534e-02
4.740650e+02	-4.018343e-02
4.768032e+02	-4.064678e-02
4.795572e+02	-4.111545e-02
4.823271e+02	-4.158950e-02
4.851130e+02	-4.206898e-02
4.879150e+02	-4.255397e-02
4.907332e+02	-4.304452e-02
4.935676e+02	-4.354070e-02
4.964185e+02	-4.404256e-02
4.992858e+02	-4.455018e-02
5.021696e+02	-4.506363e-02
5.050701e+02	-4.558295e-02
5.079874e+02	-4.610823e-02
5.109215e+02	-4.663954e-02
5.138726e+02	-4.717693e-02
5.168407e+02	-4.772047e-02
5.198259e+02	-4.827025e-02
5.228284e+02	-4.882632e-02
5.258482e+02	-4.938877e-02
5.288855e+02	-4.995765e-02
5.319403e+02	-5.053305e-02
5.350128e+02	-5.111504e-02
5.381030e+02	-5.170369e-02
5.412111e+02	-5.229907e-02
5.443371e+02	-5.290127e-02
5.474812e+02	-5.351037e-02
5.506434e+02	-5.412643e-02
5.538239e+02	-5.474954e-02
5.570228e+02	-5.537978e-02
5.602401e+02	-5.601722e-02
5.634760e+02	-5.666196e-02
5.667306e+02	-5.731406e-02
5.700040e+02	-5.797362e-02
5.732964e+02	-5.864072e-02
5.766077e+02	-5.931544e-02
5.799382e+02	-5.999788e-02
5.832879e+02	-6.068811e-02
5.866569e+02	-6.138622e-02
5.900454e+02	-6.209230e-02
5.934535e+02	-6.280645e-02
5.968813e+02	-6.352875e-02
6.003288e+02	-6.425930e-02
6.037963e+02	-6.499819e-02
6.072838e+02	-6.574550e-02
6.107914e+02	-6.650135e-02
6.143194e+02	-6.726581e-02
6.178676e+02	-6.803899e-02
6.214364e+02	-6.882099e-02
6.250258e+02	-6.961191e-02
6.286359e+02	-7.041184e-02
6.322669e+02	-7.122089e-02
6.359189e+02	-7.203916e-02
6.395919e+02	-7.286674e-02
6.432862e+02	-7.370376e-02
6.470017e+02	-7.455031e-02
6.507388e+02	-7.540649e-02
6.544974e+02	-7.627242e-02
6.582778e+02	-7.714821e-02
6.620800e+02	-7.803397e-02
6.659041e+02	-7.892979e-02
6.697504e+02	-7.983581e-02
6.736188e+02	-8.075214e-02
6.775096e+02	-8.167888e-02
6.814229e+02	-8.261615e-02
6.853587e+02	-8.356408e-02
6.893173e+02	-8.452277e-02
6.932988e+02	-8.549236e-02
6.973033e+02	-8.647296e-02
7.013309e+02	-8.746469e-02
