Frequency(Hz)	Magnitude(dB)
1.000000e+01	-2.220211e+00
1.005776e+01	-2.240381e+00
1.011585e+01	-2.260570e+00
1.017428e+01	-2.281083e+00
1.023305e+01	-2.301642e+00
1.029215e+01	-2.321990e+00
1.035160e+01	-2.342994e+00
1.041139e+01	-2.363604e+00
1.047153e+01	-2.385064e+00
1.053201e+01	-2.406165e+00
1.059284e+01	-2.427662e+00
1.065403e+01	-2.448993e+00
1.071556e+01	-2.470785e+00
1.077746e+01	-2.492493e+00
1.083971e+01	-2.514019e+00
1.090232e+01	-2.536274e+00
1.096529e+01	-2.558408e+00
1.102862e+01	-2.580929e+00
1.109232e+01	-2.603497e+00
1.115639e+01	-2.626113e+00
1.122083e+01	-2.648712e+00
1.128564e+01	-2.671848e+00
1.135083e+01	-2.694757e+00
1.141639e+01	-2.717818e+00
1.148233e+01	-2.741439e+00
1.154865e+01	-2.764851e+00
1.161536e+01	-2.788200e+00
1.168245e+01	-2.812100e+00
1.174992e+01	-2.836000e+00
1.181779e+01	-2.860278e+00
1.188605e+01	-2.884361e+00
1.195470e+01	-2.908697e+00
1.202375e+01	-2.933086e+00
1.209320e+01	-2.957936e+00
1.216305e+01	-2.982791e+00
1.223330e+01	-3.007723e+00
1.230396e+01	-3.032585e+00
1.237503e+01	-3.057936e+00
1.244651e+01	-3.083159e+00
1.251840e+01	-3.108425e+00
1.259070e+01	-3.134250e+00
1.266343e+01	-3.159939e+00
1.273657e+01	-3.186275e+00
1.281014e+01	-3.212224e+00
1.288413e+01	-3.238400e+00
1.295855e+01	-3.264792e+00
1.303339e+01	-3.291358e+00
1.310867e+01	-3.317792e+00
1.318439e+01	-3.344651e+00
1.326054e+01	-3.371682e+00
1.333713e+01	-3.398762e+00
1.341417e+01	-3.425950e+00
1.349165e+01	-3.453182e+00
1.356958e+01	-3.480629e+00
1.364795e+01	-3.508361e+00
1.372678e+01	-3.536253e+00
1.380607e+01	-3.564237e+00
1.388581e+01	-3.592083e+00
1.396602e+01	-3.620487e+00
1.404668e+01	-3.649036e+00
1.412782e+01	-3.677155e+00
1.420942e+01	-3.705844e+00
1.429149e+01	-3.734802e+00
1.437404e+01	-3.763695e+00
1.445706e+01	-3.792752e+00
1.454057e+01	-3.821906e+00
1.462455e+01	-3.851202e+00
1.470902e+01	-3.880677e+00
1.479398e+01	-3.910345e+00
1.487943e+01	-3.940111e+00
1.496537e+01	-3.970045e+00
1.505181e+01	-4.000039e+00
1.513875e+01	-4.030452e+00
1.522619e+01	-4.060308e+00
1.531414e+01	-4.091159e+00
1.540259e+01	-4.121823e+00
1.549156e+01	-4.152392e+00
1.558103e+01	-4.183246e+00
1.567103e+01	-4.214259e+00
1.576155e+01	-4.245364e+00
1.585258e+01	-4.276581e+00
1.594415e+01	-4.307589e+00
1.603624e+01	-4.339576e+00
1.612886e+01	-4.371392e+00
1.622202e+01	-4.403022e+00
1.631572e+01	-4.434989e+00
1.640996e+01	-4.467012e+00
1.650474e+01	-4.499420e+00
1.660008e+01	-4.531410e+00
1.669596e+01	-4.564365e+00
1.679239e+01	-4.597027e+00
1.688938e+01	-4.629647e+00
1.698694e+01	-4.662572e+00
1.708505e+01	-4.695725e+00
1.718373e+01	-4.728240e+00
1.728299e+01	-4.761817e+00
1.738281e+01	-4.795278e+00
1.748322e+01	-4.828472e+00
1.758420e+01	-4.862337e+00
1.768576e+01	-4.896145e+00
1.778792e+01	-4.930065e+00
1.789066e+01	-4.963965e+00
1.799399e+01	-4.998029e+00
1.809793e+01	-5.032291e+00
1.820246e+01	-5.066659e+00
1.830760e+01	-5.101299e+00
1.841334e+01	-5.136091e+00
1.851969e+01	-5.170782e+00
1.862666e+01	-5.205531e+00
1.873425e+01	-5.240436e+00
1.884246e+01	-5.275847e+00
1.895129e+01	-5.310904e+00
1.906075e+01	-5.346371e+00
1.917085e+01	-5.381640e+00
1.928158e+01	-5.417195e+00
1.939295e+01	-5.452727e+00
1.950496e+01	-5.488659e+00
1.961762e+01	-5.525150e+00
1.973093e+01	-5.560829e+00
1.984490e+01	-5.596896e+00
1.995952e+01	-5.633389e+00
2.007480e+01	-5.669587e+00
2.019076e+01	-5.706249e+00
2.030738e+01	-5.742596e+00
2.042467e+01	-5.779734e+00
2.054264e+01	-5.816382e+00
2.066130e+01	-5.853501e+00
2.078064e+01	-5.890849e+00
2.090066e+01	-5.927284e+00
2.102139e+01	-5.964807e+00
2.114280e+01	-6.002360e+00
2.126492e+01	-6.040015e+00
2.138775e+01	-6.077666e+00
2.151128e+01	-6.115462e+00
2.163553e+01	-6.152925e+00
2.176050e+01	-6.191202e+00
2.188619e+01	-6.229237e+00
2.201260e+01	-6.267349e+00
2.213974e+01	-6.305386e+00
2.226762e+01	-6.343778e+00
2.239624e+01	-6.382292e+00
2.252560e+01	-6.420917e+00
2.265571e+01	-6.459346e+00
2.278656e+01	-6.498091e+00
2.291818e+01	-6.537332e+00
2.305055e+01	-6.576487e+00
2.318369e+01	-6.615485e+00
2.331760e+01	-6.654440e+00
2.345228e+01	-6.693759e+00
2.358774e+01	-6.733020e+00
2.372398e+01	-6.772761e+00
2.386101e+01	-6.812107e+00
2.399883e+01	-6.851783e+00
2.413745e+01	-6.891464e+00
2.427686e+01	-6.931486e+00
2.441709e+01	-6.971626e+00
2.455812e+01	-7.011176e+00
2.469997e+01	-7.051664e+00
2.484263e+01	-7.091536e+00
2.498612e+01	-7.131842e+00
2.513044e+01	-7.172139e+00
2.527559e+01	-7.212742e+00
2.542158e+01	-7.253417e+00
2.556842e+01	-7.293985e+00
2.571610e+01	-7.334605e+00
2.586463e+01	-7.375567e+00
2.601403e+01	-7.416369e+00
2.616428e+01	-7.457403e+00
2.631541e+01	-7.498593e+00
2.646740e+01	-7.539608e+00
2.662028e+01	-7.580990e+00
2.677404e+01	-7.622384e+00
2.692868e+01	-7.663628e+00
2.708422e+01	-7.705278e+00
2.724066e+01	-7.746858e+00
2.739800e+01	-7.788131e+00
2.755625e+01	-7.830245e+00
2.771541e+01	-7.872315e+00
2.787550e+01	-7.913610e+00
2.803650e+01	-7.956257e+00
2.819844e+01	-7.998112e+00
2.836131e+01	-8.039927e+00
2.852513e+01	-8.082522e+00
2.868989e+01	-8.124645e+00
2.885560e+01	-8.166880e+00
2.902227e+01	-8.209069e+00
2.918990e+01	-8.252190e+00
2.935850e+01	-8.294123e+00
2.952807e+01	-8.336684e+00
2.969863e+01	-8.380022e+00
2.987016e+01	-8.422821e+00
3.004269e+01	-8.465422e+00
3.021622e+01	-8.508322e+00
3.039075e+01	-8.551237e+00
3.056628e+01	-8.594477e+00
3.074283e+01	-8.637900e+00
3.092040e+01	-8.681056e+00
3.109900e+01	-8.724396e+00
3.127862e+01	-8.767322e+00
3.145929e+01	-8.811292e+00
3.164099e+01	-8.854197e+00
3.182375e+01	-8.897923e+00
3.200756e+01	-8.941549e+00
3.219244e+01	-8.985136e+00
3.237838e+01	-9.028584e+00
3.256540e+01	-9.072911e+00
3.275349e+01	-9.116915e+00
3.294268e+01	-9.160499e+00
3.313295e+01	-9.204711e+00
3.332433e+01	-9.248593e+00
3.351681e+01	-9.293017e+00
3.371040e+01	-9.336726e+00
3.390511e+01	-9.380948e+00
3.410094e+01	-9.425082e+00
3.429791e+01	-9.469585e+00
3.449601e+01	-9.514526e+00
3.469526e+01	-9.558844e+00
3.489566e+01	-9.603195e+00
3.509721e+01	-9.648042e+00
3.529993e+01	-9.692640e+00
3.550382e+01	-9.736860e+00
3.570889e+01	-9.781540e+00
3.591515e+01	-9.826903e+00
3.612259e+01	-9.871138e+00
3.633123e+01	-9.916279e+00
3.654108e+01	-9.961144e+00
3.675214e+01	-1.000574e+01
3.696442e+01	-1.005120e+01
3.717792e+01	-1.009686e+01
3.739266e+01	-1.014200e+01
3.760864e+01	-1.018672e+01
3.782587e+01	-1.023193e+01
3.804435e+01	-1.027681e+01
3.826409e+01	-1.032235e+01
3.848510e+01	-1.036828e+01
3.870739e+01	-1.041360e+01
3.893096e+01	-1.045931e+01
3.915583e+01	-1.050484e+01
3.938199e+01	-1.055004e+01
3.960946e+01	-1.059584e+01
3.983824e+01	-1.064129e+01
4.006834e+01	-1.068708e+01
4.029978e+01	-1.073341e+01
4.053255e+01	-1.077901e+01
4.076666e+01	-1.082511e+01
4.100213e+01	-1.087092e+01
4.123896e+01	-1.091582e+01
4.147715e+01	-1.096271e+01
4.171672e+01	-1.100885e+01
4.195767e+01	-1.105482e+01
4.220002e+01	-1.110091e+01
4.244377e+01	-1.114680e+01
4.268892e+01	-1.119345e+01
4.293549e+01	-1.123991e+01
4.318348e+01	-1.128658e+01
4.343291e+01	-1.133224e+01
4.368377e+01	-1.137868e+01
4.393609e+01	-1.142430e+01
4.418986e+01	-1.147062e+01
4.444510e+01	-1.151773e+01
4.470182e+01	-1.156454e+01
4.496001e+01	-1.161138e+01
4.521970e+01	-1.165719e+01
4.548089e+01	-1.170402e+01
4.574358e+01	-1.175058e+01
4.600779e+01	-1.179713e+01
4.627353e+01	-1.184435e+01
4.654081e+01	-1.189126e+01
4.680963e+01	-1.193831e+01
4.708000e+01	-1.198485e+01
4.735193e+01	-1.203181e+01
4.762543e+01	-1.207878e+01
4.790051e+01	-1.212509e+01
4.817719e+01	-1.217204e+01
4.845545e+01	-1.221885e+01
4.873533e+01	-1.226638e+01
4.901682e+01	-1.231305e+01
4.929994e+01	-1.236067e+01
4.958470e+01	-1.240783e+01
4.987110e+01	-1.245523e+01
5.015915e+01	-1.250163e+01
5.044887e+01	-1.254889e+01
5.074026e+01	-1.259693e+01
5.103333e+01	-1.264420e+01
5.132810e+01	-1.269097e+01
5.162457e+01	-1.273887e+01
5.192275e+01	-1.278573e+01
5.222265e+01	-1.283311e+01
5.252429e+01	-1.288030e+01
5.282767e+01	-1.292811e+01
5.313280e+01	-1.297545e+01
5.343969e+01	-1.302319e+01
5.374836e+01	-1.307084e+01
5.405880e+01	-1.311855e+01
5.437105e+01	-1.316668e+01
5.468509e+01	-1.321331e+01
5.500095e+01	-1.326123e+01
5.531863e+01	-1.330817e+01
5.563815e+01	-1.335660e+01
5.595951e+01	-1.340470e+01
5.628273e+01	-1.345215e+01
5.660782e+01	-1.349987e+01
5.693479e+01	-1.354709e+01
5.726364e+01	-1.359549e+01
5.759439e+01	-1.364272e+01
5.792705e+01	-1.369138e+01
5.826164e+01	-1.373997e+01
5.859815e+01	-1.378683e+01
5.893662e+01	-1.383358e+01
5.927703e+01	-1.388244e+01
5.961941e+01	-1.393120e+01
5.996377e+01	-1.397952e+01
6.031012e+01	-1.402763e+01
6.065847e+01	-1.407556e+01
6.100883e+01	-1.412323e+01
6.136121e+01	-1.417137e+01
6.171563e+01	-1.421908e+01
6.207210e+01	-1.426775e+01
6.243063e+01	-1.431587e+01
6.279122e+01	-1.436342e+01
6.315390e+01	-1.441191e+01
6.351868e+01	-1.446004e+01
6.388556e+01	-1.450796e+01
6.425456e+01	-1.455714e+01
6.462569e+01	-1.460532e+01
6.499897e+01	-1.465387e+01
6.537440e+01	-1.470244e+01
6.575200e+01	-1.475061e+01
6.613178e+01	-1.479765e+01
6.651375e+01	-1.484698e+01
6.689793e+01	-1.489554e+01
6.728433e+01	-1.494381e+01
6.767297e+01	-1.499223e+01
6.806384e+01	-1.504020e+01
6.845698e+01	-1.508870e+01
6.885238e+01	-1.513697e+01
6.925007e+01	-1.518513e+01
6.965005e+01	-1.523425e+01
7.005235e+01	-1.528334e+01
7.045697e+01	-1.533063e+01
7.086393e+01	-1.537969e+01
7.127323e+01	-1.542770e+01
7.168490e+01	-1.547799e+01
7.209895e+01	-1.552691e+01
7.251539e+01	-1.557515e+01
7.293424e+01	-1.562356e+01
7.335551e+01	-1.567179e+01
7.377920e+01	-1.572068e+01
7.420535e+01	-1.576909e+01
7.463396e+01	-1.581794e+01
7.506504e+01	-1.586732e+01
7.549861e+01	-1.591477e+01
7.593469e+01	-1.596326e+01
7.637328e+01	-1.601292e+01
7.681441e+01	-1.606209e+01
7.725809e+01	-1.611142e+01
7.770433e+01	-1.615986e+01
7.815315e+01	-1.620801e+01
7.860456e+01	-1.625723e+01
7.905857e+01	-1.630643e+01
7.951521e+01	-1.635540e+01
7.997449e+01	-1.640416e+01
8.043642e+01	-1.645206e+01
8.090102e+01	-1.650206e+01
8.136830e+01	-1.655009e+01
8.183828e+01	-1.659892e+01
8.231097e+01	-1.664840e+01
8.278640e+01	-1.669744e+01
8.326457e+01	-1.674641e+01
8.374550e+01	-1.679601e+01
8.422921e+01	-1.684484e+01
8.471572e+01	-1.689311e+01
8.520503e+01	-1.694240e+01
8.569717e+01	-1.699212e+01
8.619215e+01	-1.704026e+01
8.669000e+01	-1.708979e+01
8.719071e+01	-1.713880e+01
8.769432e+01	-1.718650e+01
8.820084e+01	-1.723660e+01
8.871029e+01	-1.728614e+01
8.922267e+01	-1.733441e+01
8.973802e+01	-1.738325e+01
9.025634e+01	-1.743257e+01
9.077766e+01	-1.748180e+01
9.130199e+01	-1.753080e+01
9.182935e+01	-1.758005e+01
9.235975e+01	-1.762996e+01
9.289321e+01	-1.768003e+01
9.342976e+01	-1.772815e+01
9.396941e+01	-1.777762e+01
9.451217e+01	-1.782642e+01
9.505807e+01	-1.787561e+01
9.560712e+01	-1.792476e+01
9.615934e+01	-1.797427e+01
9.671476e+01	-1.802253e+01
9.727338e+01	-1.807175e+01
9.783522e+01	-1.812212e+01
9.840032e+01	-1.817001e+01
9.896867e+01	-1.821926e+01
9.954031e+01	-1.826900e+01
1.001153e+02	-1.831755e+01
1.006935e+02	-1.836765e+01
1.012751e+02	-1.841782e+01
1.018601e+02	-1.846631e+01
1.024484e+02	-1.851784e+01
1.030402e+02	-1.856572e+01
1.036353e+02	-1.861457e+01
1.042339e+02	-1.866348e+01
1.048360e+02	-1.871482e+01
1.054415e+02	-1.876165e+01
1.060505e+02	-1.881256e+01
1.066631e+02	-1.886121e+01
1.072791e+02	-1.891134e+01
1.078988e+02	-1.896070e+01
1.085220e+02	-1.901032e+01
1.091488e+02	-1.905812e+01
1.097793e+02	-1.910941e+01
1.104133e+02	-1.915858e+01
1.110511e+02	-1.920700e+01
1.116925e+02	-1.925670e+01
1.123376e+02	-1.930641e+01
1.129865e+02	-1.935580e+01
1.136391e+02	-1.940515e+01
1.142955e+02	-1.945361e+01
1.149556e+02	-1.950433e+01
1.156196e+02	-1.955331e+01
1.162874e+02	-1.960156e+01
1.169591e+02	-1.965389e+01
1.176347e+02	-1.970156e+01
1.183141e+02	-1.975189e+01
1.189975e+02	-1.980071e+01
1.196848e+02	-1.985090e+01
1.203761e+02	-1.990002e+01
1.210714e+02	-1.995089e+01
1.217707e+02	-1.999913e+01
1.224740e+02	-2.004835e+01
1.231814e+02	-2.009923e+01
1.238929e+02	-2.014863e+01
1.246085e+02	-2.019591e+01
1.253283e+02	-2.024560e+01
1.260522e+02	-2.029803e+01
1.267802e+02	-2.034642e+01
1.275125e+02	-2.039533e+01
1.282490e+02	-2.044535e+01
1.289898e+02	-2.049579e+01
1.297348e+02	-2.054408e+01
1.304842e+02	-2.059260e+01
1.312378e+02	-2.064212e+01
1.319959e+02	-2.069302e+01
1.327583e+02	-2.074157e+01
1.335251e+02	-2.079302e+01
1.342963e+02	-2.084318e+01
1.350720e+02	-2.089213e+01
1.358522e+02	-2.094155e+01
1.366368e+02	-2.098909e+01
1.374260e+02	-2.104182e+01
1.382198e+02	-2.109006e+01
1.390182e+02	-2.113870e+01
1.398211e+02	-2.118887e+01
1.406287e+02	-2.123937e+01
1.414410e+02	-2.128818e+01
1.422579e+02	-2.133846e+01
1.430796e+02	-2.138735e+01
1.439060e+02	-2.143844e+01
1.447372e+02	-2.148767e+01
1.455732e+02	-2.153684e+01
1.464141e+02	-2.158727e+01
1.472597e+02	-2.163637e+01
1.481103e+02	-2.168590e+01
1.489658e+02	-2.173583e+01
1.498262e+02	-2.178507e+01
1.506916e+02	-2.183542e+01
1.515620e+02	-2.188639e+01
1.524374e+02	-2.193486e+01
1.533179e+02	-2.198469e+01
1.542034e+02	-2.203471e+01
1.550941e+02	-2.208701e+01
1.559899e+02	-2.213373e+01
1.568909e+02	-2.218418e+01
1.577971e+02	-2.223254e+01
1.587085e+02	-2.228217e+01
1.596252e+02	-2.233307e+01
1.605472e+02	-2.238478e+01
1.614745e+02	-2.243221e+01
1.624072e+02	-2.248109e+01
1.633453e+02	-2.253429e+01
1.642887e+02	-2.258123e+01
1.652377e+02	-2.263249e+01
1.661921e+02	-2.267970e+01
1.671520e+02	-2.273259e+01
1.681175e+02	-2.278125e+01
1.690885e+02	-2.282958e+01
1.700651e+02	-2.288131e+01
1.710474e+02	-2.292953e+01
1.720354e+02	-2.297848e+01
1.730291e+02	-2.302708e+01
1.740285e+02	-2.308024e+01
1.750337e+02	-2.313039e+01
1.760446e+02	-2.317871e+01
1.770615e+02	-2.322879e+01
1.780842e+02	-2.327740e+01
1.791128e+02	-2.332678e+01
1.801473e+02	-2.337857e+01
1.811878e+02	-2.342906e+01
1.822344e+02	-2.347923e+01
1.832870e+02	-2.352628e+01
1.843456e+02	-2.357791e+01
1.854104e+02	-2.362682e+01
1.864813e+02	-2.367667e+01
1.875584e+02	-2.372848e+01
1.886418e+02	-2.377886e+01
1.897313e+02	-2.382653e+01
1.908272e+02	-2.387657e+01
1.919294e+02	-2.392671e+01
1.930380e+02	-2.397788e+01
1.941530e+02	-2.402679e+01
1.952744e+02	-2.407747e+01
1.964023e+02	-2.412504e+01
1.975367e+02	-2.417693e+01
1.986777e+02	-2.422534e+01
1.998252e+02	-2.427629e+01
2.009794e+02	-2.432744e+01
2.021403e+02	-2.437404e+01
2.033078e+02	-2.442438e+01
2.044821e+02	-2.447579e+01
2.056632e+02	-2.452268e+01
2.068511e+02	-2.457515e+01
2.080459e+02	-2.462195e+01
2.092475e+02	-2.467667e+01
2.104561e+02	-2.472404e+01
2.116717e+02	-2.477417e+01
2.128943e+02	-2.482323e+01
2.141240e+02	-2.487283e+01
2.153608e+02	-2.492267e+01
2.166047e+02	-2.497276e+01
2.178558e+02	-2.502485e+01
2.191141e+02	-2.507396e+01
2.203797e+02	-2.512620e+01
2.216526e+02	-2.517122e+01
2.229329e+02	-2.522171e+01
2.242205e+02	-2.527223e+01
2.255156e+02	-2.532660e+01
2.268182e+02	-2.537311e+01
2.281283e+02	-2.542322e+01
2.294459e+02	-2.547059e+01
2.307712e+02	-2.552104e+01
2.321041e+02	-2.557404e+01
2.334447e+02	-2.562178e+01
2.347931e+02	-2.567405e+01
2.361493e+02	-2.571961e+01
2.375133e+02	-2.577381e+01
2.388851e+02	-2.582202e+01
2.402649e+02	-2.587222e+01
2.416527e+02	-2.592069e+01
2.430484e+02	-2.597073e+01
2.444523e+02	-2.602248e+01
2.458642e+02	-2.607136e+01
2.472843e+02	-2.612180e+01
2.487126e+02	-2.617012e+01
2.501492e+02	-2.622316e+01
2.515940e+02	-2.627050e+01
2.530472e+02	-2.632238e+01
2.545088e+02	-2.637041e+01
2.559789e+02	-2.642293e+01
2.574574e+02	-2.647255e+01
2.589444e+02	-2.652056e+01
2.604401e+02	-2.656943e+01
2.619444e+02	-2.662126e+01
2.634574e+02	-2.666919e+01
2.649791e+02	-2.672221e+01
2.665096e+02	-2.677360e+01
2.680489e+02	-2.681846e+01
2.695972e+02	-2.686777e+01
2.711544e+02	-2.692000e+01
2.727205e+02	-2.696894e+01
2.742958e+02	-2.702120e+01
2.758801e+02	-2.707356e+01
2.774736e+02	-2.712064e+01
2.790762e+02	-2.717458e+01
2.806882e+02	-2.722169e+01
2.823094e+02	-2.727152e+01
2.839400e+02	-2.732226e+01
2.855800e+02	-2.737313e+01
2.872295e+02	-2.742003e+01
2.888886e+02	-2.747548e+01
2.905572e+02	-2.751869e+01
2.922354e+02	-2.757551e+01
2.939234e+02	-2.762136e+01
2.956211e+02	-2.767460e+01
2.973286e+02	-2.771852e+01
2.990459e+02	-2.777119e+01
3.007732e+02	-2.782267e+01
3.025104e+02	-2.787534e+01
3.042577e+02	-2.792498e+01
3.060151e+02	-2.797425e+01
3.077826e+02	-2.802362e+01
3.095604e+02	-2.807155e+01
3.113484e+02	-2.812254e+01
3.131467e+02	-2.817219e+01
3.149554e+02	-2.822175e+01
3.167746e+02	-2.827424e+01
3.186043e+02	-2.832144e+01
3.204445e+02	-2.837060e+01
3.222954e+02	-2.841692e+01
3.241570e+02	-2.847039e+01
3.260293e+02	-2.852302e+01
3.279124e+02	-2.856836e+01
3.298064e+02	-2.862239e+01
3.317114e+02	-2.866949e+01
3.336273e+02	-2.872041e+01
3.355544e+02	-2.877220e+01
3.374925e+02	-2.882276e+01
3.394418e+02	-2.887283e+01
3.414024e+02	-2.891886e+01
3.433744e+02	-2.897254e+01
3.453577e+02	-2.901909e+01
3.473525e+02	-2.907797e+01
3.493588e+02	-2.912190e+01
3.513766e+02	-2.917509e+01
3.534062e+02	-2.922436e+01
3.554474e+02	-2.927395e+01
3.575005e+02	-2.932226e+01
3.595654e+02	-2.937138e+01
3.616422e+02	-2.942634e+01
3.637311e+02	-2.948215e+01
3.658320e+02	-2.952487e+01
3.679450e+02	-2.957248e+01
3.700702e+02	-2.962804e+01
3.722077e+02	-2.967013e+01
3.743576e+02	-2.972201e+01
3.765199e+02	-2.977245e+01
3.786946e+02	-2.982459e+01
3.808820e+02	-2.987421e+01
3.830819e+02	-2.992367e+01
3.852946e+02	-2.997088e+01
3.875200e+02	-3.003015e+01
3.897583e+02	-3.007055e+01
3.920096e+02	-3.012290e+01
3.942738e+02	-3.017774e+01
3.965511e+02	-3.022036e+01
3.988416e+02	-3.028115e+01
4.011452e+02	-3.032334e+01
4.034622e+02	-3.037146e+01
4.057926e+02	-3.042112e+01
4.081365e+02	-3.047307e+01
4.104938e+02	-3.052209e+01
4.128648e+02	-3.057217e+01
4.152495e+02	-3.062437e+01
4.176480e+02	-3.068432e+01
4.200603e+02	-3.072945e+01
4.224866e+02	-3.078109e+01
4.249268e+02	-3.082437e+01
4.273812e+02	-3.087721e+01
4.298497e+02	-3.092304e+01
4.323325e+02	-3.097988e+01
4.348297e+02	-3.102718e+01
4.373412e+02	-3.107820e+01
4.398673e+02	-3.112461e+01
4.424079e+02	-3.117511e+01
4.449633e+02	-3.122459e+01
4.475334e+02	-3.127201e+01
4.501183e+02	-3.133292e+01
4.527182e+02	-3.137444e+01
4.553330e+02	-3.142776e+01
4.579630e+02	-3.147962e+01
4.606082e+02	-3.152780e+01
4.632687e+02	-3.157911e+01
4.659445e+02	-3.162237e+01
4.686358e+02	-3.168024e+01
4.713426e+02	-3.173041e+01
4.740650e+02	-3.178172e+01
4.768032e+02	-3.182720e+01
4.795572e+02	-3.188102e+01
4.823271e+02	-3.193578e+01
4.851130e+02	-3.197870e+01
4.879150e+02	-3.202331e+01
4.907332e+02	-3.208083e+01
4.935676e+02	-3.213278e+01
4.964185e+02	-3.217766e+01
4.992858e+02	-3.223460e+01
5.021696e+02	-3.228170e+01
5.050701e+02	-3.233517e+01
5.079874e+02	-3.237560e+01
5.109215e+02	-3.243133e+01
5.138726e+02	-3.248411e+01
5.168407e+02	-3.253229e+01
5.198259e+02	-3.258543e+01
5.228284e+02	-3.262982e+01
5.258482e+02	-3.267952e+01
5.288855e+02	-3.273158e+01
5.319403e+02	-3.277856e+01
5.350128e+02	-3.283220e+01
5.381030e+02	-3.288560e+01
5.412111e+02	-3.293412e+01
5.443371e+02	-3.298019e+01
5.474812e+02	-3.303396e+01
5.506434e+02	-3.308920e+01
5.538239e+02	-3.313083e+01
5.570228e+02	-3.318656e+01
5.602401e+02	-3.324058e+01
5.634760e+02	-3.328336e+01
5.667306e+02	-3.333182e+01
5.700040e+02	-3.337925e+01
5.732964e+02	-3.343609e+01
5.766077e+02	-3.348865e+01
5.799382e+02	-3.353986e+01
5.832879e+02	-3.358605e+01
5.866569e+02	-3.363945e+01
5.900454e+02	-3.368537e+01
5.934535e+02	-3.373793e+01
5.968813e+02	-3.378794e+01
6.003288e+02	-3.383832e+01
6.037963e+02	-3.388764e+01
6.072838e+02	-3.393364e+01
6.107914e+02	-3.398946e+01
6.143194e+02	-3.403964e+01
6.178676e+02	-3.409094e+01
6.214364e+02	-3.413522e+01
6.250258e+02	-3.419693e+01
6.286359e+02	-3.424040e+01
6.322669e+02	-3.429428e+01
6.359189e+02	-3.433856e+01
6.395919e+02	-3.438477e+01
6.432862e+02	-3.444761e+01
6.470017e+02	-3.449317e+01
6.507388e+02	-3.454148e+01
6.544974e+02	-3.459813e+01
6.582778e+02	-3.463994e+01
6.620800e+02	-3.469871e+01
6.659041e+02	-3.474227e+01
6.697504e+02	-3.479417e+01
6.736188e+02	-3.484618e+01
6.775096e+02	-3.490009e+01
6.814229e+02	-3.494292e+01
6.853587e+02	-3.500191e+01
6.893173e+02	-3.504014e+01
6.932988e+02	-3.509405e+01
6.973033e+02	-3.514486e+01
7.013309e+02	-3.518793e+01
