Frequency(Hz)	Magnitude(dB)
1.000000e+01	-2.180977e+00
1.005776e+01	-2.201060e+00
1.011585e+01	-2.220885e+00
1.017428e+01	-2.240883e+00
1.023305e+01	-2.261117e+00
1.029215e+01	-2.281466e+00
1.035160e+01	-2.301913e+00
1.041139e+01	-2.322431e+00
1.047153e+01	-2.343567e+00
1.053201e+01	-2.364189e+00
1.059284e+01	-2.385385e+00
1.065403e+01	-2.406612e+00
1.071556e+01	-2.427852e+00
1.077746e+01	-2.449278e+00
1.083971e+01	-2.470960e+00
1.090232e+01	-2.492950e+00
1.096529e+01	-2.514859e+00
1.102862e+01	-2.536773e+00
1.109232e+01	-2.558953e+00
1.115639e+01	-2.581324e+00
1.122083e+01	-2.603722e+00
1.128564e+01	-2.626522e+00
1.135083e+01	-2.649128e+00
1.141639e+01	-2.672244e+00
1.148233e+01	-2.695312e+00
1.154865e+01	-2.718654e+00
1.161536e+01	-2.741776e+00
1.168245e+01	-2.765281e+00
1.174992e+01	-2.789058e+00
1.181779e+01	-2.812685e+00
1.188605e+01	-2.836779e+00
1.195470e+01	-2.860519e+00
1.202375e+01	-2.885059e+00
1.209320e+01	-2.909305e+00
1.216305e+01	-2.933855e+00
1.223330e+01	-2.958591e+00
1.230396e+01	-2.982986e+00
1.237503e+01	-3.007997e+00
1.244651e+01	-3.033331e+00
1.251840e+01	-3.058256e+00
1.259070e+01	-3.083745e+00
1.266343e+01	-3.109264e+00
1.273657e+01	-3.135077e+00
1.281014e+01	-3.160748e+00
1.288413e+01	-3.186694e+00
1.295855e+01	-3.212687e+00
1.303339e+01	-3.239378e+00
1.310867e+01	-3.265348e+00
1.318439e+01	-3.291748e+00
1.326054e+01	-3.318535e+00
1.333713e+01	-3.345208e+00
1.341417e+01	-3.372202e+00
1.349165e+01	-3.399148e+00
1.356958e+01	-3.426380e+00
1.364795e+01	-3.453873e+00
1.372678e+01	-3.481510e+00
1.380607e+01	-3.509054e+00
1.388581e+01	-3.536740e+00
1.396602e+01	-3.564897e+00
1.404668e+01	-3.593099e+00
1.412782e+01	-3.620956e+00
1.420942e+01	-3.649380e+00
1.429149e+01	-3.677975e+00
1.437404e+01	-3.706620e+00
1.445706e+01	-3.735419e+00
1.454057e+01	-3.764161e+00
1.462455e+01	-3.793389e+00
1.470902e+01	-3.822872e+00
1.479398e+01	-3.851960e+00
1.487943e+01	-3.881400e+00
1.496537e+01	-3.911171e+00
1.505181e+01	-3.940773e+00
1.513875e+01	-3.970783e+00
1.522619e+01	-4.000843e+00
1.531414e+01	-4.031006e+00
1.540259e+01	-4.061276e+00
1.549156e+01	-4.091772e+00
1.558103e+01	-4.122380e+00
1.567103e+01	-4.152954e+00
1.576155e+01	-4.183937e+00
1.585258e+01	-4.215101e+00
1.594415e+01	-4.246000e+00
1.603624e+01	-4.277476e+00
1.612886e+01	-4.308536e+00
1.622202e+01	-4.340292e+00
1.631572e+01	-4.372168e+00
1.640996e+01	-4.404090e+00
1.650474e+01	-4.435675e+00
1.660008e+01	-4.467866e+00
1.669596e+01	-4.499827e+00
1.679239e+01	-4.532292e+00
1.688938e+01	-4.564629e+00
1.698694e+01	-4.597395e+00
1.708505e+01	-4.630220e+00
1.718373e+01	-4.662827e+00
1.728299e+01	-4.696240e+00
1.738281e+01	-4.729319e+00
1.748322e+01	-4.762656e+00
1.758420e+01	-4.795762e+00
1.768576e+01	-4.829249e+00
1.778792e+01	-4.863040e+00
1.789066e+01	-4.896960e+00
1.799399e+01	-4.930597e+00
1.809793e+01	-4.964661e+00
1.820246e+01	-4.998723e+00
1.830760e+01	-5.033084e+00
1.841334e+01	-5.067421e+00
1.851969e+01	-5.101806e+00
1.862666e+01	-5.136644e+00
1.873425e+01	-5.171452e+00
1.884246e+01	-5.206354e+00
1.895129e+01	-5.241225e+00
1.906075e+01	-5.276459e+00
1.917085e+01	-5.311398e+00
1.928158e+01	-5.346962e+00
1.939295e+01	-5.382395e+00
1.950496e+01	-5.417960e+00
1.961762e+01	-5.453621e+00
1.973093e+01	-5.489361e+00
1.984490e+01	-5.525567e+00
1.995952e+01	-5.561812e+00
2.007480e+01	-5.598338e+00
2.019076e+01	-5.633924e+00
2.030738e+01	-5.670479e+00
2.042467e+01	-5.707154e+00
2.054264e+01	-5.743537e+00
2.066130e+01	-5.780224e+00
2.078064e+01	-5.817274e+00
2.090066e+01	-5.854238e+00
2.102139e+01	-5.891389e+00
2.114280e+01	-5.928485e+00
2.126492e+01	-5.965794e+00
2.138775e+01	-6.003139e+00
2.151128e+01	-6.040741e+00
2.163553e+01	-6.078424e+00
2.176050e+01	-6.115937e+00
2.188619e+01	-6.153728e+00
2.201260e+01	-6.192163e+00
2.213974e+01	-6.229849e+00
2.226762e+01	-6.267953e+00
2.239624e+01	-6.306358e+00
2.252560e+01	-6.344744e+00
2.265571e+01	-6.383250e+00
2.278656e+01	-6.421886e+00
2.291818e+01	-6.460109e+00
2.305055e+01	-6.499230e+00
2.318369e+01	-6.538248e+00
2.331760e+01	-6.577010e+00
2.345228e+01	-6.615987e+00
2.358774e+01	-6.655049e+00
2.372398e+01	-6.694641e+00
2.386101e+01	-6.733969e+00
2.399883e+01	-6.773888e+00
2.413745e+01	-6.812956e+00
2.427686e+01	-6.852916e+00
2.441709e+01	-6.892555e+00
2.455812e+01	-6.932322e+00
2.469997e+01	-6.971610e+00
2.484263e+01	-7.012162e+00
2.498612e+01	-7.052058e+00
2.513044e+01	-7.092187e+00
2.527559e+01	-7.132689e+00
2.542158e+01	-7.173233e+00
2.556842e+01	-7.213659e+00
2.571610e+01	-7.254272e+00
2.586463e+01	-7.294817e+00
2.601403e+01	-7.335612e+00
2.616428e+01	-7.376491e+00
2.631541e+01	-7.417726e+00
2.646740e+01	-7.458331e+00
2.662028e+01	-7.499388e+00
2.677404e+01	-7.540448e+00
2.692868e+01	-7.581586e+00
2.708422e+01	-7.623032e+00
2.724066e+01	-7.664729e+00
2.739800e+01	-7.706539e+00
2.755625e+01	-7.747985e+00
2.771541e+01	-7.789141e+00
2.787550e+01	-7.831302e+00
2.803650e+01	-7.873155e+00
2.819844e+01	-7.914928e+00
2.836131e+01	-7.956959e+00
2.852513e+01	-7.999158e+00
2.868989e+01	-8.040995e+00
2.885560e+01	-8.083100e+00
2.902227e+01	-8.125111e+00
2.918990e+01	-8.167768e+00
2.935850e+01	-8.210331e+00
2.952807e+01	-8.252501e+00
2.969863e+01	-8.295561e+00
2.987016e+01	-8.338589e+00
3.004269e+01	-8.380194e+00
3.021622e+01	-8.422947e+00
3.039075e+01	-8.466844e+00
3.056628e+01	-8.509316e+00
3.074283e+01	-8.552474e+00
3.092040e+01	-8.595578e+00
3.109900e+01	-8.638751e+00
3.127862e+01	-8.681926e+00
3.145929e+01	-8.725402e+00
3.164099e+01	-8.768837e+00
3.182375e+01	-8.812256e+00
3.200756e+01	-8.855443e+00
3.219244e+01	-8.899087e+00
3.237838e+01	-8.942494e+00
3.256540e+01	-8.986280e+00
3.275349e+01	-9.029611e+00
3.294268e+01	-9.073855e+00
3.313295e+01	-9.117155e+00
3.332433e+01	-9.161642e+00
3.351681e+01	-9.205575e+00
3.371040e+01	-9.249187e+00
3.390511e+01	-9.293620e+00
3.410094e+01	-9.337748e+00
3.429791e+01	-9.381830e+00
3.449601e+01	-9.426286e+00
3.469526e+01	-9.470626e+00
3.489566e+01	-9.515642e+00
3.509721e+01	-9.559399e+00
3.529993e+01	-9.604194e+00
3.550382e+01	-9.648507e+00
3.570889e+01	-9.692963e+00
3.591515e+01	-9.737887e+00
3.612259e+01	-9.782696e+00
3.633123e+01	-9.827481e+00
3.654108e+01	-9.871824e+00
3.675214e+01	-9.917225e+00
3.696442e+01	-9.962154e+00
3.717792e+01	-1.000714e+01
3.739266e+01	-1.005204e+01
3.760864e+01	-1.009734e+01
3.782587e+01	-1.014250e+01
3.804435e+01	-1.018822e+01
3.826409e+01	-1.023295e+01
3.848510e+01	-1.027812e+01
3.870739e+01	-1.032414e+01
3.893096e+01	-1.036937e+01
3.915583e+01	-1.041483e+01
3.938199e+01	-1.046000e+01
3.960946e+01	-1.050572e+01
3.983824e+01	-1.055109e+01
4.006834e+01	-1.059624e+01
4.029978e+01	-1.064227e+01
4.053255e+01	-1.068797e+01
4.076666e+01	-1.073400e+01
4.100213e+01	-1.077944e+01
4.123896e+01	-1.082573e+01
4.147715e+01	-1.087172e+01
4.171672e+01	-1.091712e+01
4.195767e+01	-1.096321e+01
4.220002e+01	-1.100949e+01
4.244377e+01	-1.105595e+01
4.268892e+01	-1.110182e+01
4.293549e+01	-1.114820e+01
4.318348e+01	-1.119414e+01
4.343291e+01	-1.124024e+01
4.368377e+01	-1.128705e+01
4.393609e+01	-1.133310e+01
4.418986e+01	-1.137954e+01
4.444510e+01	-1.142611e+01
4.470182e+01	-1.147293e+01
4.496001e+01	-1.151892e+01
4.521970e+01	-1.156494e+01
4.548089e+01	-1.161183e+01
4.574358e+01	-1.165835e+01
4.600779e+01	-1.170457e+01
4.627353e+01	-1.175158e+01
4.654081e+01	-1.179877e+01
4.680963e+01	-1.184518e+01
4.708000e+01	-1.189149e+01
4.735193e+01	-1.193830e+01
4.762543e+01	-1.198547e+01
4.790051e+01	-1.203235e+01
4.817719e+01	-1.207912e+01
4.845545e+01	-1.212611e+01
4.873533e+01	-1.217332e+01
4.901682e+01	-1.221995e+01
4.929994e+01	-1.226703e+01
4.958470e+01	-1.231369e+01
4.987110e+01	-1.236170e+01
5.015915e+01	-1.240881e+01
5.044887e+01	-1.245653e+01
5.074026e+01	-1.250295e+01
5.103333e+01	-1.254974e+01
5.132810e+01	-1.259738e+01
5.162457e+01	-1.264465e+01
5.192275e+01	-1.269245e+01
5.222265e+01	-1.273961e+01
5.252429e+01	-1.278718e+01
5.282767e+01	-1.283465e+01
5.313280e+01	-1.288177e+01
5.343969e+01	-1.292920e+01
5.374836e+01	-1.297677e+01
5.405880e+01	-1.302398e+01
5.437105e+01	-1.307167e+01
5.468509e+01	-1.311935e+01
5.500095e+01	-1.316722e+01
5.531863e+01	-1.321393e+01
5.563815e+01	-1.326306e+01
5.595951e+01	-1.331033e+01
5.628273e+01	-1.335831e+01
5.660782e+01	-1.340597e+01
5.693479e+01	-1.345260e+01
5.726364e+01	-1.350109e+01
5.759439e+01	-1.354840e+01
5.792705e+01	-1.359695e+01
5.826164e+01	-1.364383e+01
5.859815e+01	-1.369239e+01
5.893662e+01	-1.373936e+01
5.927703e+01	-1.378840e+01
5.961941e+01	-1.383579e+01
5.996377e+01	-1.388441e+01
6.031012e+01	-1.393214e+01
6.065847e+01	-1.398009e+01
6.100883e+01	-1.402815e+01
6.136121e+01	-1.407678e+01
6.171563e+01	-1.412410e+01
6.207210e+01	-1.417265e+01
6.243063e+01	-1.422114e+01
6.279122e+01	-1.426812e+01
6.315390e+01	-1.431619e+01
6.351868e+01	-1.436489e+01
6.388556e+01	-1.441410e+01
6.425456e+01	-1.446107e+01
6.462569e+01	-1.450968e+01
6.499897e+01	-1.455758e+01
6.537440e+01	-1.460691e+01
6.575200e+01	-1.465421e+01
6.613178e+01	-1.470311e+01
6.651375e+01	-1.475125e+01
6.689793e+01	-1.479873e+01
6.728433e+01	-1.484848e+01
6.767297e+01	-1.489533e+01
6.806384e+01	-1.494483e+01
6.845698e+01	-1.499321e+01
6.885238e+01	-1.504188e+01
6.925007e+01	-1.508989e+01
6.965005e+01	-1.513808e+01
7.005235e+01	-1.518651e+01
7.045697e+01	-1.523573e+01
7.086393e+01	-1.528406e+01
7.127323e+01	-1.533300e+01
7.168490e+01	-1.538168e+01
7.209895e+01	-1.542972e+01
7.251539e+01	-1.547860e+01
7.293424e+01	-1.552765e+01
7.335551e+01	-1.557601e+01
7.377920e+01	-1.562436e+01
7.420535e+01	-1.567284e+01
7.463396e+01	-1.572185e+01
7.506504e+01	-1.577038e+01
7.549861e+01	-1.581763e+01
7.593469e+01	-1.586743e+01
7.637328e+01	-1.591743e+01
7.681441e+01	-1.596533e+01
7.725809e+01	-1.601455e+01
7.770433e+01	-1.606320e+01
7.815315e+01	-1.611281e+01
7.860456e+01	-1.616052e+01
7.905857e+01	-1.620816e+01
7.951521e+01	-1.625836e+01
7.997449e+01	-1.630728e+01
8.043642e+01	-1.635662e+01
8.090102e+01	-1.640541e+01
8.136830e+01	-1.645457e+01
8.183828e+01	-1.650197e+01
8.231097e+01	-1.655169e+01
8.278640e+01	-1.659980e+01
8.326457e+01	-1.664907e+01
8.374550e+01	-1.669834e+01
8.422921e+01	-1.674917e+01
8.471572e+01	-1.679616e+01
8.520503e+01	-1.684450e+01
8.569717e+01	-1.689423e+01
8.619215e+01	-1.694275e+01
8.669000e+01	-1.699236e+01
8.719071e+01	-1.704175e+01
8.769432e+01	-1.709062e+01
8.820084e+01	-1.713916e+01
8.871029e+01	-1.718886e+01
8.922267e+01	-1.723674e+01
8.973802e+01	-1.728588e+01
9.025634e+01	-1.733539e+01
9.077766e+01	-1.738514e+01
9.130199e+01	-1.743393e+01
9.182935e+01	-1.748348e+01
9.235975e+01	-1.753301e+01
9.289321e+01	-1.758092e+01
9.342976e+01	-1.763100e+01
9.396941e+01	-1.768063e+01
9.451217e+01	-1.772914e+01
9.505807e+01	-1.777847e+01
9.560712e+01	-1.782756e+01
9.615934e+01	-1.787682e+01
9.671476e+01	-1.792590e+01
9.727338e+01	-1.797366e+01
9.783522e+01	-1.802556e+01
9.840032e+01	-1.807336e+01
9.896867e+01	-1.812220e+01
9.954031e+01	-1.817231e+01
1.001153e+02	-1.822205e+01
1.006935e+02	-1.827076e+01
1.012751e+02	-1.831958e+01
1.018601e+02	-1.836899e+01
1.024484e+02	-1.841886e+01
1.030402e+02	-1.846820e+01
1.036353e+02	-1.851666e+01
1.042339e+02	-1.856667e+01
1.048360e+02	-1.861636e+01
1.054415e+02	-1.866699e+01
1.060505e+02	-1.871465e+01
1.066631e+02	-1.876334e+01
1.072791e+02	-1.881300e+01
1.078988e+02	-1.886259e+01
1.085220e+02	-1.891309e+01
1.091488e+02	-1.896090e+01
1.097793e+02	-1.901143e+01
1.104133e+02	-1.906018e+01
1.110511e+02	-1.910824e+01
1.116925e+02	-1.915944e+01
1.123376e+02	-1.920821e+01
1.129865e+02	-1.925661e+01
1.136391e+02	-1.930767e+01
1.142955e+02	-1.935693e+01
1.149556e+02	-1.940653e+01
1.156196e+02	-1.945591e+01
1.162874e+02	-1.950473e+01
1.169591e+02	-1.955333e+01
1.176347e+02	-1.960400e+01
1.183141e+02	-1.965257e+01
1.189975e+02	-1.970201e+01
1.196848e+02	-1.975291e+01
1.203761e+02	-1.980186e+01
1.210714e+02	-1.985291e+01
1.217707e+02	-1.990168e+01
1.224740e+02	-1.995010e+01
1.231814e+02	-2.000108e+01
1.238929e+02	-2.005096e+01
1.246085e+02	-2.009980e+01
1.253283e+02	-2.014704e+01
1.260522e+02	-2.019909e+01
1.267802e+02	-2.024754e+01
1.275125e+02	-2.029831e+01
1.282490e+02	-2.034764e+01
1.289898e+02	-2.039734e+01
1.297348e+02	-2.044514e+01
1.304842e+02	-2.049510e+01
1.312378e+02	-2.054441e+01
1.319959e+02	-2.059541e+01
1.327583e+02	-2.064466e+01
1.335251e+02	-2.069348e+01
1.342963e+02	-2.074316e+01
1.350720e+02	-2.079435e+01
1.358522e+02	-2.084363e+01
1.366368e+02	-2.089351e+01
1.374260e+02	-2.094152e+01
1.382198e+02	-2.099194e+01
1.390182e+02	-2.104041e+01
1.398211e+02	-2.109047e+01
1.406287e+02	-2.114270e+01
1.414410e+02	-2.119098e+01
1.422579e+02	-2.123956e+01
1.430796e+02	-2.129115e+01
1.439060e+02	-2.133937e+01
1.447372e+02	-2.139006e+01
1.455732e+02	-2.143947e+01
1.464141e+02	-2.148868e+01
1.472597e+02	-2.153830e+01
1.481103e+02	-2.158669e+01
1.489658e+02	-2.163722e+01
1.498262e+02	-2.168653e+01
1.506916e+02	-2.173624e+01
1.515620e+02	-2.178744e+01
1.524374e+02	-2.183413e+01
1.533179e+02	-2.188608e+01
1.542034e+02	-2.193647e+01
1.550941e+02	-2.198668e+01
1.559899e+02	-2.203595e+01
1.568909e+02	-2.208781e+01
1.577971e+02	-2.213514e+01
1.587085e+02	-2.218462e+01
1.596252e+02	-2.223424e+01
1.605472e+02	-2.228538e+01
1.614745e+02	-2.233272e+01
1.624072e+02	-2.238287e+01
1.633453e+02	-2.243328e+01
1.642887e+02	-2.248326e+01
1.652377e+02	-2.253329e+01
1.661921e+02	-2.258212e+01
1.671520e+02	-2.263168e+01
1.681175e+02	-2.268182e+01
1.690885e+02	-2.273079e+01
1.700651e+02	-2.278004e+01
1.710474e+02	-2.283001e+01
1.720354e+02	-2.288136e+01
1.730291e+02	-2.293106e+01
1.740285e+02	-2.298063e+01
1.750337e+02	-2.303007e+01
1.760446e+02	-2.308121e+01
1.770615e+02	-2.313017e+01
1.780842e+02	-2.318056e+01
1.791128e+02	-2.323025e+01
1.801473e+02	-2.327984e+01
1.811878e+02	-2.332770e+01
1.822344e+02	-2.337940e+01
1.832870e+02	-2.342818e+01
1.843456e+02	-2.347984e+01
1.854104e+02	-2.352796e+01
1.864813e+02	-2.357862e+01
1.875584e+02	-2.362755e+01
1.886418e+02	-2.367900e+01
1.897313e+02	-2.372605e+01
1.908272e+02	-2.377959e+01
1.919294e+02	-2.383042e+01
1.930380e+02	-2.387830e+01
1.941530e+02	-2.392593e+01
1.952744e+02	-2.397666e+01
1.964023e+02	-2.402803e+01
1.975367e+02	-2.407621e+01
1.986777e+02	-2.412674e+01
1.998252e+02	-2.417642e+01
2.009794e+02	-2.422962e+01
2.021403e+02	-2.427738e+01
2.033078e+02	-2.432717e+01
2.044821e+02	-2.437922e+01
2.056632e+02	-2.442357e+01
2.068511e+02	-2.447667e+01
2.080459e+02	-2.452879e+01
2.092475e+02	-2.457729e+01
2.104561e+02	-2.462643e+01
2.116717e+02	-2.467539e+01
2.128943e+02	-2.472744e+01
2.141240e+02	-2.477514e+01
2.153608e+02	-2.482317e+01
2.166047e+02	-2.487656e+01
2.178558e+02	-2.492454e+01
2.191141e+02	-2.497511e+01
2.203797e+02	-2.502518e+01
2.216526e+02	-2.507296e+01
2.229329e+02	-2.512214e+01
2.242205e+02	-2.517355e+01
2.255156e+02	-2.522593e+01
2.268182e+02	-2.527432e+01
2.281283e+02	-2.532627e+01
2.294459e+02	-2.537441e+01
2.307712e+02	-2.542806e+01
2.321041e+02	-2.547607e+01
2.334447e+02	-2.552646e+01
2.347931e+02	-2.557487e+01
2.361493e+02	-2.562352e+01
2.375133e+02	-2.567329e+01
2.388851e+02	-2.572444e+01
2.402649e+02	-2.577430e+01
2.416527e+02	-2.582421e+01
2.430484e+02	-2.587383e+01
2.444523e+02	-2.592426e+01
2.458642e+02	-2.597448e+01
2.472843e+02	-2.602353e+01
2.487126e+02	-2.607245e+01
2.501492e+02	-2.612583e+01
2.515940e+02	-2.617172e+01
2.530472e+02	-2.622399e+01
2.545088e+02	-2.627280e+01
2.559789e+02	-2.632410e+01
2.574574e+02	-2.637254e+01
2.589444e+02	-2.641954e+01
2.604401e+02	-2.647439e+01
2.619444e+02	-2.652381e+01
2.634574e+02	-2.657120e+01
2.649791e+02	-2.662387e+01
2.665096e+02	-2.667359e+01
2.680489e+02	-2.672174e+01
2.695972e+02	-2.677595e+01
2.711544e+02	-2.682491e+01
2.727205e+02	-2.687277e+01
2.742958e+02	-2.692341e+01
2.758801e+02	-2.697607e+01
2.774736e+02	-2.702385e+01
2.790762e+02	-2.707275e+01
2.806882e+02	-2.712348e+01
2.823094e+02	-2.717141e+01
2.839400e+02	-2.721997e+01
2.855800e+02	-2.727557e+01
2.872295e+02	-2.731963e+01
2.888886e+02	-2.737209e+01
2.905572e+02	-2.742041e+01
2.922354e+02	-2.746932e+01
2.939234e+02	-2.752273e+01
2.956211e+02	-2.757125e+01
2.973286e+02	-2.762363e+01
2.990459e+02	-2.767386e+01
3.007732e+02	-2.772515e+01
3.025104e+02	-2.777438e+01
3.042577e+02	-2.782281e+01
3.060151e+02	-2.787234e+01
3.077826e+02	-2.792136e+01
3.095604e+02	-2.797228e+01
3.113484e+02	-2.802049e+01
3.131467e+02	-2.807284e+01
3.149554e+02	-2.812151e+01
3.167746e+02	-2.817100e+01
3.186043e+02	-2.822607e+01
3.204445e+02	-2.827632e+01
3.222954e+02	-2.832519e+01
3.241570e+02	-2.837362e+01
3.260293e+02	-2.841968e+01
3.279124e+02	-2.847141e+01
3.298064e+02	-2.852124e+01
3.317114e+02	-2.857561e+01
3.336273e+02	-2.862008e+01
3.355544e+02	-2.867281e+01
3.374925e+02	-2.872299e+01
3.394418e+02	-2.877525e+01
3.414024e+02	-2.882119e+01
3.433744e+02	-2.887257e+01
3.453577e+02	-2.892862e+01
3.473525e+02	-2.897349e+01
3.493588e+02	-2.902161e+01
3.513766e+02	-2.907341e+01
3.534062e+02	-2.912719e+01
3.554474e+02	-2.917520e+01
3.575005e+02	-2.922594e+01
3.595654e+02	-2.927076e+01
3.616422e+02	-2.932730e+01
3.637311e+02	-2.937842e+01
3.658320e+02	-2.942502e+01
3.679450e+02	-2.947334e+01
3.700702e+02	-2.952781e+01
3.722077e+02	-2.957270e+01
3.743576e+02	-2.962554e+01
3.765199e+02	-2.967379e+01
3.786946e+02	-2.972529e+01
3.808820e+02	-2.976951e+01
3.830819e+02	-2.982440e+01
3.852946e+02	-2.987754e+01
3.875200e+02	-2.992831e+01
3.897583e+02	-2.997513e+01
3.920096e+02	-3.002693e+01
3.942738e+02	-3.007453e+01
3.965511e+02	-3.012696e+01
3.988416e+02	-3.017962e+01
4.011452e+02	-3.022597e+01
4.034622e+02	-3.027819e+01
4.057926e+02	-3.032753e+01
4.081365e+02	-3.037640e+01
4.104938e+02	-3.042245e+01
4.128648e+02	-3.047309e+01
4.152495e+02	-3.052664e+01
4.176480e+02	-3.057278e+01
4.200603e+02	-3.062876e+01
4.224866e+02	-3.067924e+01
4.249268e+02	-3.072695e+01
4.273812e+02	-3.077643e+01
4.298497e+02	-3.082629e+01
4.323325e+02	-3.088167e+01
4.348297e+02	-3.092428e+01
4.373412e+02	-3.098142e+01
4.398673e+02	-3.102987e+01
4.424079e+02	-3.107745e+01
4.449633e+02	-3.112602e+01
4.475334e+02	-3.117391e+01
4.501183e+02	-3.123110e+01
4.527182e+02	-3.127630e+01
4.553330e+02	-3.132792e+01
4.579630e+02	-3.137398e+01
4.606082e+02	-3.143270e+01
4.632687e+02	-3.148063e+01
4.659445e+02	-3.152764e+01
4.686358e+02	-3.158185e+01
4.713426e+02	-3.163405e+01
4.740650e+02	-3.168237e+01
4.768032e+02	-3.173516e+01
4.795572e+02	-3.177877e+01
4.823271e+02	-3.183016e+01
4.851130e+02	-3.188151e+01
4.879150e+02	-3.193300e+01
4.907332e+02	-3.197618e+01
4.935676e+02	-3.203094e+01
4.964185e+02	-3.207931e+01
4.992858e+02	-3.212628e+01
5.021696e+02	-3.218548e+01
5.050701e+02	-3.223606e+01
5.079874e+02	-3.227462e+01
5.109215e+02	-3.233716e+01
5.138726e+02	-3.238745e+01
5.168407e+02	-3.243581e+01
5.198259e+02	-3.248563e+01
5.228284e+02	-3.253399e+01
5.258482e+02	-3.258121e+01
5.288855e+02	-3.263007e+01
5.319403e+02	-3.268230e+01
5.350128e+02	-3.273341e+01
5.381030e+02	-3.278714e+01
5.412111e+02	-3.283783e+01
5.443371e+02	-3.288428e+01
5.474812e+02	-3.292688e+01
5.506434e+02	-3.299201e+01
5.538239e+02	-3.302851e+01
5.570228e+02	-3.308742e+01
5.602401e+02	-3.313758e+01
5.634760e+02	-3.318399e+01
5.667306e+02	-3.323545e+01
5.700040e+02	-3.328277e+01
5.732964e+02	-3.333722e+01
5.766077e+02	-3.338109e+01
5.799382e+02	-3.344362e+01
5.832879e+02	-3.348931e+01
5.866569e+02	-3.354329e+01
5.900454e+02	-3.358947e+01
5.934535e+02	-3.363557e+01
5.968813e+02	-3.368648e+01
6.003288e+02	-3.373411e+01
6.037963e+02	-3.378930e+01
6.072838e+02	-3.383493e+01
6.107914e+02	-3.389380e+01
6.143194e+02	-3.393158e+01
6.178676e+02	-3.398821e+01
6.214364e+02	-3.403941e+01
6.250258e+02	-3.408670e+01
6.286359e+02	-3.414279e+01
6.322669e+02	-3.418879e+01
6.359189e+02	-3.423289e+01
6.395919e+02	-3.429014e+01
6.432862e+02	-3.433899e+01
6.470017e+02	-3.439159e+01
6.507388e+02	-3.444790e+01
6.544974e+02	-3.449186e+01
6.582778e+02	-3.454384e+01
6.620800e+02	-3.459521e+01
6.659041e+02	-3.464803e+01
6.697504e+02	-3.468690e+01
6.736188e+02	-3.474824e+01
6.775096e+02	-3.479793e+01
6.814229e+02	-3.484638e+01
6.853587e+02	-3.489538e+01
6.893173e+02	-3.494477e+01
6.932988e+02	-3.499458e+01
6.973033e+02	-3.504622e+01
7.013309e+02	-3.509343e+01
