Frequency(Hz)	Magnitude(dB)
1.000000e+01	-2.186636e+00
1.005776e+01	-2.206457e+00
1.011585e+01	-2.226754e+00
1.017428e+01	-2.246511e+00
1.023305e+01	-2.266705e+00
1.029215e+01	-2.287226e+00
1.035160e+01	-2.307839e+00
1.041139e+01	-2.328480e+00
1.047153e+01	-2.349402e+00
1.053201e+01	-2.370306e+00
1.059284e+01	-2.391518e+00
1.065403e+01	-2.412594e+00
1.071556e+01	-2.434163e+00
1.077746e+01	-2.455440e+00
1.083971e+01	-2.477474e+00
1.090232e+01	-2.499425e+00
1.096529e+01	-2.521172e+00
1.102862e+01	-2.543246e+00
1.109232e+01	-2.565549e+00
1.115639e+01	-2.587955e+00
1.122083e+01	-2.610192e+00
1.128564e+01	-2.632828e+00
1.135083e+01	-2.655595e+00
1.141639e+01	-2.678684e+00
1.148233e+01	-2.702332e+00
1.154865e+01	-2.725244e+00
1.161536e+01	-2.748470e+00
1.168245e+01	-2.772165e+00
1.174992e+01	-2.795813e+00
1.181779e+01	-2.819628e+00
1.188605e+01	-2.843457e+00
1.195470e+01	-2.867503e+00
1.202375e+01	-2.891788e+00
1.209320e+01	-2.916335e+00
1.216305e+01	-2.940676e+00
1.223330e+01	-2.965693e+00
1.230396e+01	-2.990134e+00
1.237503e+01	-3.015334e+00
1.244651e+01	-3.040294e+00
1.251840e+01	-3.065527e+00
1.259070e+01	-3.090881e+00
1.266343e+01	-3.116767e+00
1.273657e+01	-3.142327e+00
1.281014e+01	-3.168204e+00
1.288413e+01	-3.193951e+00
1.295855e+01	-3.220125e+00
1.303339e+01	-3.246644e+00
1.310867e+01	-3.272749e+00
1.318439e+01	-3.299544e+00
1.326054e+01	-3.325957e+00
1.333713e+01	-3.352856e+00
1.341417e+01	-3.379988e+00
1.349165e+01	-3.407081e+00
1.356958e+01	-3.434375e+00
1.364795e+01	-3.461734e+00
1.372678e+01	-3.489337e+00
1.380607e+01	-3.516806e+00
1.388581e+01	-3.544932e+00
1.396602e+01	-3.572709e+00
1.404668e+01	-3.600835e+00
1.412782e+01	-3.628992e+00
1.420942e+01	-3.657709e+00
1.429149e+01	-3.686293e+00
1.437404e+01	-3.714816e+00
1.445706e+01	-3.743534e+00
1.454057e+01	-3.772638e+00
1.462455e+01	-3.801618e+00
1.470902e+01	-3.831145e+00
1.479398e+01	-3.860420e+00
1.487943e+01	-3.889670e+00
1.496537e+01	-3.919715e+00
1.505181e+01	-3.949341e+00
1.513875e+01	-3.979269e+00
1.522619e+01	-4.009332e+00
1.531414e+01	-4.039811e+00
1.540259e+01	-4.069846e+00
1.549156e+01	-4.100689e+00
1.558103e+01	-4.131376e+00
1.567103e+01	-4.162174e+00
1.576155e+01	-4.192881e+00
1.585258e+01	-4.224221e+00
1.594415e+01	-4.255217e+00
1.603624e+01	-4.286393e+00
1.612886e+01	-4.317789e+00
1.622202e+01	-4.349275e+00
1.631572e+01	-4.381123e+00
1.640996e+01	-4.413093e+00
1.650474e+01	-4.444861e+00
1.660008e+01	-4.477022e+00
1.669596e+01	-4.509455e+00
1.679239e+01	-4.541739e+00
1.688938e+01	-4.574067e+00
1.698694e+01	-4.606722e+00
1.708505e+01	-4.639671e+00
1.718373e+01	-4.672419e+00
1.728299e+01	-4.705388e+00
1.738281e+01	-4.738529e+00
1.748322e+01	-4.772031e+00
1.758420e+01	-4.805595e+00
1.768576e+01	-4.839005e+00
1.778792e+01	-4.872680e+00
1.789066e+01	-4.906489e+00
1.799399e+01	-4.940502e+00
1.809793e+01	-4.974308e+00
1.820246e+01	-5.008740e+00
1.830760e+01	-5.042864e+00
1.841334e+01	-5.077429e+00
1.851969e+01	-5.111936e+00
1.862666e+01	-5.146622e+00
1.873425e+01	-5.181346e+00
1.884246e+01	-5.216178e+00
1.895129e+01	-5.251237e+00
1.906075e+01	-5.286780e+00
1.917085e+01	-5.321721e+00
1.928158e+01	-5.357302e+00
1.939295e+01	-5.392582e+00
1.950496e+01	-5.428135e+00
1.961762e+01	-5.464021e+00
1.973093e+01	-5.499939e+00
1.984490e+01	-5.535803e+00
1.995952e+01	-5.572247e+00
2.007480e+01	-5.607878e+00
2.019076e+01	-5.644320e+00
2.030738e+01	-5.680710e+00
2.042467e+01	-5.717540e+00
2.054264e+01	-5.754287e+00
2.066130e+01	-5.791182e+00
2.078064e+01	-5.827657e+00
2.090066e+01	-5.864881e+00
2.102139e+01	-5.901699e+00
2.114280e+01	-5.939023e+00
2.126492e+01	-5.976654e+00
2.138775e+01	-6.013913e+00
2.151128e+01	-6.051396e+00
2.163553e+01	-6.089309e+00
2.176050e+01	-6.126912e+00
2.188619e+01	-6.164794e+00
2.201260e+01	-6.202623e+00
2.213974e+01	-6.241016e+00
2.226762e+01	-6.278816e+00
2.239624e+01	-6.317584e+00
2.252560e+01	-6.355767e+00
2.265571e+01	-6.394155e+00
2.278656e+01	-6.432761e+00
2.291818e+01	-6.471421e+00
2.305055e+01	-6.510590e+00
2.318369e+01	-6.549399e+00
2.331760e+01	-6.587980e+00
2.345228e+01	-6.627273e+00
2.358774e+01	-6.666604e+00
2.372398e+01	-6.706096e+00
2.386101e+01	-6.745574e+00
2.399883e+01	-6.784653e+00
2.413745e+01	-6.824598e+00
2.427686e+01	-6.863824e+00
2.441709e+01	-6.903901e+00
2.455812e+01	-6.943948e+00
2.469997e+01	-6.983257e+00
2.484263e+01	-7.023690e+00
2.498612e+01	-7.063771e+00
2.513044e+01	-7.104264e+00
2.527559e+01	-7.144549e+00
2.542158e+01	-7.184721e+00
2.556842e+01	-7.224939e+00
2.571610e+01	-7.265962e+00
2.586463e+01	-7.306495e+00
2.601403e+01	-7.347362e+00
2.616428e+01	-7.388094e+00
2.631541e+01	-7.429399e+00
2.646740e+01	-7.470495e+00
2.662028e+01	-7.511049e+00
2.677404e+01	-7.552263e+00
2.692868e+01	-7.593812e+00
2.708422e+01	-7.635332e+00
2.724066e+01	-7.676177e+00
2.739800e+01	-7.718301e+00
2.755625e+01	-7.759961e+00
2.771541e+01	-7.800990e+00
2.787550e+01	-7.843156e+00
2.803650e+01	-7.884673e+00
2.819844e+01	-7.926871e+00
2.836131e+01	-7.968751e+00
2.852513e+01	-8.010783e+00
2.868989e+01	-8.052900e+00
2.885560e+01	-8.095431e+00
2.902227e+01	-8.137471e+00
2.918990e+01	-8.180142e+00
2.935850e+01	-8.222888e+00
2.952807e+01	-8.264877e+00
2.969863e+01	-8.307754e+00
2.987016e+01	-8.350043e+00
3.004269e+01	-8.392848e+00
3.021622e+01	-8.435483e+00
3.039075e+01	-8.478615e+00
3.056628e+01	-8.521915e+00
3.074283e+01	-8.564877e+00
3.092040e+01	-8.607936e+00
3.109900e+01	-8.650880e+00
3.127862e+01	-8.693837e+00
3.145929e+01	-8.737655e+00
3.164099e+01	-8.781274e+00
3.182375e+01	-8.823658e+00
3.200756e+01	-8.867998e+00
3.219244e+01	-8.911355e+00
3.237838e+01	-8.954996e+00
3.256540e+01	-8.999127e+00
3.275349e+01	-9.042387e+00
3.294268e+01	-9.086323e+00
3.313295e+01	-9.130156e+00
3.332433e+01	-9.174856e+00
3.351681e+01	-9.218377e+00
3.371040e+01	-9.262784e+00
3.390511e+01	-9.306734e+00
3.410094e+01	-9.350523e+00
3.429791e+01	-9.395229e+00
3.449601e+01	-9.438765e+00
3.469526e+01	-9.482823e+00
3.489566e+01	-9.527845e+00
3.509721e+01	-9.572940e+00
3.529993e+01	-9.616959e+00
3.550382e+01	-9.661414e+00
3.570889e+01	-9.705945e+00
3.591515e+01	-9.750832e+00
3.612259e+01	-9.795332e+00
3.633123e+01	-9.840828e+00
3.654108e+01	-9.884804e+00
3.675214e+01	-9.929933e+00
3.696442e+01	-9.974953e+00
3.717792e+01	-1.002016e+01
3.739266e+01	-1.006546e+01
3.760864e+01	-1.011031e+01
3.782587e+01	-1.015573e+01
3.804435e+01	-1.020109e+01
3.826409e+01	-1.024634e+01
3.848510e+01	-1.029149e+01
3.870739e+01	-1.033699e+01
3.893096e+01	-1.038193e+01
3.915583e+01	-1.042698e+01
3.938199e+01	-1.047293e+01
3.960946e+01	-1.051919e+01
3.983824e+01	-1.056423e+01
4.006834e+01	-1.060968e+01
4.029978e+01	-1.065529e+01
4.053255e+01	-1.070105e+01
4.076666e+01	-1.074757e+01
4.100213e+01	-1.079296e+01
4.123896e+01	-1.083873e+01
4.147715e+01	-1.088536e+01
4.171672e+01	-1.093071e+01
4.195767e+01	-1.097677e+01
4.220002e+01	-1.102335e+01
4.244377e+01	-1.106908e+01
4.268892e+01	-1.111518e+01
4.293549e+01	-1.116178e+01
4.318348e+01	-1.120744e+01
4.343291e+01	-1.125377e+01
4.368377e+01	-1.130009e+01
4.393609e+01	-1.134598e+01
4.418986e+01	-1.139278e+01
4.444510e+01	-1.143933e+01
4.470182e+01	-1.148600e+01
4.496001e+01	-1.153264e+01
4.521970e+01	-1.157844e+01
4.548089e+01	-1.162497e+01
4.574358e+01	-1.167142e+01
4.600779e+01	-1.171802e+01
4.627353e+01	-1.176514e+01
4.654081e+01	-1.181152e+01
4.680963e+01	-1.185881e+01
4.708000e+01	-1.190520e+01
4.735193e+01	-1.195260e+01
4.762543e+01	-1.199898e+01
4.790051e+01	-1.204606e+01
4.817719e+01	-1.209325e+01
4.845545e+01	-1.213961e+01
4.873533e+01	-1.218650e+01
4.901682e+01	-1.223421e+01
4.929994e+01	-1.228050e+01
4.958470e+01	-1.232851e+01
4.987110e+01	-1.237507e+01
5.015915e+01	-1.242262e+01
5.044887e+01	-1.246963e+01
5.074026e+01	-1.251706e+01
5.103333e+01	-1.256359e+01
5.132810e+01	-1.261064e+01
5.162457e+01	-1.265830e+01
5.192275e+01	-1.270648e+01
5.222265e+01	-1.275312e+01
5.252429e+01	-1.280103e+01
5.282767e+01	-1.284784e+01
5.313280e+01	-1.289465e+01
5.343969e+01	-1.294281e+01
5.374836e+01	-1.298987e+01
5.405880e+01	-1.303718e+01
5.437105e+01	-1.308560e+01
5.468509e+01	-1.313271e+01
5.500095e+01	-1.318079e+01
5.531863e+01	-1.322818e+01
5.563815e+01	-1.327633e+01
5.595951e+01	-1.332364e+01
5.628273e+01	-1.337140e+01
5.660782e+01	-1.341872e+01
5.693479e+01	-1.346681e+01
5.726364e+01	-1.351423e+01
5.759439e+01	-1.356308e+01
5.792705e+01	-1.361092e+01
5.826164e+01	-1.365766e+01
5.859815e+01	-1.370525e+01
5.893662e+01	-1.375400e+01
5.927703e+01	-1.380234e+01
5.961941e+01	-1.384914e+01
5.996377e+01	-1.389854e+01
6.031012e+01	-1.394535e+01
6.065847e+01	-1.399331e+01
6.100883e+01	-1.404160e+01
6.136121e+01	-1.409057e+01
6.171563e+01	-1.413797e+01
6.207210e+01	-1.418656e+01
6.243063e+01	-1.423444e+01
6.279122e+01	-1.428288e+01
6.315390e+01	-1.433031e+01
6.351868e+01	-1.437855e+01
6.388556e+01	-1.442700e+01
6.425456e+01	-1.447482e+01
6.462569e+01	-1.452370e+01
6.499897e+01	-1.457158e+01
6.537440e+01	-1.462046e+01
6.575200e+01	-1.466837e+01
6.613178e+01	-1.471639e+01
6.651375e+01	-1.476536e+01
6.689793e+01	-1.481351e+01
6.728433e+01	-1.486149e+01
6.767297e+01	-1.490966e+01
6.806384e+01	-1.495843e+01
6.845698e+01	-1.500680e+01
6.885238e+01	-1.505579e+01
6.925007e+01	-1.510402e+01
6.965005e+01	-1.515188e+01
7.005235e+01	-1.520046e+01
7.045697e+01	-1.524878e+01
7.086393e+01	-1.529780e+01
7.127323e+01	-1.534573e+01
7.168490e+01	-1.539521e+01
7.209895e+01	-1.544373e+01
7.251539e+01	-1.549236e+01
7.293424e+01	-1.554152e+01
7.335551e+01	-1.559018e+01
7.377920e+01	-1.563807e+01
7.420535e+01	-1.568696e+01
7.463396e+01	-1.573568e+01
7.506504e+01	-1.578395e+01
7.549861e+01	-1.583300e+01
7.593469e+01	-1.588247e+01
7.637328e+01	-1.593159e+01
7.681441e+01	-1.597848e+01
7.725809e+01	-1.602824e+01
7.770433e+01	-1.607660e+01
7.815315e+01	-1.612514e+01
7.860456e+01	-1.617444e+01
7.905857e+01	-1.622378e+01
7.951521e+01	-1.627234e+01
7.997449e+01	-1.632083e+01
8.043642e+01	-1.636962e+01
8.090102e+01	-1.641851e+01
8.136830e+01	-1.646763e+01
8.183828e+01	-1.651662e+01
8.231097e+01	-1.656534e+01
8.278640e+01	-1.661466e+01
8.326457e+01	-1.666309e+01
8.374550e+01	-1.671129e+01
8.422921e+01	-1.676106e+01
8.471572e+01	-1.680942e+01
8.520503e+01	-1.685941e+01
8.569717e+01	-1.690793e+01
8.619215e+01	-1.695780e+01
8.669000e+01	-1.700659e+01
8.719071e+01	-1.705591e+01
8.769432e+01	-1.710543e+01
8.820084e+01	-1.715283e+01
8.871029e+01	-1.720242e+01
8.922267e+01	-1.725187e+01
8.973802e+01	-1.730087e+01
9.025634e+01	-1.734943e+01
9.077766e+01	-1.739756e+01
9.130199e+01	-1.744851e+01
9.182935e+01	-1.749637e+01
9.235975e+01	-1.754650e+01
9.289321e+01	-1.759669e+01
9.342976e+01	-1.764230e+01
9.396941e+01	-1.769439e+01
9.451217e+01	-1.774331e+01
9.505807e+01	-1.779289e+01
9.560712e+01	-1.784182e+01
9.615934e+01	-1.789163e+01
9.671476e+01	-1.793953e+01
9.727338e+01	-1.798876e+01
9.783522e+01	-1.803991e+01
9.840032e+01	-1.808745e+01
9.896867e+01	-1.813767e+01
9.954031e+01	-1.818605e+01
1.001153e+02	-1.823555e+01
1.006935e+02	-1.828439e+01
1.012751e+02	-1.833366e+01
1.018601e+02	-1.838372e+01
1.024484e+02	-1.843285e+01
1.030402e+02	-1.848159e+01
1.036353e+02	-1.853131e+01
1.042339e+02	-1.858125e+01
1.048360e+02	-1.863012e+01
1.054415e+02	-1.867880e+01
1.060505e+02	-1.872620e+01
1.066631e+02	-1.877728e+01
1.072791e+02	-1.882874e+01
1.078988e+02	-1.887675e+01
1.085220e+02	-1.892537e+01
1.091488e+02	-1.897524e+01
1.097793e+02	-1.902479e+01
1.104133e+02	-1.907402e+01
1.110511e+02	-1.912399e+01
1.116925e+02	-1.917368e+01
1.123376e+02	-1.922290e+01
1.129865e+02	-1.927169e+01
1.136391e+02	-1.932215e+01
1.142955e+02	-1.937145e+01
1.149556e+02	-1.942057e+01
1.156196e+02	-1.946991e+01
1.162874e+02	-1.951993e+01
1.169591e+02	-1.956804e+01
1.176347e+02	-1.961791e+01
1.183141e+02	-1.966946e+01
1.189975e+02	-1.971799e+01
1.196848e+02	-1.976699e+01
1.203761e+02	-1.981592e+01
1.210714e+02	-1.986596e+01
1.217707e+02	-1.991648e+01
1.224740e+02	-1.996460e+01
1.231814e+02	-2.001286e+01
1.238929e+02	-2.006297e+01
1.246085e+02	-2.011350e+01
1.253283e+02	-2.016315e+01
1.260522e+02	-2.021210e+01
1.267802e+02	-2.026156e+01
1.275125e+02	-2.031112e+01
1.282490e+02	-2.036064e+01
1.289898e+02	-2.041071e+01
1.297348e+02	-2.046066e+01
1.304842e+02	-2.051161e+01
1.312378e+02	-2.055929e+01
1.319959e+02	-2.061097e+01
1.327583e+02	-2.065928e+01
1.335251e+02	-2.070823e+01
1.342963e+02	-2.075720e+01
1.350720e+02	-2.080882e+01
1.358522e+02	-2.085786e+01
1.366368e+02	-2.090713e+01
1.374260e+02	-2.095461e+01
1.382198e+02	-2.100574e+01
1.390182e+02	-2.105478e+01
1.398211e+02	-2.110645e+01
1.406287e+02	-2.115432e+01
1.414410e+02	-2.120502e+01
1.422579e+02	-2.125426e+01
1.430796e+02	-2.130794e+01
1.439060e+02	-2.135395e+01
1.447372e+02	-2.140260e+01
1.455732e+02	-2.145469e+01
1.464141e+02	-2.150302e+01
1.472597e+02	-2.155359e+01
1.481103e+02	-2.160197e+01
1.489658e+02	-2.165175e+01
1.498262e+02	-2.170215e+01
1.506916e+02	-2.175199e+01
1.515620e+02	-2.180152e+01
1.524374e+02	-2.185209e+01
1.533179e+02	-2.190102e+01
1.542034e+02	-2.195166e+01
1.550941e+02	-2.200316e+01
1.559899e+02	-2.205041e+01
1.568909e+02	-2.209832e+01
1.577971e+02	-2.214957e+01
1.587085e+02	-2.219858e+01
1.596252e+02	-2.225108e+01
1.605472e+02	-2.229838e+01
1.614745e+02	-2.234857e+01
1.624072e+02	-2.239677e+01
1.633453e+02	-2.244877e+01
1.642887e+02	-2.249662e+01
1.652377e+02	-2.254642e+01
1.661921e+02	-2.259700e+01
1.671520e+02	-2.264762e+01
1.681175e+02	-2.269528e+01
1.690885e+02	-2.274674e+01
1.700651e+02	-2.279686e+01
1.710474e+02	-2.284569e+01
1.720354e+02	-2.289468e+01
1.730291e+02	-2.294525e+01
1.740285e+02	-2.299387e+01
1.750337e+02	-2.304440e+01
1.760446e+02	-2.309417e+01
1.770615e+02	-2.314484e+01
1.780842e+02	-2.319468e+01
1.791128e+02	-2.324662e+01
1.801473e+02	-2.329483e+01
1.811878e+02	-2.334258e+01
1.822344e+02	-2.339470e+01
1.832870e+02	-2.344538e+01
1.843456e+02	-2.349531e+01
1.854104e+02	-2.354750e+01
1.864813e+02	-2.359289e+01
1.875584e+02	-2.364347e+01
1.886418e+02	-2.369356e+01
1.897313e+02	-2.374166e+01
1.908272e+02	-2.379321e+01
1.919294e+02	-2.384395e+01
1.930380e+02	-2.388833e+01
1.941530e+02	-2.393971e+01
1.952744e+02	-2.399139e+01
1.964023e+02	-2.403976e+01
1.975367e+02	-2.408970e+01
1.986777e+02	-2.414200e+01
1.998252e+02	-2.419264e+01
2.009794e+02	-2.424232e+01
2.021403e+02	-2.429356e+01
2.033078e+02	-2.434132e+01
2.044821e+02	-2.439075e+01
2.056632e+02	-2.444110e+01
2.068511e+02	-2.448997e+01
2.080459e+02	-2.454025e+01
2.092475e+02	-2.459066e+01
2.104561e+02	-2.463771e+01
2.116717e+02	-2.469076e+01
2.128943e+02	-2.473897e+01
2.141240e+02	-2.479121e+01
2.153608e+02	-2.483924e+01
2.166047e+02	-2.489395e+01
2.178558e+02	-2.493693e+01
2.191141e+02	-2.498807e+01
2.203797e+02	-2.503926e+01
2.216526e+02	-2.508757e+01
2.229329e+02	-2.514021e+01
2.242205e+02	-2.518966e+01
2.255156e+02	-2.523903e+01
2.268182e+02	-2.528901e+01
2.281283e+02	-2.533878e+01
2.294459e+02	-2.539297e+01
2.307712e+02	-2.543897e+01
2.321041e+02	-2.548756e+01
2.334447e+02	-2.553848e+01
2.347931e+02	-2.559081e+01
2.361493e+02	-2.563631e+01
2.375133e+02	-2.568622e+01
2.388851e+02	-2.573806e+01
2.402649e+02	-2.579011e+01
2.416527e+02	-2.583597e+01
2.430484e+02	-2.589022e+01
2.444523e+02	-2.593745e+01
2.458642e+02	-2.598720e+01
2.472843e+02	-2.603764e+01
2.487126e+02	-2.608765e+01
2.501492e+02	-2.613770e+01
2.515940e+02	-2.618619e+01
2.530472e+02	-2.623692e+01
2.545088e+02	-2.628679e+01
2.559789e+02	-2.633927e+01
2.574574e+02	-2.638874e+01
2.589444e+02	-2.643755e+01
2.604401e+02	-2.648613e+01
2.619444e+02	-2.653819e+01
2.634574e+02	-2.659018e+01
2.649791e+02	-2.663797e+01
2.665096e+02	-2.668664e+01
2.680489e+02	-2.673329e+01
2.695972e+02	-2.678532e+01
2.711544e+02	-2.683835e+01
2.727205e+02	-2.688934e+01
2.742958e+02	-2.693797e+01
2.758801e+02	-2.698865e+01
2.774736e+02	-2.703863e+01
2.790762e+02	-2.708813e+01
2.806882e+02	-2.713644e+01
2.823094e+02	-2.719223e+01
2.839400e+02	-2.724161e+01
2.855800e+02	-2.729017e+01
2.872295e+02	-2.733840e+01
2.888886e+02	-2.738903e+01
2.905572e+02	-2.743846e+01
2.922354e+02	-2.748633e+01
2.939234e+02	-2.753692e+01
2.956211e+02	-2.758884e+01
2.973286e+02	-2.763669e+01
2.990459e+02	-2.768476e+01
3.007732e+02	-2.773933e+01
3.025104e+02	-2.778866e+01
3.042577e+02	-2.783513e+01
3.060151e+02	-2.788937e+01
3.077826e+02	-2.793347e+01
3.095604e+02	-2.798800e+01
3.113484e+02	-2.803998e+01
3.131467e+02	-2.808737e+01
3.149554e+02	-2.813477e+01
3.167746e+02	-2.819055e+01
3.186043e+02	-2.823924e+01
3.204445e+02	-2.828628e+01
3.222954e+02	-2.833811e+01
3.241570e+02	-2.838573e+01
3.260293e+02	-2.843819e+01
3.279124e+02	-2.849197e+01
3.298064e+02	-2.853630e+01
3.317114e+02	-2.858165e+01
3.336273e+02	-2.863708e+01
3.355544e+02	-2.868742e+01
3.374925e+02	-2.873783e+01
3.394418e+02	-2.878584e+01
3.414024e+02	-2.883747e+01
3.433744e+02	-2.889036e+01
3.453577e+02	-2.893726e+01
3.473525e+02	-2.898475e+01
3.493588e+02	-2.903333e+01
3.513766e+02	-2.908676e+01
3.534062e+02	-2.913529e+01
3.554474e+02	-2.918944e+01
3.575005e+02	-2.923911e+01
3.595654e+02	-2.928427e+01
3.616422e+02	-2.933937e+01
3.637311e+02	-2.939084e+01
3.658320e+02	-2.943393e+01
3.679450e+02	-2.948697e+01
3.700702e+02	-2.953906e+01
3.722077e+02	-2.959066e+01
3.743576e+02	-2.963716e+01
3.765199e+02	-2.968549e+01
3.786946e+02	-2.973294e+01
3.808820e+02	-2.978617e+01
3.830819e+02	-2.983746e+01
3.852946e+02	-2.988787e+01
3.875200e+02	-2.994124e+01
3.897583e+02	-2.998869e+01
3.920096e+02	-3.004332e+01
3.942738e+02	-3.008727e+01
3.965511e+02	-3.014182e+01
3.988416e+02	-3.019125e+01
4.011452e+02	-3.024205e+01
4.034622e+02	-3.029642e+01
4.057926e+02	-3.033795e+01
4.081365e+02	-3.038999e+01
4.104938e+02	-3.044052e+01
4.128648e+02	-3.048573e+01
4.152495e+02	-3.054280e+01
4.176480e+02	-3.059053e+01
4.200603e+02	-3.064008e+01
4.224866e+02	-3.069285e+01
4.249268e+02	-3.074082e+01
4.273812e+02	-3.079365e+01
4.298497e+02	-3.084502e+01
4.323325e+02	-3.089419e+01
4.348297e+02	-3.093994e+01
4.373412e+02	-3.099504e+01
4.398673e+02	-3.104430e+01
4.424079e+02	-3.109038e+01
4.449633e+02	-3.114150e+01
4.475334e+02	-3.119263e+01
4.501183e+02	-3.124193e+01
4.527182e+02	-3.129319e+01
4.553330e+02	-3.133731e+01
4.579630e+02	-3.139195e+01
4.606082e+02	-3.144141e+01
4.632687e+02	-3.149212e+01
4.659445e+02	-3.154121e+01
4.686358e+02	-3.159625e+01
4.713426e+02	-3.164855e+01
4.740650e+02	-3.169386e+01
4.768032e+02	-3.174526e+01
4.795572e+02	-3.179965e+01
4.823271e+02	-3.183960e+01
4.851130e+02	-3.189433e+01
4.879150e+02	-3.194129e+01
4.907332e+02	-3.199018e+01
4.935676e+02	-3.204438e+01
4.964185e+02	-3.209856e+01
4.992858e+02	-3.214841e+01
5.021696e+02	-3.218963e+01
5.050701e+02	-3.224163e+01
5.079874e+02	-3.229655e+01
5.109215e+02	-3.234064e+01
5.138726e+02	-3.239710e+01
5.168407e+02	-3.244227e+01
5.198259e+02	-3.249735e+01
5.228284e+02	-3.254461e+01
5.258482e+02	-3.260097e+01
5.288855e+02	-3.264755e+01
5.319403e+02	-3.269695e+01
5.350128e+02	-3.274766e+01
5.381030e+02	-3.280261e+01
5.412111e+02	-3.284407e+01
5.443371e+02	-3.289869e+01
5.474812e+02	-3.294718e+01
5.506434e+02	-3.299690e+01
5.538239e+02	-3.304279e+01
5.570228e+02	-3.309852e+01
5.602401e+02	-3.313890e+01
5.634760e+02	-3.319023e+01
5.667306e+02	-3.325008e+01
5.700040e+02	-3.329871e+01
5.732964e+02	-3.334690e+01
5.766077e+02	-3.340144e+01
5.799382e+02	-3.344476e+01
5.832879e+02	-3.349804e+01
5.866569e+02	-3.355336e+01
5.900454e+02	-3.360384e+01
5.934535e+02	-3.365313e+01
5.968813e+02	-3.369784e+01
6.003288e+02	-3.375247e+01
6.037963e+02	-3.380457e+01
6.072838e+02	-3.384128e+01
6.107914e+02	-3.390532e+01
6.143194e+02	-3.395031e+01
6.178676e+02	-3.400050e+01
6.214364e+02	-3.405050e+01
6.250258e+02	-3.411229e+01
6.286359e+02	-3.415894e+01
6.322669e+02	-3.421556e+01
6.359189e+02	-3.425887e+01
6.395919e+02	-3.429967e+01
6.432862e+02	-3.435338e+01
6.470017e+02	-3.441160e+01
6.507388e+02	-3.445393e+01
6.544974e+02	-3.451426e+01
6.582778e+02	-3.455864e+01
6.620800e+02	-3.461541e+01
6.659041e+02	-3.466790e+01
6.697504e+02	-3.471328e+01
6.736188e+02	-3.475556e+01
6.775096e+02	-3.481209e+01
6.814229e+02	-3.485795e+01
6.853587e+02	-3.491325e+01
6.893173e+02	-3.496083e+01
6.932988e+02	-3.501375e+01
6.973033e+02	-3.505796e+01
7.013309e+02	-3.511753e+01
