Frequency(Hz)	Magnitude(dB)
1.000000e+01	-2.024238e+00
1.005776e+01	-2.043085e+00
1.011585e+01	-2.061994e+00
1.017428e+01	-2.081077e+00
1.023305e+01	-2.100168e+00
1.029215e+01	-2.119333e+00
1.035160e+01	-2.138792e+00
1.041139e+01	-2.158093e+00
1.047153e+01	-2.178105e+00
1.053201e+01	-2.197648e+00
1.059284e+01	-2.217513e+00
1.065403e+01	-2.237817e+00
1.071556e+01	-2.257867e+00
1.077746e+01	-2.278123e+00
1.083971e+01	-2.298590e+00
1.090232e+01	-2.319432e+00
1.096529e+01	-2.340148e+00
1.102862e+01	-2.360978e+00
1.109232e+01	-2.381974e+00
1.115639e+01	-2.403433e+00
1.122083e+01	-2.424719e+00
1.128564e+01	-2.446227e+00
1.135083e+01	-2.467588e+00
1.141639e+01	-2.489432e+00
1.148233e+01	-2.511391e+00
1.154865e+01	-2.533287e+00
1.161536e+01	-2.555750e+00
1.168245e+01	-2.577926e+00
1.174992e+01	-2.600172e+00
1.181779e+01	-2.623064e+00
1.188605e+01	-2.645684e+00
1.195470e+01	-2.668688e+00
1.202375e+01	-2.691794e+00
1.209320e+01	-2.714855e+00
1.216305e+01	-2.738043e+00
1.223330e+01	-2.761553e+00
1.230396e+01	-2.785424e+00
1.237503e+01	-2.809116e+00
1.244651e+01	-2.832827e+00
1.251840e+01	-2.856958e+00
1.259070e+01	-2.881313e+00
1.266343e+01	-2.905520e+00
1.273657e+01	-2.929906e+00
1.281014e+01	-2.954723e+00
1.288413e+01	-2.979282e+00
1.295855e+01	-3.004252e+00
1.303339e+01	-3.029337e+00
1.310867e+01	-3.054690e+00
1.318439e+01	-3.079638e+00
1.326054e+01	-3.105131e+00
1.333713e+01	-3.130890e+00
1.341417e+01	-3.156651e+00
1.349165e+01	-3.182674e+00
1.356958e+01	-3.208709e+00
1.364795e+01	-3.234961e+00
1.372678e+01	-3.261168e+00
1.380607e+01	-3.287781e+00
1.388581e+01	-3.314117e+00
1.396602e+01	-3.340868e+00
1.404668e+01	-3.368148e+00
1.412782e+01	-3.395130e+00
1.420942e+01	-3.422342e+00
1.429149e+01	-3.449576e+00
1.437404e+01	-3.477023e+00
1.445706e+01	-3.504780e+00
1.454057e+01	-3.532608e+00
1.462455e+01	-3.560342e+00
1.470902e+01	-3.588363e+00
1.479398e+01	-3.616654e+00
1.487943e+01	-3.645247e+00
1.496537e+01	-3.673763e+00
1.505181e+01	-3.702059e+00
1.513875e+01	-3.730831e+00
1.522619e+01	-3.759828e+00
1.531414e+01	-3.788866e+00
1.540259e+01	-3.817827e+00
1.549156e+01	-3.847449e+00
1.558103e+01	-3.876745e+00
1.567103e+01	-3.906174e+00
1.576155e+01	-3.936195e+00
1.585258e+01	-3.966247e+00
1.594415e+01	-3.996002e+00
1.603624e+01	-4.026488e+00
1.612886e+01	-4.056317e+00
1.622202e+01	-4.086999e+00
1.631572e+01	-4.117723e+00
1.640996e+01	-4.148174e+00
1.650474e+01	-4.179068e+00
1.660008e+01	-4.210253e+00
1.669596e+01	-4.241395e+00
1.679239e+01	-4.272741e+00
1.688938e+01	-4.303662e+00
1.698694e+01	-4.335427e+00
1.708505e+01	-4.367255e+00
1.718373e+01	-4.398830e+00
1.728299e+01	-4.430682e+00
1.738281e+01	-4.462804e+00
1.748322e+01	-4.495171e+00
1.758420e+01	-4.527447e+00
1.768576e+01	-4.559598e+00
1.778792e+01	-4.592224e+00
1.789066e+01	-4.625139e+00
1.799399e+01	-4.658119e+00
1.809793e+01	-4.690765e+00
1.820246e+01	-4.724020e+00
1.830760e+01	-4.757245e+00
1.841334e+01	-4.790412e+00
1.851969e+01	-4.824165e+00
1.862666e+01	-4.857474e+00
1.873425e+01	-4.891280e+00
1.884246e+01	-4.925388e+00
1.895129e+01	-4.959520e+00
1.906075e+01	-4.993432e+00
1.917085e+01	-5.027757e+00
1.928158e+01	-5.061743e+00
1.939295e+01	-5.096563e+00
1.950496e+01	-5.131060e+00
1.961762e+01	-5.165834e+00
1.973093e+01	-5.200620e+00
1.984490e+01	-5.235761e+00
1.995952e+01	-5.271140e+00
2.007480e+01	-5.306461e+00
2.019076e+01	-5.341453e+00
2.030738e+01	-5.377012e+00
2.042467e+01	-5.412395e+00
2.054264e+01	-5.448284e+00
2.066130e+01	-5.483704e+00
2.078064e+01	-5.520093e+00
2.090066e+01	-5.555784e+00
2.102139e+01	-5.592001e+00
2.114280e+01	-5.628217e+00
2.126492e+01	-5.664812e+00
2.138775e+01	-5.701089e+00
2.151128e+01	-5.737799e+00
2.163553e+01	-5.774495e+00
2.176050e+01	-5.811265e+00
2.188619e+01	-5.848270e+00
2.201260e+01	-5.885684e+00
2.213974e+01	-5.922780e+00
2.226762e+01	-5.960239e+00
2.239624e+01	-5.997182e+00
2.252560e+01	-6.035069e+00
2.265571e+01	-6.072602e+00
2.278656e+01	-6.109973e+00
2.291818e+01	-6.148128e+00
2.305055e+01	-6.185809e+00
2.318369e+01	-6.224253e+00
2.331760e+01	-6.261900e+00
2.345228e+01	-6.300283e+00
2.358774e+01	-6.338637e+00
2.372398e+01	-6.377144e+00
2.386101e+01	-6.415839e+00
2.399883e+01	-6.454332e+00
2.413745e+01	-6.492951e+00
2.427686e+01	-6.532064e+00
2.441709e+01	-6.571163e+00
2.455812e+01	-6.610440e+00
2.469997e+01	-6.649106e+00
2.484263e+01	-6.688579e+00
2.498612e+01	-6.728017e+00
2.513044e+01	-6.767349e+00
2.527559e+01	-6.806878e+00
2.542158e+01	-6.846536e+00
2.556842e+01	-6.886624e+00
2.571610e+01	-6.925806e+00
2.586463e+01	-6.965876e+00
2.601403e+01	-7.005896e+00
2.616428e+01	-7.046128e+00
2.631541e+01	-7.086294e+00
2.646740e+01	-7.126519e+00
2.662028e+01	-7.166977e+00
2.677404e+01	-7.207167e+00
2.692868e+01	-7.247695e+00
2.708422e+01	-7.288653e+00
2.724066e+01	-7.329234e+00
2.739800e+01	-7.370011e+00
2.755625e+01	-7.411012e+00
2.771541e+01	-7.452084e+00
2.787550e+01	-7.493013e+00
2.803650e+01	-7.534287e+00
2.819844e+01	-7.575296e+00
2.836131e+01	-7.616519e+00
2.852513e+01	-7.657955e+00
2.868989e+01	-7.699906e+00
2.885560e+01	-7.741145e+00
2.902227e+01	-7.782856e+00
2.918990e+01	-7.824652e+00
2.935850e+01	-7.866636e+00
2.952807e+01	-7.908195e+00
2.969863e+01	-7.950054e+00
2.987016e+01	-7.992589e+00
3.004269e+01	-8.034305e+00
3.021622e+01	-8.076378e+00
3.039075e+01	-8.118703e+00
3.056628e+01	-8.161183e+00
3.074283e+01	-8.203913e+00
3.092040e+01	-8.246282e+00
3.109900e+01	-8.288411e+00
3.127862e+01	-8.331431e+00
3.145929e+01	-8.373952e+00
3.164099e+01	-8.416800e+00
3.182375e+01	-8.459478e+00
3.200756e+01	-8.502631e+00
3.219244e+01	-8.545736e+00
3.237838e+01	-8.589047e+00
3.256540e+01	-8.631604e+00
3.275349e+01	-8.675015e+00
3.294268e+01	-8.718649e+00
3.313295e+01	-8.761921e+00
3.332433e+01	-8.805036e+00
3.351681e+01	-8.848416e+00
3.371040e+01	-8.891737e+00
3.390511e+01	-8.935611e+00
3.410094e+01	-8.979080e+00
3.429791e+01	-9.022823e+00
3.449601e+01	-9.066802e+00
3.469526e+01	-9.110811e+00
3.489566e+01	-9.154802e+00
3.509721e+01	-9.197883e+00
3.529993e+01	-9.242714e+00
3.550382e+01	-9.286836e+00
3.570889e+01	-9.331134e+00
3.591515e+01	-9.375165e+00
3.612259e+01	-9.419521e+00
3.633123e+01	-9.464090e+00
3.654108e+01	-9.507906e+00
3.675214e+01	-9.553110e+00
3.696442e+01	-9.597877e+00
3.717792e+01	-9.641256e+00
3.739266e+01	-9.686239e+00
3.760864e+01	-9.731447e+00
3.782587e+01	-9.775368e+00
3.804435e+01	-9.820558e+00
3.826409e+01	-9.865235e+00
3.848510e+01	-9.910033e+00
3.870739e+01	-9.955345e+00
3.893096e+01	-1.000007e+01
3.915583e+01	-1.004552e+01
3.938199e+01	-1.009107e+01
3.960946e+01	-1.013508e+01
3.983824e+01	-1.018099e+01
4.006834e+01	-1.022534e+01
4.029978e+01	-1.027133e+01
4.053255e+01	-1.031676e+01
4.076666e+01	-1.036202e+01
4.100213e+01	-1.040690e+01
4.123896e+01	-1.045260e+01
4.147715e+01	-1.049823e+01
4.171672e+01	-1.054389e+01
4.195767e+01	-1.058962e+01
4.220002e+01	-1.063631e+01
4.244377e+01	-1.068101e+01
4.268892e+01	-1.072729e+01
4.293549e+01	-1.077321e+01
4.318348e+01	-1.081863e+01
4.343291e+01	-1.086404e+01
4.368377e+01	-1.091038e+01
4.393609e+01	-1.095635e+01
4.418986e+01	-1.100270e+01
4.444510e+01	-1.104817e+01
4.470182e+01	-1.109489e+01
4.496001e+01	-1.114088e+01
4.521970e+01	-1.118739e+01
4.548089e+01	-1.123323e+01
4.574358e+01	-1.127986e+01
4.600779e+01	-1.132578e+01
4.627353e+01	-1.137227e+01
4.654081e+01	-1.141916e+01
4.680963e+01	-1.146518e+01
4.708000e+01	-1.151202e+01
4.735193e+01	-1.155739e+01
4.762543e+01	-1.160428e+01
4.790051e+01	-1.165088e+01
4.817719e+01	-1.169762e+01
4.845545e+01	-1.174438e+01
4.873533e+01	-1.179081e+01
4.901682e+01	-1.183788e+01
4.929994e+01	-1.188496e+01
4.958470e+01	-1.193198e+01
4.987110e+01	-1.197799e+01
5.015915e+01	-1.202487e+01
5.044887e+01	-1.207178e+01
5.074026e+01	-1.211938e+01
5.103333e+01	-1.216644e+01
5.132810e+01	-1.221350e+01
5.162457e+01	-1.226023e+01
5.192275e+01	-1.230645e+01
5.222265e+01	-1.235413e+01
5.252429e+01	-1.240146e+01
5.282767e+01	-1.244900e+01
5.313280e+01	-1.249636e+01
5.343969e+01	-1.254317e+01
5.374836e+01	-1.259029e+01
5.405880e+01	-1.263777e+01
5.437105e+01	-1.268482e+01
5.468509e+01	-1.273217e+01
5.500095e+01	-1.277968e+01
5.531863e+01	-1.282720e+01
5.563815e+01	-1.287454e+01
5.595951e+01	-1.292211e+01
5.628273e+01	-1.296954e+01
5.660782e+01	-1.301693e+01
5.693479e+01	-1.306465e+01
5.726364e+01	-1.311209e+01
5.759439e+01	-1.316026e+01
5.792705e+01	-1.320676e+01
5.826164e+01	-1.325436e+01
5.859815e+01	-1.330247e+01
5.893662e+01	-1.335033e+01
5.927703e+01	-1.339827e+01
5.961941e+01	-1.344578e+01
5.996377e+01	-1.349429e+01
6.031012e+01	-1.354148e+01
6.065847e+01	-1.358874e+01
6.100883e+01	-1.363675e+01
6.136121e+01	-1.368453e+01
6.171563e+01	-1.373292e+01
6.207210e+01	-1.377978e+01
6.243063e+01	-1.382881e+01
6.279122e+01	-1.387679e+01
6.315390e+01	-1.392441e+01
6.351868e+01	-1.397317e+01
6.388556e+01	-1.402034e+01
6.425456e+01	-1.406824e+01
6.462569e+01	-1.411608e+01
6.499897e+01	-1.416534e+01
6.537440e+01	-1.421341e+01
6.575200e+01	-1.426151e+01
6.613178e+01	-1.430928e+01
6.651375e+01	-1.435669e+01
6.689793e+01	-1.440591e+01
6.728433e+01	-1.445350e+01
6.767297e+01	-1.450207e+01
6.806384e+01	-1.455083e+01
6.845698e+01	-1.459846e+01
6.885238e+01	-1.464721e+01
6.925007e+01	-1.469568e+01
6.965005e+01	-1.474409e+01
7.005235e+01	-1.479190e+01
7.045697e+01	-1.484061e+01
7.086393e+01	-1.488862e+01
7.127323e+01	-1.493779e+01
7.168490e+01	-1.498569e+01
7.209895e+01	-1.503353e+01
7.251539e+01	-1.508271e+01
7.293424e+01	-1.513120e+01
7.335551e+01	-1.517864e+01
7.377920e+01	-1.522840e+01
7.420535e+01	-1.527582e+01
7.463396e+01	-1.532487e+01
7.506504e+01	-1.537420e+01
7.549861e+01	-1.542267e+01
7.593469e+01	-1.547202e+01
7.637328e+01	-1.551971e+01
7.681441e+01	-1.556805e+01
7.725809e+01	-1.561642e+01
7.770433e+01	-1.566498e+01
7.815315e+01	-1.571296e+01
7.860456e+01	-1.576303e+01
7.905857e+01	-1.581129e+01
7.951521e+01	-1.586034e+01
7.997449e+01	-1.590884e+01
8.043642e+01	-1.595820e+01
8.090102e+01	-1.600628e+01
8.136830e+01	-1.605487e+01
8.183828e+01	-1.610441e+01
8.231097e+01	-1.615217e+01
8.278640e+01	-1.620250e+01
8.326457e+01	-1.625125e+01
8.374550e+01	-1.629862e+01
8.422921e+01	-1.634782e+01
8.471572e+01	-1.639616e+01
8.520503e+01	-1.644705e+01
8.569717e+01	-1.649526e+01
8.619215e+01	-1.654365e+01
8.669000e+01	-1.659330e+01
8.719071e+01	-1.664013e+01
8.769432e+01	-1.669089e+01
8.820084e+01	-1.673987e+01
8.871029e+01	-1.678910e+01
8.922267e+01	-1.683818e+01
8.973802e+01	-1.688661e+01
9.025634e+01	-1.693604e+01
9.077766e+01	-1.698416e+01
9.130199e+01	-1.703342e+01
9.182935e+01	-1.708211e+01
9.235975e+01	-1.713251e+01
9.289321e+01	-1.718041e+01
9.342976e+01	-1.723035e+01
9.396941e+01	-1.727917e+01
9.451217e+01	-1.732792e+01
9.505807e+01	-1.737851e+01
9.560712e+01	-1.742544e+01
9.615934e+01	-1.747402e+01
9.671476e+01	-1.752557e+01
9.727338e+01	-1.757471e+01
9.783522e+01	-1.762292e+01
9.840032e+01	-1.767187e+01
9.896867e+01	-1.772143e+01
9.954031e+01	-1.776986e+01
1.001153e+02	-1.781948e+01
1.006935e+02	-1.786772e+01
1.012751e+02	-1.791817e+01
1.018601e+02	-1.796738e+01
1.024484e+02	-1.801715e+01
1.030402e+02	-1.806619e+01
1.036353e+02	-1.811548e+01
1.042339e+02	-1.816398e+01
1.048360e+02	-1.821310e+01
1.054415e+02	-1.826195e+01
1.060505e+02	-1.831179e+01
1.066631e+02	-1.836112e+01
1.072791e+02	-1.840984e+01
1.078988e+02	-1.846110e+01
1.085220e+02	-1.850858e+01
1.091488e+02	-1.855811e+01
1.097793e+02	-1.860901e+01
1.104133e+02	-1.865771e+01
1.110511e+02	-1.870594e+01
1.116925e+02	-1.875509e+01
1.123376e+02	-1.880494e+01
1.129865e+02	-1.885503e+01
1.136391e+02	-1.890462e+01
1.142955e+02	-1.895493e+01
1.149556e+02	-1.900296e+01
1.156196e+02	-1.905263e+01
1.162874e+02	-1.910139e+01
1.169591e+02	-1.915134e+01
1.176347e+02	-1.920163e+01
1.183141e+02	-1.925012e+01
1.189975e+02	-1.929867e+01
1.196848e+02	-1.934902e+01
1.203761e+02	-1.939725e+01
1.210714e+02	-1.944867e+01
1.217707e+02	-1.949753e+01
1.224740e+02	-1.954716e+01
1.231814e+02	-1.959485e+01
1.238929e+02	-1.964662e+01
1.246085e+02	-1.969486e+01
1.253283e+02	-1.974418e+01
1.260522e+02	-1.979654e+01
1.267802e+02	-1.984472e+01
1.275125e+02	-1.989436e+01
1.282490e+02	-1.994323e+01
1.289898e+02	-1.999363e+01
1.297348e+02	-2.004182e+01
1.304842e+02	-2.009128e+01
1.312378e+02	-2.014160e+01
1.319959e+02	-2.019017e+01
1.327583e+02	-2.024171e+01
1.335251e+02	-2.029013e+01
1.342963e+02	-2.034154e+01
1.350720e+02	-2.038984e+01
1.358522e+02	-2.043872e+01
1.366368e+02	-2.048777e+01
1.374260e+02	-2.053774e+01
1.382198e+02	-2.058721e+01
1.390182e+02	-2.063675e+01
1.398211e+02	-2.068656e+01
1.406287e+02	-2.073659e+01
1.414410e+02	-2.078452e+01
1.422579e+02	-2.083571e+01
1.430796e+02	-2.088310e+01
1.439060e+02	-2.093607e+01
1.447372e+02	-2.098403e+01
1.455732e+02	-2.103345e+01
1.464141e+02	-2.108294e+01
1.472597e+02	-2.113126e+01
1.481103e+02	-2.118285e+01
1.489658e+02	-2.123055e+01
1.498262e+02	-2.128332e+01
1.506916e+02	-2.133201e+01
1.515620e+02	-2.138299e+01
1.524374e+02	-2.143070e+01
1.533179e+02	-2.148185e+01
1.542034e+02	-2.152832e+01
1.550941e+02	-2.158115e+01
1.559899e+02	-2.163023e+01
1.568909e+02	-2.167892e+01
1.577971e+02	-2.172993e+01
1.587085e+02	-2.178006e+01
1.596252e+02	-2.182932e+01
1.605472e+02	-2.187868e+01
1.614745e+02	-2.192884e+01
1.624072e+02	-2.197767e+01
1.633453e+02	-2.202640e+01
1.642887e+02	-2.207774e+01
1.652377e+02	-2.212616e+01
1.661921e+02	-2.217524e+01
1.671520e+02	-2.222707e+01
1.681175e+02	-2.227798e+01
1.690885e+02	-2.232607e+01
1.700651e+02	-2.237711e+01
1.710474e+02	-2.242590e+01
1.720354e+02	-2.247712e+01
1.730291e+02	-2.252591e+01
1.740285e+02	-2.257597e+01
1.750337e+02	-2.262584e+01
1.760446e+02	-2.267325e+01
1.770615e+02	-2.272678e+01
1.780842e+02	-2.277354e+01
1.791128e+02	-2.282503e+01
1.801473e+02	-2.287467e+01
1.811878e+02	-2.292499e+01
1.822344e+02	-2.297360e+01
1.832870e+02	-2.302171e+01
1.843456e+02	-2.307385e+01
1.854104e+02	-2.312216e+01
1.864813e+02	-2.317198e+01
1.875584e+02	-2.322268e+01
1.886418e+02	-2.327139e+01
1.897313e+02	-2.332013e+01
1.908272e+02	-2.337160e+01
1.919294e+02	-2.342158e+01
1.930380e+02	-2.347241e+01
1.941530e+02	-2.351940e+01
1.952744e+02	-2.356766e+01
1.964023e+02	-2.362257e+01
1.975367e+02	-2.367095e+01
1.986777e+02	-2.372117e+01
1.998252e+02	-2.376973e+01
2.009794e+02	-2.382053e+01
2.021403e+02	-2.387103e+01
2.033078e+02	-2.392042e+01
2.044821e+02	-2.396921e+01
2.056632e+02	-2.402099e+01
2.068511e+02	-2.407001e+01
2.080459e+02	-2.412143e+01
2.092475e+02	-2.417025e+01
2.104561e+02	-2.421925e+01
2.116717e+02	-2.426687e+01
2.128943e+02	-2.431630e+01
2.141240e+02	-2.437212e+01
2.153608e+02	-2.441765e+01
2.166047e+02	-2.446947e+01
2.178558e+02	-2.451880e+01
2.191141e+02	-2.456592e+01
2.203797e+02	-2.461755e+01
2.216526e+02	-2.466841e+01
2.229329e+02	-2.471668e+01
2.242205e+02	-2.476645e+01
2.255156e+02	-2.481662e+01
2.268182e+02	-2.486705e+01
2.281283e+02	-2.492224e+01
2.294459e+02	-2.496757e+01
2.307712e+02	-2.501815e+01
2.321041e+02	-2.506503e+01
2.334447e+02	-2.511627e+01
2.347931e+02	-2.516582e+01
2.361493e+02	-2.521742e+01
2.375133e+02	-2.526576e+01
2.388851e+02	-2.531796e+01
2.402649e+02	-2.536921e+01
2.416527e+02	-2.541537e+01
2.430484e+02	-2.546796e+01
2.444523e+02	-2.551821e+01
2.458642e+02	-2.556837e+01
2.472843e+02	-2.561916e+01
2.487126e+02	-2.566937e+01
2.501492e+02	-2.571496e+01
2.515940e+02	-2.576365e+01
2.530472e+02	-2.581508e+01
2.545088e+02	-2.586497e+01
2.559789e+02	-2.591772e+01
2.574574e+02	-2.596665e+01
2.589444e+02	-2.601608e+01
2.604401e+02	-2.606531e+01
2.619444e+02	-2.611599e+01
2.634574e+02	-2.616475e+01
2.649791e+02	-2.621295e+01
2.665096e+02	-2.626972e+01
2.680489e+02	-2.632105e+01
2.695972e+02	-2.636667e+01
2.711544e+02	-2.641682e+01
2.727205e+02	-2.646634e+01
2.742958e+02	-2.651170e+01
2.758801e+02	-2.656363e+01
2.774736e+02	-2.661534e+01
2.790762e+02	-2.666563e+01
2.806882e+02	-2.671465e+01
2.823094e+02	-2.676664e+01
2.839400e+02	-2.681572e+01
2.855800e+02	-2.686837e+01
2.872295e+02	-2.691333e+01
2.888886e+02	-2.696538e+01
2.905572e+02	-2.701444e+01
2.922354e+02	-2.706397e+01
2.939234e+02	-2.711480e+01
2.956211e+02	-2.716640e+01
2.973286e+02	-2.721549e+01
2.990459e+02	-2.726167e+01
3.007732e+02	-2.731182e+01
3.025104e+02	-2.736306e+01
3.042577e+02	-2.741717e+01
3.060151e+02	-2.746111e+01
3.077826e+02	-2.751438e+01
3.095604e+02	-2.756549e+01
3.113484e+02	-2.761243e+01
3.131467e+02	-2.767092e+01
3.149554e+02	-2.771721e+01
3.167746e+02	-2.776186e+01
3.186043e+02	-2.781338e+01
3.204445e+02	-2.786234e+01
3.222954e+02	-2.791585e+01
3.241570e+02	-2.796290e+01
3.260293e+02	-2.801676e+01
3.279124e+02	-2.806271e+01
3.298064e+02	-2.811369e+01
3.317114e+02	-2.816802e+01
3.336273e+02	-2.821528e+01
3.355544e+02	-2.826447e+01
3.374925e+02	-2.831349e+01
3.394418e+02	-2.836207e+01
3.414024e+02	-2.841802e+01
3.433744e+02	-2.846491e+01
3.453577e+02	-2.851206e+01
3.473525e+02	-2.856700e+01
3.493588e+02	-2.861214e+01
3.513766e+02	-2.866399e+01
3.534062e+02	-2.871532e+01
3.554474e+02	-2.876937e+01
3.575005e+02	-2.881574e+01
3.595654e+02	-2.886710e+01
3.616422e+02	-2.891645e+01
3.637311e+02	-2.896857e+01
3.658320e+02	-2.901799e+01
3.679450e+02	-2.906162e+01
3.700702e+02	-2.911267e+01
3.722077e+02	-2.916606e+01
3.743576e+02	-2.921753e+01
3.765199e+02	-2.926853e+01
3.786946e+02	-2.931603e+01
3.808820e+02	-2.936692e+01
3.830819e+02	-2.941507e+01
3.852946e+02	-2.947095e+01
3.875200e+02	-2.952248e+01
3.897583e+02	-2.956873e+01
3.920096e+02	-2.961305e+01
3.942738e+02	-2.967056e+01
3.965511e+02	-2.971780e+01
3.988416e+02	-2.976697e+01
4.011452e+02	-2.981822e+01
4.034622e+02	-2.987111e+01
4.057926e+02	-2.991687e+01
4.081365e+02	-2.996288e+01
4.104938e+02	-3.001574e+01
4.128648e+02	-3.006688e+01
4.152495e+02	-3.011345e+01
4.176480e+02	-3.016942e+01
4.200603e+02	-3.021456e+01
4.224866e+02	-3.026745e+01
4.249268e+02	-3.031954e+01
4.273812e+02	-3.036651e+01
4.298497e+02	-3.041484e+01
4.323325e+02	-3.046768e+01
4.348297e+02	-3.050994e+01
4.373412e+02	-3.056449e+01
4.398673e+02	-3.061669e+01
4.424079e+02	-3.067404e+01
4.449633e+02	-3.071968e+01
4.475334e+02	-3.077299e+01
4.501183e+02	-3.081576e+01
4.527182e+02	-3.086604e+01
4.553330e+02	-3.092052e+01
4.579630e+02	-3.096975e+01
4.606082e+02	-3.102257e+01
4.632687e+02	-3.107260e+01
4.659445e+02	-3.111920e+01
4.686358e+02	-3.117334e+01
4.713426e+02	-3.122145e+01
4.740650e+02	-3.126842e+01
4.768032e+02	-3.132473e+01
4.795572e+02	-3.137199e+01
4.823271e+02	-3.142573e+01
4.851130e+02	-3.147322e+01
4.879150e+02	-3.152202e+01
4.907332e+02	-3.157991e+01
4.935676e+02	-3.161709e+01
4.964185e+02	-3.166765e+01
4.992858e+02	-3.172240e+01
5.021696e+02	-3.177214e+01
5.050701e+02	-3.182179e+01
5.079874e+02	-3.187318e+01
5.109215e+02	-3.191686e+01
5.138726e+02	-3.197126e+01
5.168407e+02	-3.202062e+01
5.198259e+02	-3.206809e+01
5.228284e+02	-3.212794e+01
5.258482e+02	-3.217623e+01
5.288855e+02	-3.221984e+01
5.319403e+02	-3.227632e+01
5.350128e+02	-3.232198e+01
5.381030e+02	-3.237005e+01
5.412111e+02	-3.242019e+01
5.443371e+02	-3.247754e+01
5.474812e+02	-3.253061e+01
5.506434e+02	-3.257859e+01
5.538239e+02	-3.262888e+01
5.570228e+02	-3.267981e+01
5.602401e+02	-3.273083e+01
5.634760e+02	-3.276944e+01
5.667306e+02	-3.282163e+01
5.700040e+02	-3.287130e+01
5.732964e+02	-3.292651e+01
5.766077e+02	-3.297770e+01
5.799382e+02	-3.302326e+01
5.832879e+02	-3.308290e+01
5.866569e+02	-3.312396e+01
5.900454e+02	-3.317713e+01
5.934535e+02	-3.323209e+01
5.968813e+02	-3.328177e+01
6.003288e+02	-3.333169e+01
6.037963e+02	-3.338779e+01
6.072838e+02	-3.342838e+01
6.107914e+02	-3.348336e+01
6.143194e+02	-3.352559e+01
6.178676e+02	-3.356999e+01
6.214364e+02	-3.363236e+01
6.250258e+02	-3.367539e+01
6.286359e+02	-3.372689e+01
6.322669e+02	-3.377905e+01
6.359189e+02	-3.382617e+01
6.395919e+02	-3.388643e+01
6.432862e+02	-3.393465e+01
6.470017e+02	-3.397500e+01
6.507388e+02	-3.403715e+01
6.544974e+02	-3.408710e+01
6.582778e+02	-3.412522e+01
6.620800e+02	-3.417922e+01
6.659041e+02	-3.422592e+01
6.697504e+02	-3.428259e+01
6.736188e+02	-3.433151e+01
6.775096e+02	-3.437777e+01
6.814229e+02	-3.444648e+01
6.853587e+02	-3.447931e+01
6.893173e+02	-3.454510e+01
6.932988e+02	-3.458379e+01
6.973033e+02	-3.463712e+01
7.013309e+02	-3.467671e+01
