Frequency(Hz)	Magnitude(dB)
1.000000e+01	-1.870765e-05
1.005776e+01	-1.892438e-05
1.011585e+01	-1.914363e-05
1.017428e+01	-1.936541e-05
1.023305e+01	-1.958976e-05
1.029215e+01	-1.981672e-05
1.035160e+01	-2.004630e-05
1.041139e+01	-2.027854e-05
1.047153e+01	-2.051347e-05
1.053201e+01	-2.075112e-05
1.059284e+01	-2.099153e-05
1.065403e+01	-2.123472e-05
1.071556e+01	-2.148073e-05
1.077746e+01	-2.172959e-05
1.083971e+01	-2.198134e-05
1.090232e+01	-2.223600e-05
1.096529e+01	-2.249361e-05
1.102862e+01	-2.275420e-05
1.109232e+01	-2.301781e-05
1.115639e+01	-2.328448e-05
1.122083e+01	-2.355424e-05
1.128564e+01	-2.382712e-05
1.135083e+01	-2.410316e-05
1.141639e+01	-2.438240e-05
1.148233e+01	-2.466488e-05
1.154865e+01	-2.495063e-05
1.161536e+01	-2.523969e-05
1.168245e+01	-2.553209e-05
1.174992e+01	-2.582789e-05
1.181779e+01	-2.612711e-05
1.188605e+01	-2.642980e-05
1.195470e+01	-2.673600e-05
1.202375e+01	-2.704574e-05
1.209320e+01	-2.735907e-05
1.216305e+01	-2.767603e-05
1.223330e+01	-2.799667e-05
1.230396e+01	-2.832101e-05
1.237503e+01	-2.864912e-05
1.244651e+01	-2.898103e-05
1.251840e+01	-2.931678e-05
1.259070e+01	-2.965642e-05
1.266343e+01	-3.000000e-05
1.273657e+01	-3.034755e-05
1.281014e+01	-3.069914e-05
1.288413e+01	-3.105480e-05
1.295855e+01	-3.141457e-05
1.303339e+01	-3.177852e-05
1.310867e+01	-3.214668e-05
1.318439e+01	-3.251911e-05
1.326054e+01	-3.289585e-05
1.333713e+01	-3.327695e-05
1.341417e+01	-3.366248e-05
1.349165e+01	-3.405246e-05
1.356958e+01	-3.444697e-05
1.364795e+01	-3.484604e-05
1.372678e+01	-3.524974e-05
1.380607e+01	-3.565812e-05
1.388581e+01	-3.607123e-05
1.396602e+01	-3.648912e-05
1.404668e+01	-3.691186e-05
1.412782e+01	-3.733949e-05
1.420942e+01	-3.777208e-05
1.429149e+01	-3.820967e-05
1.437404e+01	-3.865234e-05
1.445706e+01	-3.910014e-05
1.454057e+01	-3.955312e-05
1.462455e+01	-4.001135e-05
1.470902e+01	-4.047489e-05
1.479398e+01	-4.094381e-05
1.487943e+01	-4.141815e-05
1.496537e+01	-4.189799e-05
1.505181e+01	-4.238338e-05
1.513875e+01	-4.287441e-05
1.522619e+01	-4.337111e-05
1.531414e+01	-4.387358e-05
1.540259e+01	-4.438186e-05
1.549156e+01	-4.489604e-05
1.558103e+01	-4.541617e-05
1.567103e+01	-4.594232e-05
1.576155e+01	-4.647458e-05
1.585258e+01	-4.701299e-05
1.594415e+01	-4.755765e-05
1.603624e+01	-4.810862e-05
1.612886e+01	-4.866596e-05
1.622202e+01	-4.922977e-05
1.631572e+01	-4.980011e-05
1.640996e+01	-5.037705e-05
1.650474e+01	-5.096068e-05
1.660008e+01	-5.155107e-05
1.669596e+01	-5.214830e-05
1.679239e+01	-5.275245e-05
1.688938e+01	-5.336360e-05
1.698694e+01	-5.398183e-05
1.708505e+01	-5.460722e-05
1.718373e+01	-5.523985e-05
1.728299e+01	-5.587982e-05
1.738281e+01	-5.652720e-05
1.748322e+01	-5.718208e-05
1.758420e+01	-5.784454e-05
1.768576e+01	-5.851468e-05
1.778792e+01	-5.919259e-05
1.789066e+01	-5.987835e-05
1.799399e+01	-6.057205e-05
1.809793e+01	-6.127379e-05
1.820246e+01	-6.198366e-05
1.830760e+01	-6.270175e-05
1.841334e+01	-6.342816e-05
1.851969e+01	-6.416299e-05
1.862666e+01	-6.490633e-05
1.873425e+01	-6.565828e-05
1.884246e+01	-6.641895e-05
1.895129e+01	-6.718842e-05
1.906075e+01	-6.796681e-05
1.917085e+01	-6.875422e-05
1.928158e+01	-6.955075e-05
1.939295e+01	-7.035651e-05
1.950496e+01	-7.117160e-05
1.961762e+01	-7.199614e-05
1.973093e+01	-7.283023e-05
1.984490e+01	-7.367398e-05
1.995952e+01	-7.452750e-05
2.007480e+01	-7.539092e-05
2.019076e+01	-7.626434e-05
2.030738e+01	-7.714787e-05
2.042467e+01	-7.804164e-05
2.054264e+01	-7.894577e-05
2.066130e+01	-7.986037e-05
2.078064e+01	-8.078557e-05
2.090066e+01	-8.172148e-05
2.102139e+01	-8.266824e-05
2.114280e+01	-8.362596e-05
2.126492e+01	-8.459478e-05
2.138775e+01	-8.557483e-05
2.151128e+01	-8.656623e-05
2.163553e+01	-8.756911e-05
2.176050e+01	-8.858361e-05
2.188619e+01	-8.960987e-05
2.201260e+01	-9.064801e-05
2.213974e+01	-9.169818e-05
2.226762e+01	-9.276052e-05
2.239624e+01	-9.383517e-05
2.252560e+01	-9.492226e-05
2.265571e+01	-9.602195e-05
2.278656e+01	-9.713438e-05
2.291818e+01	-9.825970e-05
2.305055e+01	-9.939805e-05
2.318369e+01	-1.005496e-04
2.331760e+01	-1.017145e-04
2.345228e+01	-1.028928e-04
2.358774e+01	-1.040849e-04
2.372398e+01	-1.052907e-04
2.386101e+01	-1.065105e-04
2.399883e+01	-1.077445e-04
2.413745e+01	-1.089927e-04
2.427686e+01	-1.102554e-04
2.441709e+01	-1.115327e-04
2.455812e+01	-1.128248e-04
2.469997e+01	-1.141319e-04
2.484263e+01	-1.154542e-04
2.498612e+01	-1.167917e-04
2.513044e+01	-1.181448e-04
2.527559e+01	-1.195135e-04
2.542158e+01	-1.208981e-04
2.556842e+01	-1.222987e-04
2.571610e+01	-1.237155e-04
2.586463e+01	-1.251488e-04
2.601403e+01	-1.265986e-04
2.616428e+01	-1.280653e-04
2.631541e+01	-1.295489e-04
2.646740e+01	-1.310498e-04
2.662028e+01	-1.325680e-04
2.677404e+01	-1.341038e-04
2.692868e+01	-1.356574e-04
2.708422e+01	-1.372290e-04
2.724066e+01	-1.388188e-04
2.739800e+01	-1.404271e-04
2.755625e+01	-1.420539e-04
2.771541e+01	-1.436996e-04
2.787550e+01	-1.453644e-04
2.803650e+01	-1.470485e-04
2.819844e+01	-1.487520e-04
2.836131e+01	-1.504753e-04
2.852513e+01	-1.522186e-04
2.868989e+01	-1.539821e-04
2.885560e+01	-1.557660e-04
2.902227e+01	-1.575705e-04
2.918990e+01	-1.593960e-04
2.935850e+01	-1.612426e-04
2.952807e+01	-1.631106e-04
2.969863e+01	-1.650003e-04
2.987016e+01	-1.669118e-04
3.004269e+01	-1.688455e-04
3.021622e+01	-1.708016e-04
3.039075e+01	-1.727803e-04
3.056628e+01	-1.747820e-04
3.074283e+01	-1.768068e-04
3.092040e+01	-1.788551e-04
3.109900e+01	-1.809272e-04
3.127862e+01	-1.830232e-04
3.145929e+01	-1.851436e-04
3.164099e+01	-1.872885e-04
3.182375e+01	-1.894582e-04
3.200756e+01	-1.916531e-04
3.219244e+01	-1.938734e-04
3.237838e+01	-1.961194e-04
3.256540e+01	-1.983915e-04
3.275349e+01	-2.006898e-04
3.294268e+01	-2.030148e-04
3.313295e+01	-2.053667e-04
3.332433e+01	-2.077459e-04
3.351681e+01	-2.101526e-04
3.371040e+01	-2.125873e-04
3.390511e+01	-2.150501e-04
3.410094e+01	-2.175414e-04
3.429791e+01	-2.200617e-04
3.449601e+01	-2.226111e-04
3.469526e+01	-2.251900e-04
3.489566e+01	-2.277988e-04
3.509721e+01	-2.304379e-04
3.529993e+01	-2.331075e-04
3.550382e+01	-2.358080e-04
3.570889e+01	-2.385399e-04
3.591515e+01	-2.413033e-04
3.612259e+01	-2.440988e-04
3.633123e+01	-2.469267e-04
3.654108e+01	-2.497873e-04
3.675214e+01	-2.526811e-04
3.696442e+01	-2.556084e-04
3.717792e+01	-2.585696e-04
3.739266e+01	-2.615651e-04
3.760864e+01	-2.645953e-04
3.782587e+01	-2.676606e-04
3.804435e+01	-2.707615e-04
3.826409e+01	-2.738982e-04
3.848510e+01	-2.770713e-04
3.870739e+01	-2.802811e-04
3.893096e+01	-2.835282e-04
3.915583e+01	-2.868128e-04
3.938199e+01	-2.901355e-04
3.960946e+01	-2.934967e-04
3.983824e+01	-2.968968e-04
4.006834e+01	-3.003363e-04
4.029978e+01	-3.038157e-04
4.053255e+01	-3.073354e-04
4.076666e+01	-3.108958e-04
4.100213e+01	-3.144975e-04
4.123896e+01	-3.181409e-04
4.147715e+01	-3.218265e-04
4.171672e+01	-3.255548e-04
4.195767e+01	-3.293263e-04
4.220002e+01	-3.331415e-04
4.244377e+01	-3.370009e-04
4.268892e+01	-3.409050e-04
4.293549e+01	-3.448543e-04
4.318348e+01	-3.488494e-04
4.343291e+01	-3.528907e-04
4.368377e+01	-3.569789e-04
4.393609e+01	-3.611144e-04
4.418986e+01	-3.652979e-04
4.444510e+01	-3.695298e-04
4.470182e+01	-3.738107e-04
4.496001e+01	-3.781412e-04
4.521970e+01	-3.825219e-04
4.548089e+01	-3.869533e-04
4.574358e+01	-3.914361e-04
4.600779e+01	-3.959707e-04
4.627353e+01	-4.005580e-04
4.654081e+01	-4.051983e-04
4.680963e+01	-4.098924e-04
4.708000e+01	-4.146409e-04
4.735193e+01	-4.194444e-04
4.762543e+01	-4.243036e-04
4.790051e+01	-4.292190e-04
4.817719e+01	-4.341914e-04
4.845545e+01	-4.392213e-04
4.873533e+01	-4.443096e-04
4.901682e+01	-4.494568e-04
4.929994e+01	-4.546636e-04
4.958470e+01	-4.599307e-04
4.987110e+01	-4.652588e-04
5.015915e+01	-4.706487e-04
5.044887e+01	-4.761010e-04
5.074026e+01	-4.816164e-04
5.103333e+01	-4.871958e-04
5.132810e+01	-4.928398e-04
5.162457e+01	-4.985491e-04
5.192275e+01	-5.043246e-04
5.222265e+01	-5.101670e-04
5.252429e+01	-5.160771e-04
5.282767e+01	-5.220556e-04
5.313280e+01	-5.281034e-04
5.343969e+01	-5.342213e-04
5.374836e+01	-5.404100e-04
5.405880e+01	-5.466704e-04
5.437105e+01	-5.530033e-04
5.468509e+01	-5.594096e-04
5.500095e+01	-5.658901e-04
5.531863e+01	-5.724457e-04
5.563815e+01	-5.790771e-04
5.595951e+01	-5.857855e-04
5.628273e+01	-5.925715e-04
5.660782e+01	-5.994361e-04
5.693479e+01	-6.063803e-04
5.726364e+01	-6.134049e-04
5.759439e+01	-6.205108e-04
5.792705e+01	-6.276991e-04
5.826164e+01	-6.349706e-04
5.859815e+01	-6.423264e-04
5.893662e+01	-6.497674e-04
5.927703e+01	-6.572945e-04
5.961941e+01	-6.649089e-04
5.996377e+01	-6.726114e-04
6.031012e+01	-6.804032e-04
6.065847e+01	-6.882852e-04
6.100883e+01	-6.962586e-04
6.136121e+01	-7.043243e-04
6.171563e+01	-7.124834e-04
6.207210e+01	-7.207370e-04
6.243063e+01	-7.290863e-04
6.279122e+01	-7.375322e-04
6.315390e+01	-7.460760e-04
6.351868e+01	-7.547187e-04
6.388556e+01	-7.634616e-04
6.425456e+01	-7.723057e-04
6.462569e+01	-7.812523e-04
6.499897e+01	-7.903025e-04
6.537440e+01	-7.994575e-04
6.575200e+01	-8.087186e-04
6.613178e+01	-8.180869e-04
6.651375e+01	-8.275638e-04
6.689793e+01	-8.371504e-04
6.728433e+01	-8.468481e-04
6.767297e+01	-8.566581e-04
6.806384e+01	-8.665817e-04
6.845698e+01	-8.766203e-04
6.885238e+01	-8.867751e-04
6.925007e+01	-8.970476e-04
6.965005e+01	-9.074390e-04
7.005235e+01	-9.179509e-04
7.045697e+01	-9.285844e-04
7.086393e+01	-9.393412e-04
7.127323e+01	-9.502225e-04
7.168490e+01	-9.612299e-04
7.209895e+01	-9.723647e-04
7.251539e+01	-9.836286e-04
7.293424e+01	-9.950229e-04
7.335551e+01	-1.006549e-03
7.377920e+01	-1.018209e-03
7.420535e+01	-1.030004e-03
7.463396e+01	-1.041935e-03
7.506504e+01	-1.054005e-03
7.549861e+01	-1.066214e-03
7.593469e+01	-1.078565e-03
7.637328e+01	-1.091059e-03
7.681441e+01	-1.103698e-03
7.725809e+01	-1.116483e-03
7.770433e+01	-1.129416e-03
7.815315e+01	-1.142499e-03
7.860456e+01	-1.155733e-03
7.905857e+01	-1.169121e-03
7.951521e+01	-1.182663e-03
7.997449e+01	-1.196363e-03
8.043642e+01	-1.210221e-03
8.090102e+01	-1.224240e-03
8.136830e+01	-1.238421e-03
8.183828e+01	-1.252767e-03
8.231097e+01	-1.267278e-03
8.278640e+01	-1.281958e-03
8.326457e+01	-1.296807e-03
8.374550e+01	-1.311829e-03
8.422921e+01	-1.327024e-03
8.471572e+01	-1.342396e-03
8.520503e+01	-1.357946e-03
8.569717e+01	-1.373675e-03
8.619215e+01	-1.389587e-03
8.669000e+01	-1.405683e-03
8.719071e+01	-1.421966e-03
8.769432e+01	-1.438437e-03
8.820084e+01	-1.455099e-03
8.871029e+01	-1.471954e-03
8.922267e+01	-1.489004e-03
8.973802e+01	-1.506251e-03
9.025634e+01	-1.523698e-03
9.077766e+01	-1.541348e-03
9.130199e+01	-1.559202e-03
9.182935e+01	-1.577262e-03
9.235975e+01	-1.595532e-03
9.289321e+01	-1.614013e-03
9.342976e+01	-1.632708e-03
9.396941e+01	-1.651620e-03
9.451217e+01	-1.670751e-03
9.505807e+01	-1.690103e-03
9.560712e+01	-1.709679e-03
9.615934e+01	-1.729483e-03
9.671476e+01	-1.749515e-03
9.727338e+01	-1.769780e-03
9.783522e+01	-1.790279e-03
9.840032e+01	-1.811015e-03
9.896867e+01	-1.831992e-03
9.954031e+01	-1.853211e-03
1.001153e+02	-1.874677e-03
1.006935e+02	-1.896391e-03
1.012751e+02	-1.918356e-03
1.018601e+02	-1.940576e-03
1.024484e+02	-1.963053e-03
1.030402e+02	-1.985790e-03
1.036353e+02	-2.008791e-03
1.042339e+02	-2.032058e-03
1.048360e+02	-2.055594e-03
1.054415e+02	-2.079403e-03
1.060505e+02	-2.103487e-03
1.066631e+02	-2.127851e-03
1.072791e+02	-2.152496e-03
1.078988e+02	-2.177427e-03
1.085220e+02	-2.202647e-03
1.091488e+02	-2.228159e-03
1.097793e+02	-2.253966e-03
1.104133e+02	-2.280072e-03
1.110511e+02	-2.306480e-03
1.116925e+02	-2.333194e-03
1.123376e+02	-2.360217e-03
1.129865e+02	-2.387554e-03
1.136391e+02	-2.415206e-03
1.142955e+02	-2.443179e-03
1.149556e+02	-2.471476e-03
1.156196e+02	-2.500101e-03
1.162874e+02	-2.529056e-03
1.169591e+02	-2.558348e-03
1.176347e+02	-2.587978e-03
1.183141e+02	-2.617951e-03
1.189975e+02	-2.648272e-03
1.196848e+02	-2.678943e-03
1.203761e+02	-2.709970e-03
1.210714e+02	-2.741355e-03
1.217707e+02	-2.773105e-03
1.224740e+02	-2.805221e-03
1.231814e+02	-2.837710e-03
1.238929e+02	-2.870575e-03
1.246085e+02	-2.903820e-03
1.253283e+02	-2.937450e-03
1.260522e+02	-2.971470e-03
1.267802e+02	-3.005883e-03
1.275125e+02	-3.040695e-03
1.282490e+02	-3.075909e-03
1.289898e+02	-3.111532e-03
1.297348e+02	-3.147567e-03
1.304842e+02	-3.184019e-03
1.312378e+02	-3.220893e-03
1.319959e+02	-3.258194e-03
1.327583e+02	-3.295926e-03
1.335251e+02	-3.334096e-03
1.342963e+02	-3.372707e-03
1.350720e+02	-3.411765e-03
1.358522e+02	-3.451276e-03
1.366368e+02	-3.491244e-03
1.374260e+02	-3.531674e-03
1.382198e+02	-3.572573e-03
1.390182e+02	-3.613945e-03
1.398211e+02	-3.655796e-03
1.406287e+02	-3.698131e-03
1.414410e+02	-3.740956e-03
1.422579e+02	-3.784277e-03
1.430796e+02	-3.828100e-03
1.439060e+02	-3.872429e-03
1.447372e+02	-3.917272e-03
1.455732e+02	-3.962634e-03
1.464141e+02	-4.008521e-03
1.472597e+02	-4.054939e-03
1.481103e+02	-4.101894e-03
1.489658e+02	-4.149393e-03
1.498262e+02	-4.197442e-03
1.506916e+02	-4.246046e-03
1.515620e+02	-4.295213e-03
1.524374e+02	-4.344950e-03
1.533179e+02	-4.395262e-03
1.542034e+02	-4.446156e-03
1.550941e+02	-4.497639e-03
1.559899e+02	-4.549718e-03
1.568909e+02	-4.602399e-03
1.577971e+02	-4.655691e-03
1.587085e+02	-4.709599e-03
1.596252e+02	-4.764131e-03
1.605472e+02	-4.819294e-03
1.614745e+02	-4.875095e-03
1.624072e+02	-4.931542e-03
1.633453e+02	-4.988643e-03
1.642887e+02	-5.046404e-03
1.652377e+02	-5.104833e-03
1.661921e+02	-5.163939e-03
1.671520e+02	-5.223728e-03
1.681175e+02	-5.284210e-03
1.690885e+02	-5.345391e-03
1.700651e+02	-5.407280e-03
1.710474e+02	-5.469885e-03
1.720354e+02	-5.533215e-03
1.730291e+02	-5.597277e-03
1.740285e+02	-5.662080e-03
1.750337e+02	-5.727634e-03
1.760446e+02	-5.793945e-03
1.770615e+02	-5.861024e-03
1.780842e+02	-5.928879e-03
1.791128e+02	-5.997519e-03
1.801473e+02	-6.066954e-03
1.811878e+02	-6.137191e-03
1.822344e+02	-6.208241e-03
1.832870e+02	-6.280113e-03
1.843456e+02	-6.352816e-03
1.854104e+02	-6.426361e-03
1.864813e+02	-6.500756e-03
1.875584e+02	-6.576012e-03
1.886418e+02	-6.652138e-03
1.897313e+02	-6.729145e-03
1.908272e+02	-6.807042e-03
1.919294e+02	-6.885841e-03
1.930380e+02	-6.965551e-03
1.941530e+02	-7.046183e-03
1.952744e+02	-7.127748e-03
1.964023e+02	-7.210256e-03
1.975367e+02	-7.293718e-03
1.986777e+02	-7.378146e-03
1.998252e+02	-7.463550e-03
2.009794e+02	-7.549942e-03
2.021403e+02	-7.637333e-03
2.033078e+02	-7.725734e-03
2.044821e+02	-7.815158e-03
2.056632e+02	-7.905616e-03
2.068511e+02	-7.997120e-03
2.080459e+02	-8.089682e-03
2.092475e+02	-8.183315e-03
2.104561e+02	-8.278030e-03
2.116717e+02	-8.373840e-03
2.128943e+02	-8.470758e-03
2.141240e+02	-8.568797e-03
2.153608e+02	-8.667970e-03
2.166047e+02	-8.768288e-03
2.178558e+02	-8.869767e-03
2.191141e+02	-8.972419e-03
2.203797e+02	-9.076258e-03
2.216526e+02	-9.181297e-03
2.229329e+02	-9.287551e-03
2.242205e+02	-9.395033e-03
2.255156e+02	-9.503757e-03
2.268182e+02	-9.613739e-03
2.281283e+02	-9.724991e-03
2.294459e+02	-9.837530e-03
2.307712e+02	-9.951369e-03
2.321041e+02	-1.006652e-02
2.334447e+02	-1.018301e-02
2.347931e+02	-1.030084e-02
2.361493e+02	-1.042004e-02
2.375133e+02	-1.054061e-02
2.388851e+02	-1.066257e-02
2.402649e+02	-1.078595e-02
2.416527e+02	-1.091075e-02
2.430484e+02	-1.103699e-02
2.444523e+02	-1.116469e-02
2.458642e+02	-1.129387e-02
2.472843e+02	-1.142454e-02
2.487126e+02	-1.155672e-02
2.501492e+02	-1.169043e-02
2.515940e+02	-1.182568e-02
2.530472e+02	-1.196249e-02
2.545088e+02	-1.210089e-02
2.559789e+02	-1.224088e-02
2.574574e+02	-1.238249e-02
2.589444e+02	-1.252574e-02
2.604401e+02	-1.267064e-02
2.619444e+02	-1.281722e-02
2.634574e+02	-1.296548e-02
2.649791e+02	-1.311546e-02
2.665096e+02	-1.326718e-02
2.680489e+02	-1.342064e-02
2.695972e+02	-1.357588e-02
2.711544e+02	-1.373291e-02
2.727205e+02	-1.389176e-02
2.742958e+02	-1.405243e-02
2.758801e+02	-1.421497e-02
2.774736e+02	-1.437938e-02
2.790762e+02	-1.454569e-02
2.806882e+02	-1.471392e-02
2.823094e+02	-1.488409e-02
2.839400e+02	-1.505622e-02
2.855800e+02	-1.523035e-02
2.872295e+02	-1.540648e-02
2.888886e+02	-1.558465e-02
2.905572e+02	-1.576487e-02
2.922354e+02	-1.594717e-02
2.939234e+02	-1.613158e-02
2.956211e+02	-1.631812e-02
2.973286e+02	-1.650681e-02
2.990459e+02	-1.669767e-02
3.007732e+02	-1.689074e-02
3.025104e+02	-1.708604e-02
3.042577e+02	-1.728359e-02
3.060151e+02	-1.748342e-02
3.077826e+02	-1.768556e-02
3.095604e+02	-1.789003e-02
3.113484e+02	-1.809685e-02
3.131467e+02	-1.830607e-02
3.149554e+02	-1.851769e-02
3.167746e+02	-1.873176e-02
3.186043e+02	-1.894830e-02
3.204445e+02	-1.916733e-02
3.222954e+02	-1.938889e-02
3.241570e+02	-1.961301e-02
3.260293e+02	-1.983971e-02
3.279124e+02	-2.006903e-02
3.298064e+02	-2.030099e-02
3.317114e+02	-2.053562e-02
3.336273e+02	-2.077296e-02
3.355544e+02	-2.101304e-02
3.374925e+02	-2.125588e-02
3.394418e+02	-2.150152e-02
3.414024e+02	-2.175000e-02
3.433744e+02	-2.200134e-02
3.453577e+02	-2.225557e-02
3.473525e+02	-2.251274e-02
3.493588e+02	-2.277287e-02
3.513766e+02	-2.303600e-02
3.534062e+02	-2.330216e-02
3.554474e+02	-2.357138e-02
3.575005e+02	-2.384371e-02
3.595654e+02	-2.411918e-02
3.616422e+02	-2.439782e-02
3.637311e+02	-2.467967e-02
3.658320e+02	-2.496476e-02
3.679450e+02	-2.525314e-02
3.700702e+02	-2.554484e-02
3.722077e+02	-2.583990e-02
3.743576e+02	-2.613836e-02
3.765199e+02	-2.644026e-02
3.786946e+02	-2.674563e-02
3.808820e+02	-2.705451e-02
3.830819e+02	-2.736696e-02
3.852946e+02	-2.768300e-02
3.875200e+02	-2.800267e-02
3.897583e+02	-2.832603e-02
3.920096e+02	-2.865311e-02
3.942738e+02	-2.898395e-02
3.965511e+02	-2.931860e-02
3.988416e+02	-2.965710e-02
4.011452e+02	-2.999950e-02
4.034622e+02	-3.034583e-02
4.057926e+02	-3.069615e-02
4.081365e+02	-3.105050e-02
4.104938e+02	-3.140892e-02
4.128648e+02	-3.177147e-02
4.152495e+02	-3.213818e-02
4.176480e+02	-3.250911e-02
4.200603e+02	-3.288431e-02
4.224866e+02	-3.326382e-02
4.249268e+02	-3.364769e-02
4.273812e+02	-3.403598e-02
4.298497e+02	-3.442873e-02
4.323325e+02	-3.482599e-02
4.348297e+02	-3.522782e-02
4.373412e+02	-3.563426e-02
4.398673e+02	-3.604538e-02
4.424079e+02	-3.646121e-02
4.449633e+02	-3.688183e-02
4.475334e+02	-3.730727e-02
4.501183e+02	-3.773761e-02
4.527182e+02	-3.817288e-02
4.553330e+02	-3.861315e-02
4.579630e+02	-3.905848e-02
4.606082e+02	-3.950892e-02
4.632687e+02	-3.996453e-02
4.659445e+02	-4.042537e-02
4.686358e+02	-4.089150e-02
4.713426e+02	-4.136297e-02
4.740650e+02	-4.183986e-02
4.768032e+02	-4.232222e-02
4.795572e+02	-4.281011e-02
4.823271e+02	-4.330360e-02
4.851130e+02	-4.380275e-02
4.879150e+02	-4.430762e-02
4.907332e+02	-4.481828e-02
4.935676e+02	-4.533480e-02
4.964185e+02	-4.585724e-02
4.992858e+02	-4.638566e-02
5.021696e+02	-4.692014e-02
5.050701e+02	-4.746075e-02
5.079874e+02	-4.800755e-02
5.109215e+02	-4.856062e-02
5.138726e+02	-4.912002e-02
5.168407e+02	-4.968582e-02
5.198259e+02	-5.025811e-02
5.228284e+02	-5.083695e-02
5.258482e+02	-5.142242e-02
5.288855e+02	-5.201459e-02
5.319403e+02	-5.261353e-02
5.350128e+02	-5.321934e-02
5.381030e+02	-5.383207e-02
5.412111e+02	-5.445181e-02
5.443371e+02	-5.507865e-02
5.474812e+02	-5.571265e-02
5.506434e+02	-5.635390e-02
5.538239e+02	-5.700249e-02
5.570228e+02	-5.765849e-02
5.602401e+02	-5.832199e-02
5.634760e+02	-5.899307e-02
5.667306e+02	-5.967182e-02
5.700040e+02	-6.035832e-02
5.732964e+02	-6.105267e-02
5.766077e+02	-6.175495e-02
5.799382e+02	-6.246525e-02
5.832879e+02	-6.318365e-02
5.866569e+02	-6.391026e-02
5.900454e+02	-6.464517e-02
5.934535e+02	-6.538846e-02
5.968813e+02	-6.614023e-02
6.003288e+02	-6.690057e-02
6.037963e+02	-6.766959e-02
6.072838e+02	-6.844738e-02
6.107914e+02	-6.923404e-02
6.143194e+02	-7.002967e-02
6.178676e+02	-7.083436e-02
6.214364e+02	-7.164823e-02
6.250258e+02	-7.247137e-02
6.286359e+02	-7.330388e-02
6.322669e+02	-7.414588e-02
6.359189e+02	-7.499746e-02
6.395919e+02	-7.585874e-02
6.432862e+02	-7.672982e-02
6.470017e+02	-7.761081e-02
6.507388e+02	-7.850183e-02
6.544974e+02	-7.940299e-02
6.582778e+02	-8.031439e-02
6.620800e+02	-8.123615e-02
6.659041e+02	-8.216840e-02
6.697504e+02	-8.311124e-02
6.736188e+02	-8.406479e-02
6.775096e+02	-8.502918e-02
6.814229e+02	-8.600452e-02
6.853587e+02	-8.699094e-02
6.893173e+02	-8.798855e-02
6.932988e+02	-8.899749e-02
6.973033e+02	-9.001788e-02
7.013309e+02	-9.104984e-02
