Frequency(Hz)	Magnitude(dB)
1.000000e+01	-2.032461e+00
1.005776e+01	-2.051130e+00
1.011585e+01	-2.070249e+00
1.017428e+01	-2.088976e+00
1.023305e+01	-2.108213e+00
1.029215e+01	-2.127701e+00
1.035160e+01	-2.147129e+00
1.041139e+01	-2.166515e+00
1.047153e+01	-2.186515e+00
1.053201e+01	-2.206009e+00
1.059284e+01	-2.226394e+00
1.065403e+01	-2.246293e+00
1.071556e+01	-2.266769e+00
1.077746e+01	-2.286962e+00
1.083971e+01	-2.307662e+00
1.090232e+01	-2.328271e+00
1.096529e+01	-2.349159e+00
1.102862e+01	-2.370096e+00
1.109232e+01	-2.391138e+00
1.115639e+01	-2.412469e+00
1.122083e+01	-2.433773e+00
1.128564e+01	-2.455373e+00
1.135083e+01	-2.477155e+00
1.141639e+01	-2.498792e+00
1.148233e+01	-2.520724e+00
1.154865e+01	-2.542949e+00
1.161536e+01	-2.565145e+00
1.168245e+01	-2.587334e+00
1.174992e+01	-2.609948e+00
1.181779e+01	-2.632552e+00
1.188605e+01	-2.655557e+00
1.195470e+01	-2.678621e+00
1.202375e+01	-2.701599e+00
1.209320e+01	-2.724835e+00
1.216305e+01	-2.748336e+00
1.223330e+01	-2.771649e+00
1.230396e+01	-2.795425e+00
1.237503e+01	-2.819401e+00
1.244651e+01	-2.843356e+00
1.251840e+01	-2.867430e+00
1.259070e+01	-2.891508e+00
1.266343e+01	-2.915843e+00
1.273657e+01	-2.940560e+00
1.281014e+01	-2.965082e+00
1.288413e+01	-2.989914e+00
1.295855e+01	-3.014978e+00
1.303339e+01	-3.040018e+00
1.310867e+01	-3.065376e+00
1.318439e+01	-3.090787e+00
1.326054e+01	-3.116286e+00
1.333713e+01	-3.142125e+00
1.341417e+01	-3.167673e+00
1.349165e+01	-3.193860e+00
1.356958e+01	-3.219689e+00
1.364795e+01	-3.246299e+00
1.372678e+01	-3.272475e+00
1.380607e+01	-3.299254e+00
1.388581e+01	-3.325727e+00
1.396602e+01	-3.352853e+00
1.404668e+01	-3.379538e+00
1.412782e+01	-3.406621e+00
1.420942e+01	-3.434146e+00
1.429149e+01	-3.461237e+00
1.437404e+01	-3.488957e+00
1.445706e+01	-3.516665e+00
1.454057e+01	-3.544308e+00
1.462455e+01	-3.572631e+00
1.470902e+01	-3.600698e+00
1.479398e+01	-3.628795e+00
1.487943e+01	-3.657375e+00
1.496537e+01	-3.685836e+00
1.505181e+01	-3.714311e+00
1.513875e+01	-3.743472e+00
1.522619e+01	-3.772408e+00
1.531414e+01	-3.801488e+00
1.540259e+01	-3.830537e+00
1.549156e+01	-3.859970e+00
1.558103e+01	-3.889362e+00
1.567103e+01	-3.918874e+00
1.576155e+01	-3.948776e+00
1.585258e+01	-3.979073e+00
1.594415e+01	-4.008876e+00
1.603624e+01	-4.039222e+00
1.612886e+01	-4.069722e+00
1.622202e+01	-4.100152e+00
1.631572e+01	-4.130661e+00
1.640996e+01	-4.161607e+00
1.650474e+01	-4.192340e+00
1.660008e+01	-4.223493e+00
1.669596e+01	-4.254669e+00
1.679239e+01	-4.285712e+00
1.688938e+01	-4.317278e+00
1.698694e+01	-4.349076e+00
1.708505e+01	-4.380712e+00
1.718373e+01	-4.412626e+00
1.728299e+01	-4.444506e+00
1.738281e+01	-4.476696e+00
1.748322e+01	-4.508791e+00
1.758420e+01	-4.541309e+00
1.768576e+01	-4.573833e+00
1.778792e+01	-4.606454e+00
1.789066e+01	-4.639127e+00
1.799399e+01	-4.672078e+00
1.809793e+01	-4.705064e+00
1.820246e+01	-4.738138e+00
1.830760e+01	-4.771375e+00
1.841334e+01	-4.804814e+00
1.851969e+01	-4.838702e+00
1.862666e+01	-4.872285e+00
1.873425e+01	-4.906189e+00
1.884246e+01	-4.939674e+00
1.895129e+01	-4.974111e+00
1.906075e+01	-5.008377e+00
1.917085e+01	-5.042328e+00
1.928158e+01	-5.076906e+00
1.939295e+01	-5.111318e+00
1.950496e+01	-5.146110e+00
1.961762e+01	-5.181024e+00
1.973093e+01	-5.215743e+00
1.984490e+01	-5.250615e+00
1.995952e+01	-5.286025e+00
2.007480e+01	-5.321227e+00
2.019076e+01	-5.356503e+00
2.030738e+01	-5.391961e+00
2.042467e+01	-5.427493e+00
2.054264e+01	-5.463427e+00
2.066130e+01	-5.499282e+00
2.078064e+01	-5.535326e+00
2.090066e+01	-5.571735e+00
2.102139e+01	-5.607777e+00
2.114280e+01	-5.643767e+00
2.126492e+01	-5.680473e+00
2.138775e+01	-5.716996e+00
2.151128e+01	-5.753609e+00
2.163553e+01	-5.790252e+00
2.176050e+01	-5.827204e+00
2.188619e+01	-5.864367e+00
2.201260e+01	-5.901663e+00
2.213974e+01	-5.938949e+00
2.226762e+01	-5.976366e+00
2.239624e+01	-6.013901e+00
2.252560e+01	-6.050809e+00
2.265571e+01	-6.088560e+00
2.278656e+01	-6.126219e+00
2.291818e+01	-6.164143e+00
2.305055e+01	-6.202576e+00
2.318369e+01	-6.240439e+00
2.331760e+01	-6.278572e+00
2.345228e+01	-6.317156e+00
2.358774e+01	-6.355563e+00
2.372398e+01	-6.393238e+00
2.386101e+01	-6.432400e+00
2.399883e+01	-6.471125e+00
2.413745e+01	-6.509721e+00
2.427686e+01	-6.548911e+00
2.441709e+01	-6.587904e+00
2.455812e+01	-6.626719e+00
2.469997e+01	-6.665716e+00
2.484263e+01	-6.705158e+00
2.498612e+01	-6.744624e+00
2.513044e+01	-6.784371e+00
2.527559e+01	-6.823958e+00
2.542158e+01	-6.863420e+00
2.556842e+01	-6.903357e+00
2.571610e+01	-6.942879e+00
2.586463e+01	-6.983016e+00
2.601403e+01	-7.023091e+00
2.616428e+01	-7.063652e+00
2.631541e+01	-7.103221e+00
2.646740e+01	-7.144044e+00
2.662028e+01	-7.184184e+00
2.677404e+01	-7.224522e+00
2.692868e+01	-7.265437e+00
2.708422e+01	-7.306183e+00
2.724066e+01	-7.346832e+00
2.739800e+01	-7.387917e+00
2.755625e+01	-7.428805e+00
2.771541e+01	-7.469561e+00
2.787550e+01	-7.510841e+00
2.803650e+01	-7.551952e+00
2.819844e+01	-7.593138e+00
2.836131e+01	-7.634400e+00
2.852513e+01	-7.675720e+00
2.868989e+01	-7.717247e+00
2.885560e+01	-7.758770e+00
2.902227e+01	-7.801022e+00
2.918990e+01	-7.842619e+00
2.935850e+01	-7.884606e+00
2.952807e+01	-7.926357e+00
2.969863e+01	-7.968375e+00
2.987016e+01	-8.010665e+00
3.004269e+01	-8.052144e+00
3.021622e+01	-8.094933e+00
3.039075e+01	-8.137488e+00
3.056628e+01	-8.179547e+00
3.074283e+01	-8.222060e+00
3.092040e+01	-8.264647e+00
3.109900e+01	-8.306752e+00
3.127862e+01	-8.350022e+00
3.145929e+01	-8.392118e+00
3.164099e+01	-8.435255e+00
3.182375e+01	-8.477826e+00
3.200756e+01	-8.520816e+00
3.219244e+01	-8.564239e+00
3.237838e+01	-8.607189e+00
3.256540e+01	-8.650565e+00
3.275349e+01	-8.693838e+00
3.294268e+01	-8.737117e+00
3.313295e+01	-8.780857e+00
3.332433e+01	-8.823463e+00
3.351681e+01	-8.867581e+00
3.371040e+01	-8.910718e+00
3.390511e+01	-8.954441e+00
3.410094e+01	-8.997928e+00
3.429791e+01	-9.041787e+00
3.449601e+01	-9.085750e+00
3.469526e+01	-9.129770e+00
3.489566e+01	-9.173870e+00
3.509721e+01	-9.217735e+00
3.529993e+01	-9.261793e+00
3.550382e+01	-9.305826e+00
3.570889e+01	-9.349904e+00
3.591515e+01	-9.394245e+00
3.612259e+01	-9.438315e+00
3.633123e+01	-9.482661e+00
3.654108e+01	-9.527420e+00
3.675214e+01	-9.571396e+00
3.696442e+01	-9.616881e+00
3.717792e+01	-9.660601e+00
3.739266e+01	-9.705522e+00
3.760864e+01	-9.750441e+00
3.782587e+01	-9.794904e+00
3.804435e+01	-9.839775e+00
3.826409e+01	-9.884680e+00
3.848510e+01	-9.929380e+00
3.870739e+01	-9.974606e+00
3.893096e+01	-1.001950e+01
3.915583e+01	-1.006485e+01
3.938199e+01	-1.010997e+01
3.960946e+01	-1.015471e+01
3.983824e+01	-1.020026e+01
4.006834e+01	-1.024537e+01
4.029978e+01	-1.029040e+01
4.053255e+01	-1.033580e+01
4.076666e+01	-1.038112e+01
4.100213e+01	-1.042730e+01
4.123896e+01	-1.047288e+01
4.147715e+01	-1.051805e+01
4.171672e+01	-1.056391e+01
4.195767e+01	-1.060886e+01
4.220002e+01	-1.065509e+01
4.244377e+01	-1.070065e+01
4.268892e+01	-1.074682e+01
4.293549e+01	-1.079222e+01
4.318348e+01	-1.083801e+01
4.343291e+01	-1.088418e+01
4.368377e+01	-1.092995e+01
4.393609e+01	-1.097635e+01
4.418986e+01	-1.102242e+01
4.444510e+01	-1.106870e+01
4.470182e+01	-1.111455e+01
4.496001e+01	-1.116059e+01
4.521970e+01	-1.120677e+01
4.548089e+01	-1.125344e+01
4.574358e+01	-1.129953e+01
4.600779e+01	-1.134620e+01
4.627353e+01	-1.139186e+01
4.654081e+01	-1.143815e+01
4.680963e+01	-1.148489e+01
4.708000e+01	-1.153094e+01
4.735193e+01	-1.157801e+01
4.762543e+01	-1.162441e+01
4.790051e+01	-1.167126e+01
4.817719e+01	-1.171762e+01
4.845545e+01	-1.176503e+01
4.873533e+01	-1.181095e+01
4.901682e+01	-1.185811e+01
4.929994e+01	-1.190530e+01
4.958470e+01	-1.195100e+01
4.987110e+01	-1.199825e+01
5.015915e+01	-1.204567e+01
5.044887e+01	-1.209274e+01
5.074026e+01	-1.213873e+01
5.103333e+01	-1.218605e+01
5.132810e+01	-1.223284e+01
5.162457e+01	-1.228006e+01
5.192275e+01	-1.232689e+01
5.222265e+01	-1.237447e+01
5.252429e+01	-1.242127e+01
5.282767e+01	-1.246895e+01
5.313280e+01	-1.251546e+01
5.343969e+01	-1.256378e+01
5.374836e+01	-1.261009e+01
5.405880e+01	-1.265814e+01
5.437105e+01	-1.270547e+01
5.468509e+01	-1.275225e+01
5.500095e+01	-1.279988e+01
5.531863e+01	-1.284709e+01
5.563815e+01	-1.289475e+01
5.595951e+01	-1.294210e+01
5.628273e+01	-1.298968e+01
5.660782e+01	-1.303715e+01
5.693479e+01	-1.308500e+01
5.726364e+01	-1.313184e+01
5.759439e+01	-1.317970e+01
5.792705e+01	-1.322804e+01
5.826164e+01	-1.327544e+01
5.859815e+01	-1.332321e+01
5.893662e+01	-1.337071e+01
5.927703e+01	-1.341900e+01
5.961941e+01	-1.346680e+01
5.996377e+01	-1.351378e+01
6.031012e+01	-1.356154e+01
6.065847e+01	-1.360976e+01
6.100883e+01	-1.365690e+01
6.136121e+01	-1.370457e+01
6.171563e+01	-1.375341e+01
6.207210e+01	-1.380102e+01
6.243063e+01	-1.384859e+01
6.279122e+01	-1.389743e+01
6.315390e+01	-1.394494e+01
6.351868e+01	-1.399315e+01
6.388556e+01	-1.404157e+01
6.425456e+01	-1.409010e+01
6.462569e+01	-1.413725e+01
6.499897e+01	-1.418585e+01
6.537440e+01	-1.423339e+01
6.575200e+01	-1.428096e+01
6.613178e+01	-1.432922e+01
6.651375e+01	-1.437833e+01
6.689793e+01	-1.442685e+01
6.728433e+01	-1.447386e+01
6.767297e+01	-1.452254e+01
6.806384e+01	-1.457105e+01
6.845698e+01	-1.462002e+01
6.885238e+01	-1.466788e+01
6.925007e+01	-1.471619e+01
6.965005e+01	-1.476497e+01
7.005235e+01	-1.481272e+01
7.045697e+01	-1.486037e+01
7.086393e+01	-1.491010e+01
7.127323e+01	-1.495802e+01
7.168490e+01	-1.500624e+01
7.209895e+01	-1.505556e+01
7.251539e+01	-1.510375e+01
7.293424e+01	-1.515170e+01
7.335551e+01	-1.520031e+01
7.377920e+01	-1.524877e+01
7.420535e+01	-1.529722e+01
7.463396e+01	-1.534588e+01
7.506504e+01	-1.539370e+01
7.549861e+01	-1.544258e+01
7.593469e+01	-1.549113e+01
7.637328e+01	-1.553974e+01
7.681441e+01	-1.558831e+01
7.725809e+01	-1.563783e+01
7.770433e+01	-1.568681e+01
7.815315e+01	-1.573487e+01
7.860456e+01	-1.578364e+01
7.905857e+01	-1.583143e+01
7.951521e+01	-1.587991e+01
7.997449e+01	-1.593087e+01
8.043642e+01	-1.597813e+01
8.090102e+01	-1.602764e+01
8.136830e+01	-1.607649e+01
8.183828e+01	-1.612529e+01
8.231097e+01	-1.617448e+01
8.278640e+01	-1.622287e+01
8.326457e+01	-1.627111e+01
8.374550e+01	-1.632068e+01
8.422921e+01	-1.636944e+01
8.471572e+01	-1.641805e+01
8.520503e+01	-1.646752e+01
8.569717e+01	-1.651641e+01
8.619215e+01	-1.656438e+01
8.669000e+01	-1.661382e+01
8.719071e+01	-1.666242e+01
8.769432e+01	-1.671178e+01
8.820084e+01	-1.676124e+01
8.871029e+01	-1.681020e+01
8.922267e+01	-1.685869e+01
8.973802e+01	-1.690750e+01
9.025634e+01	-1.695590e+01
9.077766e+01	-1.700675e+01
9.130199e+01	-1.705436e+01
9.182935e+01	-1.710502e+01
9.235975e+01	-1.715222e+01
9.289321e+01	-1.720236e+01
9.342976e+01	-1.725071e+01
9.396941e+01	-1.730118e+01
9.451217e+01	-1.734910e+01
9.505807e+01	-1.739808e+01
9.560712e+01	-1.744711e+01
9.615934e+01	-1.749668e+01
9.671476e+01	-1.754558e+01
9.727338e+01	-1.759557e+01
9.783522e+01	-1.764493e+01
9.840032e+01	-1.769257e+01
9.896867e+01	-1.774245e+01
9.954031e+01	-1.779212e+01
1.001153e+02	-1.784124e+01
1.006935e+02	-1.789026e+01
1.012751e+02	-1.793913e+01
1.018601e+02	-1.798774e+01
1.024484e+02	-1.803718e+01
1.030402e+02	-1.808732e+01
1.036353e+02	-1.813653e+01
1.042339e+02	-1.818518e+01
1.048360e+02	-1.823495e+01
1.054415e+02	-1.828434e+01
1.060505e+02	-1.833306e+01
1.066631e+02	-1.838245e+01
1.072791e+02	-1.843147e+01
1.078988e+02	-1.848043e+01
1.085220e+02	-1.853183e+01
1.091488e+02	-1.858086e+01
1.097793e+02	-1.862892e+01
1.104133e+02	-1.867865e+01
1.110511e+02	-1.872805e+01
1.116925e+02	-1.877848e+01
1.123376e+02	-1.882844e+01
1.129865e+02	-1.887523e+01
1.136391e+02	-1.892524e+01
1.142955e+02	-1.897521e+01
1.149556e+02	-1.902460e+01
1.156196e+02	-1.907275e+01
1.162874e+02	-1.912277e+01
1.169591e+02	-1.917176e+01
1.176347e+02	-1.922365e+01
1.183141e+02	-1.927041e+01
1.189975e+02	-1.932128e+01
1.196848e+02	-1.936977e+01
1.203761e+02	-1.941987e+01
1.210714e+02	-1.947090e+01
1.217707e+02	-1.951981e+01
1.224740e+02	-1.956784e+01
1.231814e+02	-1.961741e+01
1.238929e+02	-1.966572e+01
1.246085e+02	-1.971672e+01
1.253283e+02	-1.976630e+01
1.260522e+02	-1.981493e+01
1.267802e+02	-1.986576e+01
1.275125e+02	-1.991496e+01
1.282490e+02	-1.996464e+01
1.289898e+02	-2.001451e+01
1.297348e+02	-2.006364e+01
1.304842e+02	-2.011136e+01
1.312378e+02	-2.016271e+01
1.319959e+02	-2.021128e+01
1.327583e+02	-2.026150e+01
1.335251e+02	-2.031091e+01
1.342963e+02	-2.036071e+01
1.350720e+02	-2.041018e+01
1.358522e+02	-2.046025e+01
1.366368e+02	-2.051033e+01
1.374260e+02	-2.055937e+01
1.382198e+02	-2.060615e+01
1.390182e+02	-2.065711e+01
1.398211e+02	-2.070773e+01
1.406287e+02	-2.075675e+01
1.414410e+02	-2.080583e+01
1.422579e+02	-2.085841e+01
1.430796e+02	-2.090662e+01
1.439060e+02	-2.095589e+01
1.447372e+02	-2.100540e+01
1.455732e+02	-2.105704e+01
1.464141e+02	-2.110537e+01
1.472597e+02	-2.115458e+01
1.481103e+02	-2.120646e+01
1.489658e+02	-2.125452e+01
1.498262e+02	-2.130450e+01
1.506916e+02	-2.135287e+01
1.515620e+02	-2.140352e+01
1.524374e+02	-2.145405e+01
1.533179e+02	-2.150096e+01
1.542034e+02	-2.155291e+01
1.550941e+02	-2.160241e+01
1.559899e+02	-2.165071e+01
1.568909e+02	-2.170209e+01
1.577971e+02	-2.175108e+01
1.587085e+02	-2.180025e+01
1.596252e+02	-2.185121e+01
1.605472e+02	-2.190002e+01
1.614745e+02	-2.194983e+01
1.624072e+02	-2.199929e+01
1.633453e+02	-2.204958e+01
1.642887e+02	-2.210050e+01
1.652377e+02	-2.214699e+01
1.661921e+02	-2.219671e+01
1.671520e+02	-2.224897e+01
1.681175e+02	-2.229796e+01
1.690885e+02	-2.234892e+01
1.700651e+02	-2.239788e+01
1.710474e+02	-2.244554e+01
1.720354e+02	-2.249577e+01
1.730291e+02	-2.254563e+01
1.740285e+02	-2.259513e+01
1.750337e+02	-2.264689e+01
1.760446e+02	-2.269384e+01
1.770615e+02	-2.274439e+01
1.780842e+02	-2.279430e+01
1.791128e+02	-2.284606e+01
1.801473e+02	-2.289492e+01
1.811878e+02	-2.294680e+01
1.822344e+02	-2.299357e+01
1.832870e+02	-2.304320e+01
1.843456e+02	-2.309590e+01
1.854104e+02	-2.314501e+01
1.864813e+02	-2.319403e+01
1.875584e+02	-2.324515e+01
1.886418e+02	-2.329317e+01
1.897313e+02	-2.334255e+01
1.908272e+02	-2.339571e+01
1.919294e+02	-2.344169e+01
1.930380e+02	-2.349216e+01
1.941530e+02	-2.354316e+01
1.952744e+02	-2.359434e+01
1.964023e+02	-2.364117e+01
1.975367e+02	-2.368976e+01
1.986777e+02	-2.374128e+01
1.998252e+02	-2.379389e+01
2.009794e+02	-2.384083e+01
2.021403e+02	-2.389131e+01
2.033078e+02	-2.394180e+01
2.044821e+02	-2.399013e+01
2.056632e+02	-2.404246e+01
2.068511e+02	-2.408878e+01
2.080459e+02	-2.414292e+01
2.092475e+02	-2.419202e+01
2.104561e+02	-2.423767e+01
2.116717e+02	-2.429133e+01
2.128943e+02	-2.434089e+01
2.141240e+02	-2.438816e+01
2.153608e+02	-2.444050e+01
2.166047e+02	-2.448923e+01
2.178558e+02	-2.454044e+01
2.191141e+02	-2.458860e+01
2.203797e+02	-2.464034e+01
2.216526e+02	-2.468687e+01
2.229329e+02	-2.473977e+01
2.242205e+02	-2.478765e+01
2.255156e+02	-2.483816e+01
2.268182e+02	-2.488677e+01
2.281283e+02	-2.494013e+01
2.294459e+02	-2.498790e+01
2.307712e+02	-2.503890e+01
2.321041e+02	-2.508932e+01
2.334447e+02	-2.514019e+01
2.347931e+02	-2.518839e+01
2.361493e+02	-2.523750e+01
2.375133e+02	-2.528899e+01
2.388851e+02	-2.533889e+01
2.402649e+02	-2.538799e+01
2.416527e+02	-2.543938e+01
2.430484e+02	-2.548977e+01
2.444523e+02	-2.553743e+01
2.458642e+02	-2.558826e+01
2.472843e+02	-2.563643e+01
2.487126e+02	-2.568703e+01
2.501492e+02	-2.573776e+01
2.515940e+02	-2.579058e+01
2.530472e+02	-2.583785e+01
2.545088e+02	-2.588354e+01
2.559789e+02	-2.593785e+01
2.574574e+02	-2.598719e+01
2.589444e+02	-2.603766e+01
2.604401e+02	-2.608690e+01
2.619444e+02	-2.613465e+01
2.634574e+02	-2.619060e+01
2.649791e+02	-2.623760e+01
2.665096e+02	-2.628572e+01
2.680489e+02	-2.633767e+01
2.695972e+02	-2.638719e+01
2.711544e+02	-2.643761e+01
2.727205e+02	-2.648602e+01
2.742958e+02	-2.653692e+01
2.758801e+02	-2.658720e+01
2.774736e+02	-2.664167e+01
2.790762e+02	-2.668692e+01
2.806882e+02	-2.673679e+01
2.823094e+02	-2.678567e+01
2.839400e+02	-2.683692e+01
2.855800e+02	-2.688511e+01
2.872295e+02	-2.693674e+01
2.888886e+02	-2.698764e+01
2.905572e+02	-2.703838e+01
2.922354e+02	-2.708380e+01
2.939234e+02	-2.713911e+01
2.956211e+02	-2.718571e+01
2.973286e+02	-2.723640e+01
2.990459e+02	-2.728731e+01
3.007732e+02	-2.733935e+01
3.025104e+02	-2.738693e+01
3.042577e+02	-2.744018e+01
3.060151e+02	-2.748873e+01
3.077826e+02	-2.753864e+01
3.095604e+02	-2.759014e+01
3.113484e+02	-2.764167e+01
3.131467e+02	-2.768567e+01
3.149554e+02	-2.773747e+01
3.167746e+02	-2.778696e+01
3.186043e+02	-2.783357e+01
3.204445e+02	-2.788870e+01
3.222954e+02	-2.793468e+01
3.241570e+02	-2.798806e+01
3.260293e+02	-2.803925e+01
3.279124e+02	-2.808423e+01
3.298064e+02	-2.813412e+01
3.317114e+02	-2.818334e+01
3.336273e+02	-2.823840e+01
3.355544e+02	-2.828624e+01
3.374925e+02	-2.834014e+01
3.394418e+02	-2.838377e+01
3.414024e+02	-2.843880e+01
3.433744e+02	-2.848879e+01
3.453577e+02	-2.853821e+01
3.473525e+02	-2.859000e+01
3.493588e+02	-2.863997e+01
3.513766e+02	-2.868671e+01
3.534062e+02	-2.873731e+01
3.554474e+02	-2.879019e+01
3.575005e+02	-2.883979e+01
3.595654e+02	-2.887910e+01
3.616422e+02	-2.893755e+01
3.637311e+02	-2.898920e+01
3.658320e+02	-2.903924e+01
3.679450e+02	-2.908680e+01
3.700702e+02	-2.913733e+01
3.722077e+02	-2.918340e+01
3.743576e+02	-2.923843e+01
3.765199e+02	-2.928663e+01
3.786946e+02	-2.934044e+01
3.808820e+02	-2.939110e+01
3.830819e+02	-2.943763e+01
3.852946e+02	-2.949374e+01
3.875200e+02	-2.954107e+01
3.897583e+02	-2.958918e+01
3.920096e+02	-2.963897e+01
3.942738e+02	-2.968788e+01
3.965511e+02	-2.973960e+01
3.988416e+02	-2.979291e+01
4.011452e+02	-2.983875e+01
4.034622e+02	-2.988916e+01
4.057926e+02	-2.994546e+01
4.081365e+02	-2.998941e+01
4.104938e+02	-3.003888e+01
4.128648e+02	-3.008636e+01
4.152495e+02	-3.014022e+01
4.176480e+02	-3.018804e+01
4.200603e+02	-3.024381e+01
4.224866e+02	-3.028714e+01
4.249268e+02	-3.034036e+01
4.273812e+02	-3.039083e+01
4.298497e+02	-3.044276e+01
4.323325e+02	-3.048737e+01
4.348297e+02	-3.053970e+01
4.373412e+02	-3.059503e+01
4.398673e+02	-3.063858e+01
4.424079e+02	-3.069241e+01
4.449633e+02	-3.074506e+01
4.475334e+02	-3.079170e+01
4.501183e+02	-3.084281e+01
4.527182e+02	-3.088872e+01
4.553330e+02	-3.093942e+01
4.579630e+02	-3.099053e+01
4.606082e+02	-3.104230e+01
4.632687e+02	-3.109348e+01
4.659445e+02	-3.114260e+01
4.686358e+02	-3.119007e+01
4.713426e+02	-3.124629e+01
4.740650e+02	-3.129698e+01
4.768032e+02	-3.134799e+01
4.795572e+02	-3.138935e+01
4.823271e+02	-3.144786e+01
4.851130e+02	-3.149454e+01
4.879150e+02	-3.155186e+01
4.907332e+02	-3.159932e+01
4.935676e+02	-3.163641e+01
4.964185e+02	-3.169409e+01
4.992858e+02	-3.174282e+01
5.021696e+02	-3.179294e+01
5.050701e+02	-3.184771e+01
5.079874e+02	-3.189862e+01
5.109215e+02	-3.194240e+01
5.138726e+02	-3.199704e+01
5.168407e+02	-3.204540e+01
5.198259e+02	-3.209277e+01
5.228284e+02	-3.214303e+01
5.258482e+02	-3.220079e+01
5.288855e+02	-3.224643e+01
5.319403e+02	-3.229736e+01
5.350128e+02	-3.234109e+01
5.381030e+02	-3.239934e+01
5.412111e+02	-3.245209e+01
5.443371e+02	-3.249866e+01
5.474812e+02	-3.254766e+01
5.506434e+02	-3.259999e+01
5.538239e+02	-3.265652e+01
5.570228e+02	-3.269753e+01
5.602401e+02	-3.275329e+01
5.634760e+02	-3.279829e+01
5.667306e+02	-3.285070e+01
5.700040e+02	-3.289548e+01
5.732964e+02	-3.295254e+01
5.766077e+02	-3.299978e+01
5.799382e+02	-3.304665e+01
5.832879e+02	-3.309352e+01
5.866569e+02	-3.314877e+01
5.900454e+02	-3.320200e+01
5.934535e+02	-3.325617e+01
5.968813e+02	-3.330445e+01
6.003288e+02	-3.334891e+01
6.037963e+02	-3.339323e+01
6.072838e+02	-3.345197e+01
6.107914e+02	-3.349794e+01
6.143194e+02	-3.356129e+01
6.178676e+02	-3.359791e+01
6.214364e+02	-3.365873e+01
6.250258e+02	-3.370731e+01
6.286359e+02	-3.375414e+01
6.322669e+02	-3.380447e+01
6.359189e+02	-3.385042e+01
6.395919e+02	-3.390722e+01
6.432862e+02	-3.396056e+01
6.470017e+02	-3.400501e+01
6.507388e+02	-3.405969e+01
6.544974e+02	-3.410409e+01
6.582778e+02	-3.415250e+01
6.620800e+02	-3.421048e+01
6.659041e+02	-3.425850e+01
6.697504e+02	-3.430760e+01
6.736188e+02	-3.436075e+01
6.775096e+02	-3.441036e+01
6.814229e+02	-3.445525e+01
6.853587e+02	-3.450791e+01
6.893173e+02	-3.455909e+01
6.932988e+02	-3.460632e+01
6.973033e+02	-3.466134e+01
7.013309e+02	-3.470765e+01
