Frequency(Hz)	Magnitude(dB)
1.000000e+01	-2.110931e+00
1.005776e+01	-2.130617e+00
1.011585e+01	-2.149993e+00
1.017428e+01	-2.169516e+00
1.023305e+01	-2.189433e+00
1.029215e+01	-2.208948e+00
1.035160e+01	-2.229101e+00
1.041139e+01	-2.249221e+00
1.047153e+01	-2.269547e+00
1.053201e+01	-2.289958e+00
1.059284e+01	-2.310339e+00
1.065403e+01	-2.331338e+00
1.071556e+01	-2.351991e+00
1.077746e+01	-2.373016e+00
1.083971e+01	-2.394269e+00
1.090232e+01	-2.415326e+00
1.096529e+01	-2.436736e+00
1.102862e+01	-2.458388e+00
1.109232e+01	-2.480040e+00
1.115639e+01	-2.502011e+00
1.122083e+01	-2.523771e+00
1.128564e+01	-2.546182e+00
1.135083e+01	-2.568209e+00
1.141639e+01	-2.590717e+00
1.148233e+01	-2.613376e+00
1.154865e+01	-2.635911e+00
1.161536e+01	-2.658862e+00
1.168245e+01	-2.681773e+00
1.174992e+01	-2.704958e+00
1.181779e+01	-2.728042e+00
1.188605e+01	-2.751639e+00
1.195470e+01	-2.775090e+00
1.202375e+01	-2.799027e+00
1.209320e+01	-2.822618e+00
1.216305e+01	-2.846525e+00
1.223330e+01	-2.870632e+00
1.230396e+01	-2.895010e+00
1.237503e+01	-2.919384e+00
1.244651e+01	-2.944187e+00
1.251840e+01	-2.968727e+00
1.259070e+01	-2.993563e+00
1.266343e+01	-3.018404e+00
1.273657e+01	-3.043606e+00
1.281014e+01	-3.068955e+00
1.288413e+01	-3.094476e+00
1.295855e+01	-3.119797e+00
1.303339e+01	-3.145731e+00
1.310867e+01	-3.171651e+00
1.318439e+01	-3.197482e+00
1.326054e+01	-3.223601e+00
1.333713e+01	-3.249984e+00
1.341417e+01	-3.276362e+00
1.349165e+01	-3.302644e+00
1.356958e+01	-3.329614e+00
1.364795e+01	-3.356447e+00
1.372678e+01	-3.383467e+00
1.380607e+01	-3.410525e+00
1.388581e+01	-3.437859e+00
1.396602e+01	-3.465034e+00
1.404668e+01	-3.492832e+00
1.412782e+01	-3.520740e+00
1.420942e+01	-3.548553e+00
1.429149e+01	-3.576276e+00
1.437404e+01	-3.604734e+00
1.445706e+01	-3.632777e+00
1.454057e+01	-3.661341e+00
1.462455e+01	-3.689721e+00
1.470902e+01	-3.718682e+00
1.479398e+01	-3.747415e+00
1.487943e+01	-3.776468e+00
1.496537e+01	-3.805657e+00
1.505181e+01	-3.834947e+00
1.513875e+01	-3.864304e+00
1.522619e+01	-3.893750e+00
1.531414e+01	-3.923598e+00
1.540259e+01	-3.953263e+00
1.549156e+01	-3.983247e+00
1.558103e+01	-4.013083e+00
1.567103e+01	-4.043460e+00
1.576155e+01	-4.074007e+00
1.585258e+01	-4.104426e+00
1.594415e+01	-4.135090e+00
1.603624e+01	-4.165576e+00
1.612886e+01	-4.196937e+00
1.622202e+01	-4.228119e+00
1.631572e+01	-4.259086e+00
1.640996e+01	-4.290299e+00
1.650474e+01	-4.321877e+00
1.660008e+01	-4.353639e+00
1.669596e+01	-4.385069e+00
1.679239e+01	-4.417217e+00
1.688938e+01	-4.449107e+00
1.698694e+01	-4.480941e+00
1.708505e+01	-4.513328e+00
1.718373e+01	-4.546059e+00
1.728299e+01	-4.578468e+00
1.738281e+01	-4.610998e+00
1.748322e+01	-4.643799e+00
1.758420e+01	-4.676611e+00
1.768576e+01	-4.709777e+00
1.778792e+01	-4.742809e+00
1.789066e+01	-4.776195e+00
1.799399e+01	-4.809666e+00
1.809793e+01	-4.843500e+00
1.820246e+01	-4.877060e+00
1.830760e+01	-4.910931e+00
1.841334e+01	-4.944846e+00
1.851969e+01	-4.978668e+00
1.862666e+01	-5.013010e+00
1.873425e+01	-5.047262e+00
1.884246e+01	-5.081692e+00
1.895129e+01	-5.116330e+00
1.906075e+01	-5.151099e+00
1.917085e+01	-5.185962e+00
1.928158e+01	-5.220632e+00
1.939295e+01	-5.255434e+00
1.950496e+01	-5.290741e+00
1.961762e+01	-5.326297e+00
1.973093e+01	-5.361516e+00
1.984490e+01	-5.396940e+00
1.995952e+01	-5.433111e+00
2.007480e+01	-5.468746e+00
2.019076e+01	-5.504427e+00
2.030738e+01	-5.540193e+00
2.042467e+01	-5.576657e+00
2.054264e+01	-5.612751e+00
2.066130e+01	-5.649096e+00
2.078064e+01	-5.685488e+00
2.090066e+01	-5.722340e+00
2.102139e+01	-5.758807e+00
2.114280e+01	-5.795534e+00
2.126492e+01	-5.832399e+00
2.138775e+01	-5.869697e+00
2.151128e+01	-5.906906e+00
2.163553e+01	-5.943889e+00
2.176050e+01	-5.981209e+00
2.188619e+01	-6.018449e+00
2.201260e+01	-6.056492e+00
2.213974e+01	-6.094032e+00
2.226762e+01	-6.131680e+00
2.239624e+01	-6.169698e+00
2.252560e+01	-6.207790e+00
2.265571e+01	-6.245379e+00
2.278656e+01	-6.283928e+00
2.291818e+01	-6.322173e+00
2.305055e+01	-6.360786e+00
2.318369e+01	-6.399270e+00
2.331760e+01	-6.437369e+00
2.345228e+01	-6.476696e+00
2.358774e+01	-6.515613e+00
2.372398e+01	-6.554128e+00
2.386101e+01	-6.593185e+00
2.399883e+01	-6.632464e+00
2.413745e+01	-6.671519e+00
2.427686e+01	-6.710789e+00
2.441709e+01	-6.750285e+00
2.455812e+01	-6.789669e+00
2.469997e+01	-6.828877e+00
2.484263e+01	-6.869002e+00
2.498612e+01	-6.908973e+00
2.513044e+01	-6.948777e+00
2.527559e+01	-6.988746e+00
2.542158e+01	-7.028351e+00
2.556842e+01	-7.068818e+00
2.571610e+01	-7.109092e+00
2.586463e+01	-7.149428e+00
2.601403e+01	-7.189907e+00
2.616428e+01	-7.230695e+00
2.631541e+01	-7.271605e+00
2.646740e+01	-7.311381e+00
2.662028e+01	-7.352666e+00
2.677404e+01	-7.393590e+00
2.692868e+01	-7.434617e+00
2.708422e+01	-7.475371e+00
2.724066e+01	-7.516475e+00
2.739800e+01	-7.557815e+00
2.755625e+01	-7.598973e+00
2.771541e+01	-7.640252e+00
2.787550e+01	-7.681667e+00
2.803650e+01	-7.723567e+00
2.819844e+01	-7.765212e+00
2.836131e+01	-7.806993e+00
2.852513e+01	-7.848763e+00
2.868989e+01	-7.890198e+00
2.885560e+01	-7.932462e+00
2.902227e+01	-7.973965e+00
2.918990e+01	-8.016467e+00
2.935850e+01	-8.058581e+00
2.952807e+01	-8.100730e+00
2.969863e+01	-8.143069e+00
2.987016e+01	-8.185329e+00
3.004269e+01	-8.227779e+00
3.021622e+01	-8.270528e+00
3.039075e+01	-8.313195e+00
3.056628e+01	-8.356069e+00
3.074283e+01	-8.398725e+00
3.092040e+01	-8.441157e+00
3.109900e+01	-8.483875e+00
3.127862e+01	-8.527147e+00
3.145929e+01	-8.570371e+00
3.164099e+01	-8.613520e+00
3.182375e+01	-8.656546e+00
3.200756e+01	-8.700455e+00
3.219244e+01	-8.743438e+00
3.237838e+01	-8.786815e+00
3.256540e+01	-8.829810e+00
3.275349e+01	-8.873341e+00
3.294268e+01	-8.917312e+00
3.313295e+01	-8.960774e+00
3.332433e+01	-9.004425e+00
3.351681e+01	-9.047867e+00
3.371040e+01	-9.092013e+00
3.390511e+01	-9.135998e+00
3.410094e+01	-9.179508e+00
3.429791e+01	-9.223957e+00
3.449601e+01	-9.268272e+00
3.469526e+01	-9.311905e+00
3.489566e+01	-9.356061e+00
3.509721e+01	-9.400756e+00
3.529993e+01	-9.444722e+00
3.550382e+01	-9.489265e+00
3.570889e+01	-9.533385e+00
3.591515e+01	-9.577415e+00
3.612259e+01	-9.622886e+00
3.633123e+01	-9.667038e+00
3.654108e+01	-9.711683e+00
3.675214e+01	-9.756642e+00
3.696442e+01	-9.801293e+00
3.717792e+01	-9.845879e+00
3.739266e+01	-9.891035e+00
3.760864e+01	-9.936414e+00
3.782587e+01	-9.980915e+00
3.804435e+01	-1.002578e+01
3.826409e+01	-1.007089e+01
3.848510e+01	-1.011651e+01
3.870739e+01	-1.016156e+01
3.893096e+01	-1.020674e+01
3.915583e+01	-1.025212e+01
3.938199e+01	-1.029728e+01
3.960946e+01	-1.034244e+01
3.983824e+01	-1.038804e+01
4.006834e+01	-1.043398e+01
4.029978e+01	-1.047907e+01
4.053255e+01	-1.052434e+01
4.076666e+01	-1.057037e+01
4.100213e+01	-1.061572e+01
4.123896e+01	-1.066130e+01
4.147715e+01	-1.070707e+01
4.171672e+01	-1.075287e+01
4.195767e+01	-1.079867e+01
4.220002e+01	-1.084457e+01
4.244377e+01	-1.089032e+01
4.268892e+01	-1.093685e+01
4.293549e+01	-1.098279e+01
4.318348e+01	-1.102939e+01
4.343291e+01	-1.107456e+01
4.368377e+01	-1.112091e+01
4.393609e+01	-1.116742e+01
4.418986e+01	-1.121305e+01
4.444510e+01	-1.125952e+01
4.470182e+01	-1.130601e+01
4.496001e+01	-1.135200e+01
4.521970e+01	-1.139862e+01
4.548089e+01	-1.144510e+01
4.574358e+01	-1.149212e+01
4.600779e+01	-1.153843e+01
4.627353e+01	-1.158462e+01
4.654081e+01	-1.163136e+01
4.680963e+01	-1.167768e+01
4.708000e+01	-1.172509e+01
4.735193e+01	-1.177129e+01
4.762543e+01	-1.181854e+01
4.790051e+01	-1.186472e+01
4.817719e+01	-1.191155e+01
4.845545e+01	-1.195808e+01
4.873533e+01	-1.200536e+01
4.901682e+01	-1.205198e+01
4.929994e+01	-1.209921e+01
4.958470e+01	-1.214599e+01
4.987110e+01	-1.219354e+01
5.015915e+01	-1.223951e+01
5.044887e+01	-1.228756e+01
5.074026e+01	-1.233402e+01
5.103333e+01	-1.238150e+01
5.132810e+01	-1.242889e+01
5.162457e+01	-1.247533e+01
5.192275e+01	-1.252266e+01
5.222265e+01	-1.257037e+01
5.252429e+01	-1.261729e+01
5.282767e+01	-1.266423e+01
5.313280e+01	-1.271210e+01
5.343969e+01	-1.275882e+01
5.374836e+01	-1.280638e+01
5.405880e+01	-1.285421e+01
5.437105e+01	-1.290168e+01
5.468509e+01	-1.294887e+01
5.500095e+01	-1.299580e+01
5.531863e+01	-1.304417e+01
5.563815e+01	-1.309165e+01
5.595951e+01	-1.313931e+01
5.628273e+01	-1.318709e+01
5.660782e+01	-1.323465e+01
5.693479e+01	-1.328267e+01
5.726364e+01	-1.332972e+01
5.759439e+01	-1.337834e+01
5.792705e+01	-1.342543e+01
5.826164e+01	-1.347373e+01
5.859815e+01	-1.352040e+01
5.893662e+01	-1.356809e+01
5.927703e+01	-1.361629e+01
5.961941e+01	-1.366430e+01
5.996377e+01	-1.371233e+01
6.031012e+01	-1.375993e+01
6.065847e+01	-1.380773e+01
6.100883e+01	-1.385616e+01
6.136121e+01	-1.390360e+01
6.171563e+01	-1.395217e+01
6.207210e+01	-1.399939e+01
6.243063e+01	-1.404742e+01
6.279122e+01	-1.409624e+01
6.315390e+01	-1.414384e+01
6.351868e+01	-1.419192e+01
6.388556e+01	-1.424044e+01
6.425456e+01	-1.428791e+01
6.462569e+01	-1.433690e+01
6.499897e+01	-1.438471e+01
6.537440e+01	-1.443335e+01
6.575200e+01	-1.448111e+01
6.613178e+01	-1.452962e+01
6.651375e+01	-1.457862e+01
6.689793e+01	-1.462730e+01
6.728433e+01	-1.467538e+01
6.767297e+01	-1.472291e+01
6.806384e+01	-1.477177e+01
6.845698e+01	-1.481882e+01
6.885238e+01	-1.486794e+01
6.925007e+01	-1.491719e+01
6.965005e+01	-1.496555e+01
7.005235e+01	-1.501326e+01
7.045697e+01	-1.506242e+01
7.086393e+01	-1.511063e+01
7.127323e+01	-1.515877e+01
7.168490e+01	-1.520776e+01
7.209895e+01	-1.525547e+01
7.251539e+01	-1.530513e+01
7.293424e+01	-1.535369e+01
7.335551e+01	-1.540121e+01
7.377920e+01	-1.545021e+01
7.420535e+01	-1.549789e+01
7.463396e+01	-1.554678e+01
7.506504e+01	-1.559564e+01
7.549861e+01	-1.564396e+01
7.593469e+01	-1.569261e+01
7.637328e+01	-1.574218e+01
7.681441e+01	-1.579130e+01
7.725809e+01	-1.583901e+01
7.770433e+01	-1.588792e+01
7.815315e+01	-1.593644e+01
7.860456e+01	-1.598544e+01
7.905857e+01	-1.603405e+01
7.951521e+01	-1.608208e+01
7.997449e+01	-1.613170e+01
8.043642e+01	-1.618149e+01
8.090102e+01	-1.623007e+01
8.136830e+01	-1.627893e+01
8.183828e+01	-1.632757e+01
8.231097e+01	-1.637696e+01
8.278640e+01	-1.642399e+01
8.326457e+01	-1.647443e+01
8.374550e+01	-1.652210e+01
8.422921e+01	-1.657155e+01
8.471572e+01	-1.662008e+01
8.520503e+01	-1.667028e+01
8.569717e+01	-1.671837e+01
8.619215e+01	-1.676841e+01
8.669000e+01	-1.681655e+01
8.719071e+01	-1.686519e+01
8.769432e+01	-1.691448e+01
8.820084e+01	-1.696375e+01
8.871029e+01	-1.701254e+01
8.922267e+01	-1.706236e+01
8.973802e+01	-1.711155e+01
9.025634e+01	-1.716027e+01
9.077766e+01	-1.721003e+01
9.130199e+01	-1.725936e+01
9.182935e+01	-1.730670e+01
9.235975e+01	-1.735515e+01
9.289321e+01	-1.740592e+01
9.342976e+01	-1.745429e+01
9.396941e+01	-1.750319e+01
9.451217e+01	-1.755329e+01
9.505807e+01	-1.760177e+01
9.560712e+01	-1.765200e+01
9.615934e+01	-1.770000e+01
9.671476e+01	-1.774951e+01
9.727338e+01	-1.779879e+01
9.783522e+01	-1.784675e+01
9.840032e+01	-1.789669e+01
9.896867e+01	-1.794705e+01
9.954031e+01	-1.799566e+01
1.001153e+02	-1.804535e+01
1.006935e+02	-1.809392e+01
1.012751e+02	-1.814288e+01
1.018601e+02	-1.819286e+01
1.024484e+02	-1.824165e+01
1.030402e+02	-1.829187e+01
1.036353e+02	-1.834141e+01
1.042339e+02	-1.838924e+01
1.048360e+02	-1.843970e+01
1.054415e+02	-1.849007e+01
1.060505e+02	-1.853709e+01
1.066631e+02	-1.858698e+01
1.072791e+02	-1.863701e+01
1.078988e+02	-1.868604e+01
1.085220e+02	-1.873553e+01
1.091488e+02	-1.878350e+01
1.097793e+02	-1.883581e+01
1.104133e+02	-1.888325e+01
1.110511e+02	-1.893306e+01
1.116925e+02	-1.898177e+01
1.123376e+02	-1.903245e+01
1.129865e+02	-1.908067e+01
1.136391e+02	-1.913004e+01
1.142955e+02	-1.918022e+01
1.149556e+02	-1.922976e+01
1.156196e+02	-1.927786e+01
1.162874e+02	-1.932820e+01
1.169591e+02	-1.937748e+01
1.176347e+02	-1.942782e+01
1.183141e+02	-1.947696e+01
1.189975e+02	-1.952493e+01
1.196848e+02	-1.957691e+01
1.203761e+02	-1.962436e+01
1.210714e+02	-1.967490e+01
1.217707e+02	-1.972428e+01
1.224740e+02	-1.977297e+01
1.231814e+02	-1.982264e+01
1.238929e+02	-1.987247e+01
1.246085e+02	-1.992082e+01
1.253283e+02	-1.997017e+01
1.260522e+02	-2.002023e+01
1.267802e+02	-2.007092e+01
1.275125e+02	-2.012071e+01
1.282490e+02	-2.016924e+01
1.289898e+02	-2.021743e+01
1.297348e+02	-2.026858e+01
1.304842e+02	-2.031824e+01
1.312378e+02	-2.036811e+01
1.319959e+02	-2.041760e+01
1.327583e+02	-2.046758e+01
1.335251e+02	-2.051772e+01
1.342963e+02	-2.056625e+01
1.350720e+02	-2.061742e+01
1.358522e+02	-2.066478e+01
1.366368e+02	-2.071526e+01
1.374260e+02	-2.076398e+01
1.382198e+02	-2.081403e+01
1.390182e+02	-2.086402e+01
1.398211e+02	-2.091344e+01
1.406287e+02	-2.096179e+01
1.414410e+02	-2.101345e+01
1.422579e+02	-2.106180e+01
1.430796e+02	-2.111179e+01
1.439060e+02	-2.116416e+01
1.447372e+02	-2.120995e+01
1.455732e+02	-2.126110e+01
1.464141e+02	-2.131138e+01
1.472597e+02	-2.136210e+01
1.481103e+02	-2.141005e+01
1.489658e+02	-2.145918e+01
1.498262e+02	-2.150958e+01
1.506916e+02	-2.155926e+01
1.515620e+02	-2.160964e+01
1.524374e+02	-2.165904e+01
1.533179e+02	-2.170769e+01
1.542034e+02	-2.175792e+01
1.550941e+02	-2.180732e+01
1.559899e+02	-2.185739e+01
1.568909e+02	-2.190742e+01
1.577971e+02	-2.195951e+01
1.587085e+02	-2.200598e+01
1.596252e+02	-2.205496e+01
1.605472e+02	-2.210547e+01
1.614745e+02	-2.215820e+01
1.624072e+02	-2.220644e+01
1.633453e+02	-2.225545e+01
1.642887e+02	-2.230632e+01
1.652377e+02	-2.235575e+01
1.661921e+02	-2.240428e+01
1.671520e+02	-2.245328e+01
1.681175e+02	-2.250369e+01
1.690885e+02	-2.255371e+01
1.700651e+02	-2.260319e+01
1.710474e+02	-2.265352e+01
1.720354e+02	-2.270303e+01
1.730291e+02	-2.275463e+01
1.740285e+02	-2.280145e+01
1.750337e+02	-2.285190e+01
1.760446e+02	-2.290205e+01
1.770615e+02	-2.295325e+01
1.780842e+02	-2.300123e+01
1.791128e+02	-2.305021e+01
1.801473e+02	-2.310119e+01
1.811878e+02	-2.315120e+01
1.822344e+02	-2.320168e+01
1.832870e+02	-2.325042e+01
1.843456e+02	-2.330081e+01
1.854104e+02	-2.335115e+01
1.864813e+02	-2.340087e+01
1.875584e+02	-2.345207e+01
1.886418e+02	-2.350029e+01
1.897313e+02	-2.354811e+01
1.908272e+02	-2.360269e+01
1.919294e+02	-2.365039e+01
1.930380e+02	-2.369839e+01
1.941530e+02	-2.374891e+01
1.952744e+02	-2.379977e+01
1.964023e+02	-2.384950e+01
1.975367e+02	-2.389905e+01
1.986777e+02	-2.394696e+01
1.998252e+02	-2.399753e+01
2.009794e+02	-2.404794e+01
2.021403e+02	-2.409819e+01
2.033078e+02	-2.415138e+01
2.044821e+02	-2.419775e+01
2.056632e+02	-2.424800e+01
2.068511e+02	-2.429651e+01
2.080459e+02	-2.434732e+01
2.092475e+02	-2.439782e+01
2.104561e+02	-2.444786e+01
2.116717e+02	-2.449746e+01
2.128943e+02	-2.454685e+01
2.141240e+02	-2.459403e+01
2.153608e+02	-2.464656e+01
2.166047e+02	-2.469904e+01
2.178558e+02	-2.474729e+01
2.191141e+02	-2.479510e+01
2.203797e+02	-2.484540e+01
2.216526e+02	-2.489517e+01
2.229329e+02	-2.494573e+01
2.242205e+02	-2.499488e+01
2.255156e+02	-2.504840e+01
2.268182e+02	-2.509598e+01
2.281283e+02	-2.514773e+01
2.294459e+02	-2.519260e+01
2.307712e+02	-2.524702e+01
2.321041e+02	-2.529559e+01
2.334447e+02	-2.534526e+01
2.347931e+02	-2.539728e+01
2.361493e+02	-2.544928e+01
2.375133e+02	-2.549574e+01
2.388851e+02	-2.554961e+01
2.402649e+02	-2.559464e+01
2.416527e+02	-2.564320e+01
2.430484e+02	-2.569761e+01
2.444523e+02	-2.574226e+01
2.458642e+02	-2.579505e+01
2.472843e+02	-2.584533e+01
2.487126e+02	-2.589300e+01
2.501492e+02	-2.594560e+01
2.515940e+02	-2.599444e+01
2.530472e+02	-2.604603e+01
2.545088e+02	-2.609245e+01
2.559789e+02	-2.614447e+01
2.574574e+02	-2.619491e+01
2.589444e+02	-2.624535e+01
2.604401e+02	-2.629407e+01
2.619444e+02	-2.634713e+01
2.634574e+02	-2.639608e+01
2.649791e+02	-2.644404e+01
2.665096e+02	-2.649597e+01
2.680489e+02	-2.654571e+01
2.695972e+02	-2.659380e+01
2.711544e+02	-2.664693e+01
2.727205e+02	-2.669410e+01
2.742958e+02	-2.674478e+01
2.758801e+02	-2.679393e+01
2.774736e+02	-2.684542e+01
2.790762e+02	-2.689501e+01
2.806882e+02	-2.694438e+01
2.823094e+02	-2.699524e+01
2.839400e+02	-2.704454e+01
2.855800e+02	-2.709343e+01
2.872295e+02	-2.714332e+01
2.888886e+02	-2.719521e+01
2.905572e+02	-2.724587e+01
2.922354e+02	-2.729930e+01
2.939234e+02	-2.734254e+01
2.956211e+02	-2.739250e+01
2.973286e+02	-2.744248e+01
2.990459e+02	-2.749286e+01
3.007732e+02	-2.754622e+01
3.025104e+02	-2.759465e+01
3.042577e+02	-2.764494e+01
3.060151e+02	-2.769162e+01
3.077826e+02	-2.774480e+01
3.095604e+02	-2.779602e+01
3.113484e+02	-2.784080e+01
3.131467e+02	-2.789109e+01
3.149554e+02	-2.793947e+01
3.167746e+02	-2.799700e+01
3.186043e+02	-2.804421e+01
3.204445e+02	-2.809304e+01
3.222954e+02	-2.814074e+01
3.241570e+02	-2.819333e+01
3.260293e+02	-2.824497e+01
3.279124e+02	-2.829579e+01
3.298064e+02	-2.834384e+01
3.317114e+02	-2.839518e+01
3.336273e+02	-2.844460e+01
3.355544e+02	-2.849478e+01
3.374925e+02	-2.854230e+01
3.394418e+02	-2.859162e+01
3.414024e+02	-2.864225e+01
3.433744e+02	-2.869714e+01
3.453577e+02	-2.874412e+01
3.473525e+02	-2.879468e+01
3.493588e+02	-2.884658e+01
3.513766e+02	-2.889684e+01
3.534062e+02	-2.894396e+01
3.554474e+02	-2.899102e+01
3.575005e+02	-2.904214e+01
3.595654e+02	-2.909473e+01
3.616422e+02	-2.914271e+01
3.637311e+02	-2.919644e+01
3.658320e+02	-2.924189e+01
3.679450e+02	-2.929637e+01
3.700702e+02	-2.934402e+01
3.722077e+02	-2.939795e+01
3.743576e+02	-2.944663e+01
3.765199e+02	-2.949486e+01
3.786946e+02	-2.954722e+01
3.808820e+02	-2.959180e+01
3.830819e+02	-2.964757e+01
3.852946e+02	-2.969526e+01
3.875200e+02	-2.974499e+01
3.897583e+02	-2.979696e+01
3.920096e+02	-2.984473e+01
3.942738e+02	-2.989988e+01
3.965511e+02	-2.995045e+01
3.988416e+02	-2.999071e+01
4.011452e+02	-3.004514e+01
4.034622e+02	-3.009834e+01
4.057926e+02	-3.014734e+01
4.081365e+02	-3.019305e+01
4.104938e+02	-3.024291e+01
4.128648e+02	-3.030316e+01
4.152495e+02	-3.034892e+01
4.176480e+02	-3.039382e+01
4.200603e+02	-3.044984e+01
4.224866e+02	-3.050033e+01
4.249268e+02	-3.054676e+01
4.273812e+02	-3.059409e+01
4.298497e+02	-3.064722e+01
4.323325e+02	-3.069530e+01
4.348297e+02	-3.074723e+01
4.373412e+02	-3.079441e+01
4.398673e+02	-3.084610e+01
4.424079e+02	-3.089354e+01
4.449633e+02	-3.094087e+01
4.475334e+02	-3.100217e+01
4.501183e+02	-3.105022e+01
4.527182e+02	-3.110420e+01
4.553330e+02	-3.114672e+01
4.579630e+02	-3.119768e+01
4.606082e+02	-3.125255e+01
4.632687e+02	-3.130059e+01
4.659445e+02	-3.134533e+01
4.686358e+02	-3.140308e+01
4.713426e+02	-3.144886e+01
4.740650e+02	-3.150417e+01
4.768032e+02	-3.155331e+01
4.795572e+02	-3.160139e+01
4.823271e+02	-3.165272e+01
4.851130e+02	-3.170023e+01
4.879150e+02	-3.174900e+01
4.907332e+02	-3.180204e+01
4.935676e+02	-3.185268e+01
4.964185e+02	-3.190556e+01
4.992858e+02	-3.195208e+01
5.021696e+02	-3.200170e+01
5.050701e+02	-3.204859e+01
5.079874e+02	-3.210252e+01
5.109215e+02	-3.215318e+01
5.138726e+02	-3.220301e+01
5.168407e+02	-3.225423e+01
5.198259e+02	-3.231042e+01
5.228284e+02	-3.234551e+01
5.258482e+02	-3.240558e+01
5.288855e+02	-3.245359e+01
5.319403e+02	-3.250702e+01
5.350128e+02	-3.256028e+01
5.381030e+02	-3.260053e+01
5.412111e+02	-3.265327e+01
5.443371e+02	-3.270279e+01
5.474812e+02	-3.275619e+01
5.506434e+02	-3.279958e+01
5.538239e+02	-3.284840e+01
5.570228e+02	-3.290157e+01
5.602401e+02	-3.295975e+01
5.634760e+02	-3.300649e+01
5.667306e+02	-3.306006e+01
5.700040e+02	-3.310469e+01
5.732964e+02	-3.316212e+01
5.766077e+02	-3.320475e+01
5.799382e+02	-3.325839e+01
5.832879e+02	-3.330377e+01
5.866569e+02	-3.335808e+01
5.900454e+02	-3.340228e+01
5.934535e+02	-3.345850e+01
5.968813e+02	-3.351506e+01
6.003288e+02	-3.356324e+01
6.037963e+02	-3.361269e+01
6.072838e+02	-3.366619e+01
6.107914e+02	-3.372066e+01
6.143194e+02	-3.376770e+01
6.178676e+02	-3.380850e+01
6.214364e+02	-3.385816e+01
6.250258e+02	-3.390967e+01
6.286359e+02	-3.395923e+01
6.322669e+02	-3.401337e+01
6.359189e+02	-3.406540e+01
6.395919e+02	-3.411292e+01
6.432862e+02	-3.416199e+01
6.470017e+02	-3.420648e+01
6.507388e+02	-3.427006e+01
6.544974e+02	-3.431202e+01
6.582778e+02	-3.435933e+01
6.620800e+02	-3.441937e+01
6.659041e+02	-3.446895e+01
6.697504e+02	-3.451058e+01
6.736188e+02	-3.456940e+01
6.775096e+02	-3.462421e+01
6.814229e+02	-3.466694e+01
6.853587e+02	-3.471545e+01
6.893173e+02	-3.476942e+01
6.932988e+02	-3.481351e+01
6.973033e+02	-3.486628e+01
7.013309e+02	-3.492890e+01
