Frequency(Hz)	Magnitude(dB)
1.000000e+01	-2.279059e+00
1.005776e+01	-2.299496e+00
1.011585e+01	-2.320136e+00
1.017428e+01	-2.340962e+00
1.023305e+01	-2.362011e+00
1.029215e+01	-2.383066e+00
1.035160e+01	-2.404281e+00
1.041139e+01	-2.425408e+00
1.047153e+01	-2.447046e+00
1.053201e+01	-2.468536e+00
1.059284e+01	-2.490530e+00
1.065403e+01	-2.512382e+00
1.071556e+01	-2.534245e+00
1.077746e+01	-2.556452e+00
1.083971e+01	-2.578814e+00
1.090232e+01	-2.601153e+00
1.096529e+01	-2.623857e+00
1.102862e+01	-2.646641e+00
1.109232e+01	-2.669658e+00
1.115639e+01	-2.692566e+00
1.122083e+01	-2.715666e+00
1.128564e+01	-2.739215e+00
1.135083e+01	-2.762712e+00
1.141639e+01	-2.785930e+00
1.148233e+01	-2.810280e+00
1.154865e+01	-2.833830e+00
1.161536e+01	-2.858094e+00
1.168245e+01	-2.881992e+00
1.174992e+01	-2.906252e+00
1.181779e+01	-2.930947e+00
1.188605e+01	-2.955684e+00
1.195470e+01	-2.980342e+00
1.202375e+01	-3.005346e+00
1.209320e+01	-3.030422e+00
1.216305e+01	-3.055678e+00
1.223330e+01	-3.080896e+00
1.230396e+01	-3.106304e+00
1.237503e+01	-3.131764e+00
1.244651e+01	-3.157636e+00
1.251840e+01	-3.183449e+00
1.259070e+01	-3.209669e+00
1.266343e+01	-3.236171e+00
1.273657e+01	-3.262396e+00
1.281014e+01	-3.288818e+00
1.288413e+01	-3.315477e+00
1.295855e+01	-3.342178e+00
1.303339e+01	-3.369166e+00
1.310867e+01	-3.396340e+00
1.318439e+01	-3.423409e+00
1.326054e+01	-3.450875e+00
1.333713e+01	-3.478270e+00
1.341417e+01	-3.505942e+00
1.349165e+01	-3.533481e+00
1.356958e+01	-3.561548e+00
1.364795e+01	-3.589390e+00
1.372678e+01	-3.617876e+00
1.380607e+01	-3.646402e+00
1.388581e+01	-3.674688e+00
1.396602e+01	-3.703195e+00
1.404668e+01	-3.731873e+00
1.412782e+01	-3.760967e+00
1.420942e+01	-3.790021e+00
1.429149e+01	-3.819376e+00
1.437404e+01	-3.848607e+00
1.445706e+01	-3.878049e+00
1.454057e+01	-3.907568e+00
1.462455e+01	-3.937442e+00
1.470902e+01	-3.967528e+00
1.479398e+01	-3.997431e+00
1.487943e+01	-4.027580e+00
1.496537e+01	-4.058053e+00
1.505181e+01	-4.088185e+00
1.513875e+01	-4.118889e+00
1.522619e+01	-4.149422e+00
1.531414e+01	-4.180493e+00
1.540259e+01	-4.211358e+00
1.549156e+01	-4.242607e+00
1.558103e+01	-4.273938e+00
1.567103e+01	-4.305420e+00
1.576155e+01	-4.336677e+00
1.585258e+01	-4.368459e+00
1.594415e+01	-4.399881e+00
1.603624e+01	-4.432356e+00
1.612886e+01	-4.464335e+00
1.622202e+01	-4.496153e+00
1.631572e+01	-4.528486e+00
1.640996e+01	-4.561062e+00
1.650474e+01	-4.593647e+00
1.660008e+01	-4.626405e+00
1.669596e+01	-4.659279e+00
1.679239e+01	-4.692213e+00
1.688938e+01	-4.725436e+00
1.698694e+01	-4.758702e+00
1.708505e+01	-4.792025e+00
1.718373e+01	-4.825427e+00
1.728299e+01	-4.859386e+00
1.738281e+01	-4.892896e+00
1.748322e+01	-4.926717e+00
1.758420e+01	-4.960774e+00
1.768576e+01	-4.994916e+00
1.778792e+01	-5.029270e+00
1.789066e+01	-5.063614e+00
1.799399e+01	-5.098054e+00
1.809793e+01	-5.132754e+00
1.820246e+01	-5.167323e+00
1.830760e+01	-5.202336e+00
1.841334e+01	-5.237167e+00
1.851969e+01	-5.272191e+00
1.862666e+01	-5.307673e+00
1.873425e+01	-5.342653e+00
1.884246e+01	-5.378446e+00
1.895129e+01	-5.413731e+00
1.906075e+01	-5.449718e+00
1.917085e+01	-5.485482e+00
1.928158e+01	-5.521333e+00
1.939295e+01	-5.557638e+00
1.950496e+01	-5.593326e+00
1.961762e+01	-5.629811e+00
1.973093e+01	-5.666410e+00
1.984490e+01	-5.702862e+00
1.995952e+01	-5.739546e+00
2.007480e+01	-5.776017e+00
2.019076e+01	-5.812913e+00
2.030738e+01	-5.850133e+00
2.042467e+01	-5.887240e+00
2.054264e+01	-5.924215e+00
2.066130e+01	-5.961785e+00
2.078064e+01	-5.998697e+00
2.090066e+01	-6.036701e+00
2.102139e+01	-6.074144e+00
2.114280e+01	-6.111759e+00
2.126492e+01	-6.149654e+00
2.138775e+01	-6.187480e+00
2.151128e+01	-6.225436e+00
2.163553e+01	-6.263332e+00
2.176050e+01	-6.302064e+00
2.188619e+01	-6.340036e+00
2.201260e+01	-6.378829e+00
2.213974e+01	-6.417373e+00
2.226762e+01	-6.455558e+00
2.239624e+01	-6.494686e+00
2.252560e+01	-6.533665e+00
2.265571e+01	-6.572906e+00
2.278656e+01	-6.611719e+00
2.291818e+01	-6.650980e+00
2.305055e+01	-6.690034e+00
2.318369e+01	-6.729258e+00
2.331760e+01	-6.768810e+00
2.345228e+01	-6.808562e+00
2.358774e+01	-6.847960e+00
2.372398e+01	-6.888050e+00
2.386101e+01	-6.927704e+00
2.399883e+01	-6.967425e+00
2.413745e+01	-7.007517e+00
2.427686e+01	-7.047602e+00
2.441709e+01	-7.087963e+00
2.455812e+01	-7.128057e+00
2.469997e+01	-7.168585e+00
2.484263e+01	-7.209062e+00
2.498612e+01	-7.249238e+00
2.513044e+01	-7.290506e+00
2.527559e+01	-7.330916e+00
2.542158e+01	-7.371628e+00
2.556842e+01	-7.412815e+00
2.571610e+01	-7.453615e+00
2.586463e+01	-7.494728e+00
2.601403e+01	-7.535800e+00
2.616428e+01	-7.577195e+00
2.631541e+01	-7.618866e+00
2.646740e+01	-7.660005e+00
2.662028e+01	-7.701337e+00
2.677404e+01	-7.742735e+00
2.692868e+01	-7.784297e+00
2.708422e+01	-7.826667e+00
2.724066e+01	-7.868479e+00
2.739800e+01	-7.909929e+00
2.755625e+01	-7.952240e+00
2.771541e+01	-7.993998e+00
2.787550e+01	-8.036053e+00
2.803650e+01	-8.078194e+00
2.819844e+01	-8.120805e+00
2.836131e+01	-8.162629e+00
2.852513e+01	-8.205597e+00
2.868989e+01	-8.248041e+00
2.885560e+01	-8.290528e+00
2.902227e+01	-8.333373e+00
2.918990e+01	-8.375924e+00
2.935850e+01	-8.418616e+00
2.952807e+01	-8.461976e+00
2.969863e+01	-8.504455e+00
2.987016e+01	-8.547368e+00
3.004269e+01	-8.590366e+00
3.021622e+01	-8.633548e+00
3.039075e+01	-8.676633e+00
3.056628e+01	-8.720030e+00
3.074283e+01	-8.763400e+00
3.092040e+01	-8.807212e+00
3.109900e+01	-8.850219e+00
3.127862e+01	-8.893798e+00
3.145929e+01	-8.937645e+00
3.164099e+01	-8.981149e+00
3.182375e+01	-9.025212e+00
3.200756e+01	-9.068452e+00
3.219244e+01	-9.113298e+00
3.237838e+01	-9.156440e+00
3.256540e+01	-9.200539e+00
3.275349e+01	-9.244951e+00
3.294268e+01	-9.288802e+00
3.313295e+01	-9.333006e+00
3.332433e+01	-9.376982e+00
3.351681e+01	-9.421205e+00
3.371040e+01	-9.465473e+00
3.390511e+01	-9.510051e+00
3.410094e+01	-9.554585e+00
3.429791e+01	-9.598522e+00
3.449601e+01	-9.643928e+00
3.469526e+01	-9.688098e+00
3.489566e+01	-9.732476e+00
3.509721e+01	-9.777475e+00
3.529993e+01	-9.822849e+00
3.550382e+01	-9.867490e+00
3.570889e+01	-9.912253e+00
3.591515e+01	-9.956345e+00
3.612259e+01	-1.000249e+01
3.633123e+01	-1.004740e+01
3.654108e+01	-1.009238e+01
3.675214e+01	-1.013770e+01
3.696442e+01	-1.018171e+01
3.717792e+01	-1.022797e+01
3.739266e+01	-1.027259e+01
3.760864e+01	-1.031883e+01
3.782587e+01	-1.036338e+01
3.804435e+01	-1.040945e+01
3.826409e+01	-1.045531e+01
3.848510e+01	-1.050060e+01
3.870739e+01	-1.054636e+01
3.893096e+01	-1.059149e+01
3.915583e+01	-1.063675e+01
3.938199e+01	-1.068257e+01
3.960946e+01	-1.072855e+01
3.983824e+01	-1.077477e+01
4.006834e+01	-1.082036e+01
4.029978e+01	-1.086641e+01
4.053255e+01	-1.091227e+01
4.076666e+01	-1.095825e+01
4.100213e+01	-1.100466e+01
4.123896e+01	-1.105017e+01
4.147715e+01	-1.109670e+01
4.171672e+01	-1.114268e+01
4.195767e+01	-1.118894e+01
4.220002e+01	-1.123506e+01
4.244377e+01	-1.128171e+01
4.268892e+01	-1.132785e+01
4.293549e+01	-1.137393e+01
4.318348e+01	-1.142005e+01
4.343291e+01	-1.146726e+01
4.368377e+01	-1.151399e+01
4.393609e+01	-1.156041e+01
4.418986e+01	-1.160641e+01
4.444510e+01	-1.165319e+01
4.470182e+01	-1.169987e+01
4.496001e+01	-1.174613e+01
4.521970e+01	-1.179344e+01
4.548089e+01	-1.183991e+01
4.574358e+01	-1.188675e+01
4.600779e+01	-1.193331e+01
4.627353e+01	-1.198049e+01
4.654081e+01	-1.202754e+01
4.680963e+01	-1.207415e+01
4.708000e+01	-1.212102e+01
4.735193e+01	-1.216801e+01
4.762543e+01	-1.221471e+01
4.790051e+01	-1.226168e+01
4.817719e+01	-1.230898e+01
4.845545e+01	-1.235623e+01
4.873533e+01	-1.240424e+01
4.901682e+01	-1.245038e+01
4.929994e+01	-1.249802e+01
4.958470e+01	-1.254496e+01
4.987110e+01	-1.259247e+01
5.015915e+01	-1.263942e+01
5.044887e+01	-1.268711e+01
5.074026e+01	-1.273435e+01
5.103333e+01	-1.278128e+01
5.132810e+01	-1.282908e+01
5.162457e+01	-1.287683e+01
5.192275e+01	-1.292367e+01
5.222265e+01	-1.297204e+01
5.252429e+01	-1.301904e+01
5.282767e+01	-1.306651e+01
5.313280e+01	-1.311410e+01
5.343969e+01	-1.316137e+01
5.374836e+01	-1.320939e+01
5.405880e+01	-1.325626e+01
5.437105e+01	-1.330375e+01
5.468509e+01	-1.335189e+01
5.500095e+01	-1.339932e+01
5.531863e+01	-1.344749e+01
5.563815e+01	-1.349527e+01
5.595951e+01	-1.354358e+01
5.628273e+01	-1.359114e+01
5.660782e+01	-1.363783e+01
5.693479e+01	-1.368649e+01
5.726364e+01	-1.373456e+01
5.759439e+01	-1.378222e+01
5.792705e+01	-1.382973e+01
5.826164e+01	-1.387851e+01
5.859815e+01	-1.392687e+01
5.893662e+01	-1.397444e+01
5.927703e+01	-1.402275e+01
5.961941e+01	-1.407016e+01
5.996377e+01	-1.411824e+01
6.031012e+01	-1.416771e+01
6.065847e+01	-1.421511e+01
6.100883e+01	-1.426326e+01
6.136121e+01	-1.431165e+01
6.171563e+01	-1.435872e+01
6.207210e+01	-1.440748e+01
6.243063e+01	-1.445568e+01
6.279122e+01	-1.450433e+01
6.315390e+01	-1.455345e+01
6.351868e+01	-1.460073e+01
6.388556e+01	-1.464903e+01
6.425456e+01	-1.469728e+01
6.462569e+01	-1.474556e+01
6.499897e+01	-1.479332e+01
6.537440e+01	-1.484192e+01
6.575200e+01	-1.489092e+01
6.613178e+01	-1.493954e+01
6.651375e+01	-1.498851e+01
6.689793e+01	-1.503620e+01
6.728433e+01	-1.508494e+01
6.767297e+01	-1.513359e+01
6.806384e+01	-1.518165e+01
6.845698e+01	-1.522970e+01
6.885238e+01	-1.527867e+01
6.925007e+01	-1.532661e+01
6.965005e+01	-1.537647e+01
7.005235e+01	-1.542429e+01
7.045697e+01	-1.547352e+01
7.086393e+01	-1.552137e+01
7.127323e+01	-1.557004e+01
7.168490e+01	-1.561936e+01
7.209895e+01	-1.566678e+01
7.251539e+01	-1.571593e+01
7.293424e+01	-1.576502e+01
7.335551e+01	-1.581341e+01
7.377920e+01	-1.586198e+01
7.420535e+01	-1.591054e+01
7.463396e+01	-1.595990e+01
7.506504e+01	-1.600855e+01
7.549861e+01	-1.605705e+01
7.593469e+01	-1.610599e+01
7.637328e+01	-1.615495e+01
7.681441e+01	-1.620455e+01
7.725809e+01	-1.625274e+01
7.770433e+01	-1.630171e+01
7.815315e+01	-1.635085e+01
7.860456e+01	-1.639918e+01
7.905857e+01	-1.644847e+01
7.951521e+01	-1.649592e+01
7.997449e+01	-1.654492e+01
8.043642e+01	-1.659558e+01
8.090102e+01	-1.664339e+01
8.136830e+01	-1.669365e+01
8.183828e+01	-1.674261e+01
8.231097e+01	-1.679084e+01
8.278640e+01	-1.683974e+01
8.326457e+01	-1.688848e+01
8.374550e+01	-1.693820e+01
8.422921e+01	-1.698667e+01
8.471572e+01	-1.703642e+01
8.520503e+01	-1.708602e+01
8.569717e+01	-1.713273e+01
8.619215e+01	-1.718148e+01
8.669000e+01	-1.723160e+01
8.719071e+01	-1.728059e+01
8.769432e+01	-1.732950e+01
8.820084e+01	-1.737997e+01
8.871029e+01	-1.742764e+01
8.922267e+01	-1.747736e+01
8.973802e+01	-1.752798e+01
9.025634e+01	-1.757637e+01
9.077766e+01	-1.762520e+01
9.130199e+01	-1.767434e+01
9.182935e+01	-1.772348e+01
9.235975e+01	-1.777241e+01
9.289321e+01	-1.782093e+01
9.342976e+01	-1.787164e+01
9.396941e+01	-1.792134e+01
9.451217e+01	-1.796882e+01
9.505807e+01	-1.801866e+01
9.560712e+01	-1.806738e+01
9.615934e+01	-1.811631e+01
9.671476e+01	-1.816650e+01
9.727338e+01	-1.821618e+01
9.783522e+01	-1.826520e+01
9.840032e+01	-1.831518e+01
9.896867e+01	-1.836447e+01
9.954031e+01	-1.841205e+01
1.001153e+02	-1.846218e+01
1.006935e+02	-1.851118e+01
1.012751e+02	-1.856125e+01
1.018601e+02	-1.861054e+01
1.024484e+02	-1.865999e+01
1.030402e+02	-1.870990e+01
1.036353e+02	-1.875713e+01
1.042339e+02	-1.880759e+01
1.048360e+02	-1.885777e+01
1.054415e+02	-1.890776e+01
1.060505e+02	-1.895691e+01
1.066631e+02	-1.900604e+01
1.072791e+02	-1.905523e+01
1.078988e+02	-1.910402e+01
1.085220e+02	-1.915408e+01
1.091488e+02	-1.920322e+01
1.097793e+02	-1.925388e+01
1.104133e+02	-1.930154e+01
1.110511e+02	-1.935141e+01
1.116925e+02	-1.940077e+01
1.123376e+02	-1.945037e+01
1.129865e+02	-1.949997e+01
1.136391e+02	-1.955022e+01
1.142955e+02	-1.959918e+01
1.149556e+02	-1.964725e+01
1.156196e+02	-1.969777e+01
1.162874e+02	-1.974700e+01
1.169591e+02	-1.979699e+01
1.176347e+02	-1.984611e+01
1.183141e+02	-1.989651e+01
1.189975e+02	-1.994550e+01
1.196848e+02	-1.999423e+01
1.203761e+02	-2.004402e+01
1.210714e+02	-2.009609e+01
1.217707e+02	-2.014257e+01
1.224740e+02	-2.019234e+01
1.231814e+02	-2.024237e+01
1.238929e+02	-2.029107e+01
1.246085e+02	-2.034068e+01
1.253283e+02	-2.039008e+01
1.260522e+02	-2.044224e+01
1.267802e+02	-2.048928e+01
1.275125e+02	-2.053835e+01
1.282490e+02	-2.058841e+01
1.289898e+02	-2.063957e+01
1.297348e+02	-2.068849e+01
1.304842e+02	-2.073711e+01
1.312378e+02	-2.078939e+01
1.319959e+02	-2.083532e+01
1.327583e+02	-2.088557e+01
1.335251e+02	-2.093726e+01
1.342963e+02	-2.098584e+01
1.350720e+02	-2.103746e+01
1.358522e+02	-2.108551e+01
1.366368e+02	-2.113508e+01
1.374260e+02	-2.118568e+01
1.382198e+02	-2.123454e+01
1.390182e+02	-2.128448e+01
1.398211e+02	-2.133364e+01
1.406287e+02	-2.138220e+01
1.414410e+02	-2.143402e+01
1.422579e+02	-2.148280e+01
1.430796e+02	-2.153353e+01
1.439060e+02	-2.158219e+01
1.447372e+02	-2.163115e+01
1.455732e+02	-2.168361e+01
1.464141e+02	-2.173054e+01
1.472597e+02	-2.178184e+01
1.481103e+02	-2.183053e+01
1.489658e+02	-2.188095e+01
1.498262e+02	-2.193243e+01
1.506916e+02	-2.197956e+01
1.515620e+02	-2.203024e+01
1.524374e+02	-2.207943e+01
1.533179e+02	-2.212879e+01
1.542034e+02	-2.217960e+01
1.550941e+02	-2.223009e+01
1.559899e+02	-2.227600e+01
1.568909e+02	-2.232838e+01
1.577971e+02	-2.237847e+01
1.587085e+02	-2.242872e+01
1.596252e+02	-2.247932e+01
1.605472e+02	-2.252860e+01
1.614745e+02	-2.257775e+01
1.624072e+02	-2.262724e+01
1.633453e+02	-2.267645e+01
1.642887e+02	-2.272672e+01
1.652377e+02	-2.277568e+01
1.661921e+02	-2.282446e+01
1.671520e+02	-2.287519e+01
1.681175e+02	-2.292420e+01
1.690885e+02	-2.297486e+01
1.700651e+02	-2.302569e+01
1.710474e+02	-2.307587e+01
1.720354e+02	-2.312330e+01
1.730291e+02	-2.317497e+01
1.740285e+02	-2.322195e+01
1.750337e+02	-2.327505e+01
1.760446e+02	-2.332378e+01
1.770615e+02	-2.337540e+01
1.780842e+02	-2.342099e+01
1.791128e+02	-2.347219e+01
1.801473e+02	-2.352322e+01
1.811878e+02	-2.357321e+01
1.822344e+02	-2.362232e+01
1.832870e+02	-2.367391e+01
1.843456e+02	-2.372203e+01
1.854104e+02	-2.377236e+01
1.864813e+02	-2.381973e+01
1.875584e+02	-2.387334e+01
1.886418e+02	-2.392250e+01
1.897313e+02	-2.397069e+01
1.908272e+02	-2.402339e+01
1.919294e+02	-2.407080e+01
1.930380e+02	-2.412211e+01
1.941530e+02	-2.416866e+01
1.952744e+02	-2.422041e+01
1.964023e+02	-2.427092e+01
1.975367e+02	-2.432065e+01
1.986777e+02	-2.437198e+01
1.998252e+02	-2.442047e+01
2.009794e+02	-2.447206e+01
2.021403e+02	-2.452060e+01
2.033078e+02	-2.456908e+01
2.044821e+02	-2.462168e+01
2.056632e+02	-2.466970e+01
2.068511e+02	-2.471676e+01
2.080459e+02	-2.477087e+01
2.092475e+02	-2.482013e+01
2.104561e+02	-2.486850e+01
2.116717e+02	-2.492297e+01
2.128943e+02	-2.497058e+01
2.141240e+02	-2.502157e+01
2.153608e+02	-2.507161e+01
2.166047e+02	-2.512004e+01
2.178558e+02	-2.517063e+01
2.191141e+02	-2.521870e+01
2.203797e+02	-2.526839e+01
2.216526e+02	-2.531681e+01
2.229329e+02	-2.536413e+01
2.242205e+02	-2.541893e+01
2.255156e+02	-2.547076e+01
2.268182e+02	-2.551732e+01
2.281283e+02	-2.556807e+01
2.294459e+02	-2.561711e+01
2.307712e+02	-2.566770e+01
2.321041e+02	-2.571729e+01
2.334447e+02	-2.576964e+01
2.347931e+02	-2.581702e+01
2.361493e+02	-2.586815e+01
2.375133e+02	-2.592027e+01
2.388851e+02	-2.597009e+01
2.402649e+02	-2.601673e+01
2.416527e+02	-2.606472e+01
2.430484e+02	-2.611718e+01
2.444523e+02	-2.616971e+01
2.458642e+02	-2.621656e+01
2.472843e+02	-2.627008e+01
2.487126e+02	-2.631846e+01
2.501492e+02	-2.636893e+01
2.515940e+02	-2.641870e+01
2.530472e+02	-2.646584e+01
2.545088e+02	-2.652075e+01
2.559789e+02	-2.656703e+01
2.574574e+02	-2.661205e+01
2.589444e+02	-2.666595e+01
2.604401e+02	-2.671657e+01
2.619444e+02	-2.677002e+01
2.634574e+02	-2.681629e+01
2.649791e+02	-2.686650e+01
2.665096e+02	-2.691778e+01
2.680489e+02	-2.696794e+01
2.695972e+02	-2.701696e+01
2.711544e+02	-2.706405e+01
2.727205e+02	-2.711669e+01
2.742958e+02	-2.716689e+01
2.758801e+02	-2.721787e+01
2.774736e+02	-2.726899e+01
2.790762e+02	-2.731775e+01
2.806882e+02	-2.736730e+01
2.823094e+02	-2.742020e+01
2.839400e+02	-2.746851e+01
2.855800e+02	-2.751485e+01
2.872295e+02	-2.756711e+01
2.888886e+02	-2.762077e+01
2.905572e+02	-2.766832e+01
2.922354e+02	-2.771742e+01
2.939234e+02	-2.776666e+01
2.956211e+02	-2.781694e+01
2.973286e+02	-2.786666e+01
2.990459e+02	-2.791446e+01
3.007732e+02	-2.796691e+01
3.025104e+02	-2.801861e+01
3.042577e+02	-2.806459e+01
3.060151e+02	-2.811782e+01
3.077826e+02	-2.816516e+01
3.095604e+02	-2.821793e+01
3.113484e+02	-2.827310e+01
3.131467e+02	-2.831448e+01
3.149554e+02	-2.836690e+01
3.167746e+02	-2.841870e+01
3.186043e+02	-2.846903e+01
3.204445e+02	-2.851986e+01
3.222954e+02	-2.856614e+01
3.241570e+02	-2.861639e+01
3.260293e+02	-2.866757e+01
3.279124e+02	-2.871513e+01
3.298064e+02	-2.876893e+01
3.317114e+02	-2.881517e+01
3.336273e+02	-2.886742e+01
3.355544e+02	-2.891530e+01
3.374925e+02	-2.896849e+01
3.394418e+02	-2.901790e+01
3.414024e+02	-2.906794e+01
3.433744e+02	-2.911535e+01
3.453577e+02	-2.916935e+01
3.473525e+02	-2.922361e+01
3.493588e+02	-2.926898e+01
3.513766e+02	-2.931753e+01
3.534062e+02	-2.936879e+01
3.554474e+02	-2.941710e+01
3.575005e+02	-2.946755e+01
3.595654e+02	-2.952242e+01
3.616422e+02	-2.956860e+01
3.637311e+02	-2.962193e+01
3.658320e+02	-2.967146e+01
3.679450e+02	-2.971785e+01
3.700702e+02	-2.976716e+01
3.722077e+02	-2.981955e+01
3.743576e+02	-2.987001e+01
3.765199e+02	-2.991377e+01
3.786946e+02	-2.997325e+01
3.808820e+02	-3.002112e+01
3.830819e+02	-3.006488e+01
3.852946e+02	-3.011816e+01
3.875200e+02	-3.017392e+01
3.897583e+02	-3.021955e+01
3.920096e+02	-3.027054e+01
3.942738e+02	-3.031247e+01
3.965511e+02	-3.037338e+01
3.988416e+02	-3.042426e+01
4.011452e+02	-3.046878e+01
4.034622e+02	-3.052016e+01
4.057926e+02	-3.056537e+01
4.081365e+02	-3.061542e+01
4.104938e+02	-3.067188e+01
4.128648e+02	-3.071804e+01
4.152495e+02	-3.077802e+01
4.176480e+02	-3.082191e+01
4.200603e+02	-3.087107e+01
4.224866e+02	-3.092279e+01
4.249268e+02	-3.097208e+01
4.273812e+02	-3.102130e+01
4.298497e+02	-3.107274e+01
4.323325e+02	-3.112522e+01
4.348297e+02	-3.116932e+01
4.373412e+02	-3.122133e+01
4.398673e+02	-3.127726e+01
4.424079e+02	-3.132215e+01
4.449633e+02	-3.137252e+01
4.475334e+02	-3.142135e+01
4.501183e+02	-3.148114e+01
4.527182e+02	-3.152627e+01
4.553330e+02	-3.157324e+01
4.579630e+02	-3.163025e+01
4.606082e+02	-3.168114e+01
4.632687e+02	-3.172807e+01
4.659445e+02	-3.177561e+01
4.686358e+02	-3.182623e+01
4.713426e+02	-3.187383e+01
4.740650e+02	-3.192396e+01
4.768032e+02	-3.197682e+01
4.795572e+02	-3.202592e+01
4.823271e+02	-3.207639e+01
4.851130e+02	-3.212556e+01
4.879150e+02	-3.217929e+01
4.907332e+02	-3.222777e+01
4.935676e+02	-3.227758e+01
4.964185e+02	-3.232202e+01
4.992858e+02	-3.237798e+01
5.021696e+02	-3.242288e+01
5.050701e+02	-3.248644e+01
5.079874e+02	-3.253212e+01
5.109215e+02	-3.258177e+01
5.138726e+02	-3.262166e+01
5.168407e+02	-3.267026e+01
5.198259e+02	-3.273210e+01
5.228284e+02	-3.277937e+01
5.258482e+02	-3.282879e+01
5.288855e+02	-3.286994e+01
5.319403e+02	-3.293226e+01
5.350128e+02	-3.297989e+01
5.381030e+02	-3.302680e+01
5.412111e+02	-3.307941e+01
5.443371e+02	-3.313092e+01
5.474812e+02	-3.318341e+01
5.506434e+02	-3.323302e+01
5.538239e+02	-3.328494e+01
5.570228e+02	-3.333104e+01
5.602401e+02	-3.338602e+01
5.634760e+02	-3.343028e+01
5.667306e+02	-3.347670e+01
5.700040e+02	-3.353396e+01
5.732964e+02	-3.358295e+01
5.766077e+02	-3.362746e+01
5.799382e+02	-3.368290e+01
5.832879e+02	-3.373441e+01
5.866569e+02	-3.379468e+01
5.900454e+02	-3.383474e+01
5.934535e+02	-3.389315e+01
5.968813e+02	-3.393720e+01
6.003288e+02	-3.399533e+01
6.037963e+02	-3.403633e+01
6.072838e+02	-3.408020e+01
6.107914e+02	-3.413773e+01
6.143194e+02	-3.418032e+01
6.178676e+02	-3.422882e+01
6.214364e+02	-3.428736e+01
6.250258e+02	-3.433856e+01
6.286359e+02	-3.438753e+01
6.322669e+02	-3.443281e+01
6.359189e+02	-3.450411e+01
6.395919e+02	-3.453936e+01
6.432862e+02	-3.458522e+01
6.470017e+02	-3.464308e+01
6.507388e+02	-3.469043e+01
6.544974e+02	-3.473089e+01
6.582778e+02	-3.478601e+01
6.620800e+02	-3.483913e+01
6.659041e+02	-3.488939e+01
6.697504e+02	-3.494444e+01
6.736188e+02	-3.498536e+01
6.775096e+02	-3.503167e+01
6.814229e+02	-3.508890e+01
6.853587e+02	-3.514111e+01
6.893173e+02	-3.520311e+01
6.932988e+02	-3.524018e+01
6.973033e+02	-3.528585e+01
7.013309e+02	-3.534831e+01
