Frequency(Hz)	Magnitude(dB)
1.000000e+01	-2.117437e+00
1.005776e+01	-2.136601e+00
1.011585e+01	-2.156096e+00
1.017428e+01	-2.175799e+00
1.023305e+01	-2.195554e+00
1.029215e+01	-2.215711e+00
1.035160e+01	-2.235595e+00
1.041139e+01	-2.255703e+00
1.047153e+01	-2.276071e+00
1.053201e+01	-2.296458e+00
1.059284e+01	-2.317189e+00
1.065403e+01	-2.337894e+00
1.071556e+01	-2.358784e+00
1.077746e+01	-2.379790e+00
1.083971e+01	-2.400975e+00
1.090232e+01	-2.422251e+00
1.096529e+01	-2.443872e+00
1.102862e+01	-2.465441e+00
1.109232e+01	-2.487227e+00
1.115639e+01	-2.509125e+00
1.122083e+01	-2.530881e+00
1.128564e+01	-2.553230e+00
1.135083e+01	-2.575628e+00
1.141639e+01	-2.597993e+00
1.148233e+01	-2.620524e+00
1.154865e+01	-2.643259e+00
1.161536e+01	-2.666120e+00
1.168245e+01	-2.689085e+00
1.174992e+01	-2.712343e+00
1.181779e+01	-2.735574e+00
1.188605e+01	-2.759124e+00
1.195470e+01	-2.782406e+00
1.202375e+01	-2.806576e+00
1.209320e+01	-2.830288e+00
1.216305e+01	-2.854498e+00
1.223330e+01	-2.878527e+00
1.230396e+01	-2.902634e+00
1.237503e+01	-2.927212e+00
1.244651e+01	-2.952001e+00
1.251840e+01	-2.976637e+00
1.259070e+01	-3.001376e+00
1.266343e+01	-3.026708e+00
1.273657e+01	-3.051771e+00
1.281014e+01	-3.076829e+00
1.288413e+01	-3.102628e+00
1.295855e+01	-3.127995e+00
1.303339e+01	-3.153642e+00
1.310867e+01	-3.179763e+00
1.318439e+01	-3.205809e+00
1.326054e+01	-3.232181e+00
1.333713e+01	-3.258236e+00
1.341417e+01	-3.284685e+00
1.349165e+01	-3.311495e+00
1.356958e+01	-3.338221e+00
1.364795e+01	-3.365029e+00
1.372678e+01	-3.392081e+00
1.380607e+01	-3.419310e+00
1.388581e+01	-3.446691e+00
1.396602e+01	-3.474101e+00
1.404668e+01	-3.501615e+00
1.412782e+01	-3.529548e+00
1.420942e+01	-3.557479e+00
1.429149e+01	-3.585460e+00
1.437404e+01	-3.613779e+00
1.445706e+01	-3.641721e+00
1.454057e+01	-3.670472e+00
1.462455e+01	-3.699197e+00
1.470902e+01	-3.727722e+00
1.479398e+01	-3.756866e+00
1.487943e+01	-3.785676e+00
1.496537e+01	-3.814850e+00
1.505181e+01	-3.844112e+00
1.513875e+01	-3.873598e+00
1.522619e+01	-3.903275e+00
1.531414e+01	-3.933193e+00
1.540259e+01	-3.962709e+00
1.549156e+01	-3.992924e+00
1.558103e+01	-4.023128e+00
1.567103e+01	-4.053213e+00
1.576155e+01	-4.083689e+00
1.585258e+01	-4.114178e+00
1.594415e+01	-4.145134e+00
1.603624e+01	-4.175965e+00
1.612886e+01	-4.206762e+00
1.622202e+01	-4.237899e+00
1.631572e+01	-4.268991e+00
1.640996e+01	-4.300324e+00
1.650474e+01	-4.331957e+00
1.660008e+01	-4.363909e+00
1.669596e+01	-4.395395e+00
1.679239e+01	-4.427150e+00
1.688938e+01	-4.459345e+00
1.698694e+01	-4.491650e+00
1.708505e+01	-4.523768e+00
1.718373e+01	-4.556398e+00
1.728299e+01	-4.588846e+00
1.738281e+01	-4.621280e+00
1.748322e+01	-4.654269e+00
1.758420e+01	-4.687104e+00
1.768576e+01	-4.720537e+00
1.778792e+01	-4.753675e+00
1.789066e+01	-4.787050e+00
1.799399e+01	-4.820525e+00
1.809793e+01	-4.854252e+00
1.820246e+01	-4.887894e+00
1.830760e+01	-4.921397e+00
1.841334e+01	-4.955433e+00
1.851969e+01	-4.989784e+00
1.862666e+01	-5.023748e+00
1.873425e+01	-5.058455e+00
1.884246e+01	-5.092951e+00
1.895129e+01	-5.127503e+00
1.906075e+01	-5.162129e+00
1.917085e+01	-5.196905e+00
1.928158e+01	-5.232028e+00
1.939295e+01	-5.267109e+00
1.950496e+01	-5.302387e+00
1.961762e+01	-5.337700e+00
1.973093e+01	-5.372834e+00
1.984490e+01	-5.408434e+00
1.995952e+01	-5.444205e+00
2.007480e+01	-5.479929e+00
2.019076e+01	-5.516078e+00
2.030738e+01	-5.551988e+00
2.042467e+01	-5.587971e+00
2.054264e+01	-5.624299e+00
2.066130e+01	-5.660934e+00
2.078064e+01	-5.697314e+00
2.090066e+01	-5.733851e+00
2.102139e+01	-5.770580e+00
2.114280e+01	-5.807521e+00
2.126492e+01	-5.844391e+00
2.138775e+01	-5.881362e+00
2.151128e+01	-5.918742e+00
2.163553e+01	-5.955949e+00
2.176050e+01	-5.993552e+00
2.188619e+01	-6.030862e+00
2.201260e+01	-6.068472e+00
2.213974e+01	-6.106101e+00
2.226762e+01	-6.144143e+00
2.239624e+01	-6.181581e+00
2.252560e+01	-6.219816e+00
2.265571e+01	-6.257724e+00
2.278656e+01	-6.296088e+00
2.291818e+01	-6.334271e+00
2.305055e+01	-6.373253e+00
2.318369e+01	-6.411449e+00
2.331760e+01	-6.450020e+00
2.345228e+01	-6.488836e+00
2.358774e+01	-6.527855e+00
2.372398e+01	-6.566847e+00
2.386101e+01	-6.605624e+00
2.399883e+01	-6.644851e+00
2.413745e+01	-6.684295e+00
2.427686e+01	-6.723279e+00
2.441709e+01	-6.762888e+00
2.455812e+01	-6.802608e+00
2.469997e+01	-6.842187e+00
2.484263e+01	-6.881899e+00
2.498612e+01	-6.921587e+00
2.513044e+01	-6.961710e+00
2.527559e+01	-7.001460e+00
2.542158e+01	-7.041576e+00
2.556842e+01	-7.082104e+00
2.571610e+01	-7.121938e+00
2.586463e+01	-7.162477e+00
2.601403e+01	-7.203239e+00
2.616428e+01	-7.243446e+00
2.631541e+01	-7.284552e+00
2.646740e+01	-7.324445e+00
2.662028e+01	-7.365801e+00
2.677404e+01	-7.406540e+00
2.692868e+01	-7.447208e+00
2.708422e+01	-7.488601e+00
2.724066e+01	-7.529282e+00
2.739800e+01	-7.571228e+00
2.755625e+01	-7.612143e+00
2.771541e+01	-7.654003e+00
2.787550e+01	-7.695175e+00
2.803650e+01	-7.736926e+00
2.819844e+01	-7.778064e+00
2.836131e+01	-7.820293e+00
2.852513e+01	-7.861822e+00
2.868989e+01	-7.903679e+00
2.885560e+01	-7.945736e+00
2.902227e+01	-7.987873e+00
2.918990e+01	-8.029797e+00
2.935850e+01	-8.072201e+00
2.952807e+01	-8.114417e+00
2.969863e+01	-8.156934e+00
2.987016e+01	-8.199283e+00
3.004269e+01	-8.241634e+00
3.021622e+01	-8.284083e+00
3.039075e+01	-8.326751e+00
3.056628e+01	-8.369863e+00
3.074283e+01	-8.412320e+00
3.092040e+01	-8.455042e+00
3.109900e+01	-8.497611e+00
3.127862e+01	-8.540627e+00
3.145929e+01	-8.584318e+00
3.164099e+01	-8.627256e+00
3.182375e+01	-8.670669e+00
3.200756e+01	-8.714002e+00
3.219244e+01	-8.757483e+00
3.237838e+01	-8.799948e+00
3.256540e+01	-8.844098e+00
3.275349e+01	-8.886896e+00
3.294268e+01	-8.931336e+00
3.313295e+01	-8.974592e+00
3.332433e+01	-9.018789e+00
3.351681e+01	-9.062053e+00
3.371040e+01	-9.106458e+00
3.390511e+01	-9.149857e+00
3.410094e+01	-9.193612e+00
3.429791e+01	-9.237985e+00
3.449601e+01	-9.281788e+00
3.469526e+01	-9.326232e+00
3.489566e+01	-9.370134e+00
3.509721e+01	-9.414417e+00
3.529993e+01	-9.459067e+00
3.550382e+01	-9.503454e+00
3.570889e+01	-9.548303e+00
3.591515e+01	-9.592125e+00
3.612259e+01	-9.636905e+00
3.633123e+01	-9.681580e+00
3.654108e+01	-9.726373e+00
3.675214e+01	-9.771016e+00
3.696442e+01	-9.815569e+00
3.717792e+01	-9.860681e+00
3.739266e+01	-9.905406e+00
3.760864e+01	-9.950438e+00
3.782587e+01	-9.995491e+00
3.804435e+01	-1.004011e+01
3.826409e+01	-1.008534e+01
3.848510e+01	-1.013036e+01
3.870739e+01	-1.017526e+01
3.893096e+01	-1.022112e+01
3.915583e+01	-1.026665e+01
3.938199e+01	-1.031181e+01
3.960946e+01	-1.035691e+01
3.983824e+01	-1.040255e+01
4.006834e+01	-1.044788e+01
4.029978e+01	-1.049355e+01
4.053255e+01	-1.053931e+01
4.076666e+01	-1.058442e+01
4.100213e+01	-1.063043e+01
4.123896e+01	-1.067630e+01
4.147715e+01	-1.072201e+01
4.171672e+01	-1.076766e+01
4.195767e+01	-1.081319e+01
4.220002e+01	-1.085898e+01
4.244377e+01	-1.090527e+01
4.268892e+01	-1.095146e+01
4.293549e+01	-1.099762e+01
4.318348e+01	-1.104369e+01
4.343291e+01	-1.108986e+01
4.368377e+01	-1.113600e+01
4.393609e+01	-1.118234e+01
4.418986e+01	-1.122809e+01
4.444510e+01	-1.127447e+01
4.470182e+01	-1.132133e+01
4.496001e+01	-1.136716e+01
4.521970e+01	-1.141387e+01
4.548089e+01	-1.146070e+01
4.574358e+01	-1.150628e+01
4.600779e+01	-1.155291e+01
4.627353e+01	-1.159975e+01
4.654081e+01	-1.164688e+01
4.680963e+01	-1.169274e+01
4.708000e+01	-1.173928e+01
4.735193e+01	-1.178548e+01
4.762543e+01	-1.183296e+01
4.790051e+01	-1.187956e+01
4.817719e+01	-1.192644e+01
4.845545e+01	-1.197335e+01
4.873533e+01	-1.202025e+01
4.901682e+01	-1.206721e+01
4.929994e+01	-1.211449e+01
4.958470e+01	-1.216139e+01
4.987110e+01	-1.220779e+01
5.015915e+01	-1.225494e+01
5.044887e+01	-1.230193e+01
5.074026e+01	-1.234860e+01
5.103333e+01	-1.239601e+01
5.132810e+01	-1.244342e+01
5.162457e+01	-1.249079e+01
5.192275e+01	-1.253822e+01
5.222265e+01	-1.258579e+01
5.252429e+01	-1.263226e+01
5.282767e+01	-1.268023e+01
5.313280e+01	-1.272698e+01
5.343969e+01	-1.277454e+01
5.374836e+01	-1.282138e+01
5.405880e+01	-1.286893e+01
5.437105e+01	-1.291695e+01
5.468509e+01	-1.296399e+01
5.500095e+01	-1.301172e+01
5.531863e+01	-1.305980e+01
5.563815e+01	-1.310660e+01
5.595951e+01	-1.315440e+01
5.628273e+01	-1.320200e+01
5.660782e+01	-1.324903e+01
5.693479e+01	-1.329707e+01
5.726364e+01	-1.334435e+01
5.759439e+01	-1.339289e+01
5.792705e+01	-1.344107e+01
5.826164e+01	-1.348882e+01
5.859815e+01	-1.353550e+01
5.893662e+01	-1.358389e+01
5.927703e+01	-1.363212e+01
5.961941e+01	-1.367968e+01
5.996377e+01	-1.372725e+01
6.031012e+01	-1.377520e+01
6.065847e+01	-1.382305e+01
6.100883e+01	-1.387206e+01
6.136121e+01	-1.391922e+01
6.171563e+01	-1.396768e+01
6.207210e+01	-1.401561e+01
6.243063e+01	-1.406353e+01
6.279122e+01	-1.411207e+01
6.315390e+01	-1.415928e+01
6.351868e+01	-1.420702e+01
6.388556e+01	-1.425642e+01
6.425456e+01	-1.430483e+01
6.462569e+01	-1.435222e+01
6.499897e+01	-1.440087e+01
6.537440e+01	-1.444844e+01
6.575200e+01	-1.449792e+01
6.613178e+01	-1.454512e+01
6.651375e+01	-1.459293e+01
6.689793e+01	-1.464152e+01
6.728433e+01	-1.469020e+01
6.767297e+01	-1.473916e+01
6.806384e+01	-1.478673e+01
6.845698e+01	-1.483583e+01
6.885238e+01	-1.488405e+01
6.925007e+01	-1.493059e+01
6.965005e+01	-1.497977e+01
7.005235e+01	-1.502870e+01
7.045697e+01	-1.507745e+01
7.086393e+01	-1.512521e+01
7.127323e+01	-1.517381e+01
7.168490e+01	-1.522265e+01
7.209895e+01	-1.527028e+01
7.251539e+01	-1.532006e+01
7.293424e+01	-1.536870e+01
7.335551e+01	-1.541670e+01
7.377920e+01	-1.546513e+01
7.420535e+01	-1.551449e+01
7.463396e+01	-1.556298e+01
7.506504e+01	-1.561031e+01
7.549861e+01	-1.565984e+01
7.593469e+01	-1.570758e+01
7.637328e+01	-1.575815e+01
7.681441e+01	-1.580697e+01
7.725809e+01	-1.585583e+01
7.770433e+01	-1.590442e+01
7.815315e+01	-1.595248e+01
7.860456e+01	-1.600137e+01
7.905857e+01	-1.604955e+01
7.951521e+01	-1.609872e+01
7.997449e+01	-1.614783e+01
8.043642e+01	-1.619683e+01
8.090102e+01	-1.624436e+01
8.136830e+01	-1.629507e+01
8.183828e+01	-1.634317e+01
8.231097e+01	-1.639175e+01
8.278640e+01	-1.644061e+01
8.326457e+01	-1.648939e+01
8.374550e+01	-1.653836e+01
8.422921e+01	-1.658650e+01
8.471572e+01	-1.663601e+01
8.520503e+01	-1.668481e+01
8.569717e+01	-1.673347e+01
8.619215e+01	-1.678400e+01
8.669000e+01	-1.683224e+01
8.719071e+01	-1.688047e+01
8.769432e+01	-1.693118e+01
8.820084e+01	-1.698047e+01
8.871029e+01	-1.702897e+01
8.922267e+01	-1.707771e+01
8.973802e+01	-1.712689e+01
9.025634e+01	-1.717593e+01
9.077766e+01	-1.722403e+01
9.130199e+01	-1.727411e+01
9.182935e+01	-1.732190e+01
9.235975e+01	-1.737249e+01
9.289321e+01	-1.742018e+01
9.342976e+01	-1.746925e+01
9.396941e+01	-1.751931e+01
9.451217e+01	-1.756852e+01
9.505807e+01	-1.761687e+01
9.560712e+01	-1.766645e+01
9.615934e+01	-1.771497e+01
9.671476e+01	-1.776581e+01
9.727338e+01	-1.781479e+01
9.783522e+01	-1.786419e+01
9.840032e+01	-1.791232e+01
9.896867e+01	-1.796213e+01
9.954031e+01	-1.801053e+01
1.001153e+02	-1.805977e+01
1.006935e+02	-1.810931e+01
1.012751e+02	-1.815852e+01
1.018601e+02	-1.820755e+01
1.024484e+02	-1.825800e+01
1.030402e+02	-1.830560e+01
1.036353e+02	-1.835517e+01
1.042339e+02	-1.840626e+01
1.048360e+02	-1.845543e+01
1.054415e+02	-1.850463e+01
1.060505e+02	-1.855387e+01
1.066631e+02	-1.860380e+01
1.072791e+02	-1.865168e+01
1.078988e+02	-1.870109e+01
1.085220e+02	-1.875050e+01
1.091488e+02	-1.879987e+01
1.097793e+02	-1.885038e+01
1.104133e+02	-1.889804e+01
1.110511e+02	-1.894867e+01
1.116925e+02	-1.899836e+01
1.123376e+02	-1.904854e+01
1.129865e+02	-1.909637e+01
1.136391e+02	-1.914735e+01
1.142955e+02	-1.919606e+01
1.149556e+02	-1.924422e+01
1.156196e+02	-1.929467e+01
1.162874e+02	-1.934308e+01
1.169591e+02	-1.939297e+01
1.176347e+02	-1.944184e+01
1.183141e+02	-1.949399e+01
1.189975e+02	-1.954326e+01
1.196848e+02	-1.959241e+01
1.203761e+02	-1.964075e+01
1.210714e+02	-1.968995e+01
1.217707e+02	-1.973930e+01
1.224740e+02	-1.978800e+01
1.231814e+02	-1.983916e+01
1.238929e+02	-1.988934e+01
1.246085e+02	-1.993690e+01
1.253283e+02	-1.998776e+01
1.260522e+02	-2.003754e+01
1.267802e+02	-2.008635e+01
1.275125e+02	-2.013512e+01
1.282490e+02	-2.018622e+01
1.289898e+02	-2.023426e+01
1.297348e+02	-2.028489e+01
1.304842e+02	-2.033508e+01
1.312378e+02	-2.038435e+01
1.319959e+02	-2.043327e+01
1.327583e+02	-2.048388e+01
1.335251e+02	-2.053207e+01
1.342963e+02	-2.058231e+01
1.350720e+02	-2.063157e+01
1.358522e+02	-2.068205e+01
1.366368e+02	-2.073042e+01
1.374260e+02	-2.078011e+01
1.382198e+02	-2.083150e+01
1.390182e+02	-2.087977e+01
1.398211e+02	-2.093127e+01
1.406287e+02	-2.097848e+01
1.414410e+02	-2.102905e+01
1.422579e+02	-2.107782e+01
1.430796e+02	-2.112717e+01
1.439060e+02	-2.117616e+01
1.447372e+02	-2.122705e+01
1.455732e+02	-2.127615e+01
1.464141e+02	-2.132744e+01
1.472597e+02	-2.137637e+01
1.481103e+02	-2.142345e+01
1.489658e+02	-2.147501e+01
1.498262e+02	-2.152547e+01
1.506916e+02	-2.157462e+01
1.515620e+02	-2.162604e+01
1.524374e+02	-2.167416e+01
1.533179e+02	-2.172380e+01
1.542034e+02	-2.177405e+01
1.550941e+02	-2.182272e+01
1.559899e+02	-2.187236e+01
1.568909e+02	-2.192261e+01
1.577971e+02	-2.197475e+01
1.587085e+02	-2.202393e+01
1.596252e+02	-2.207256e+01
1.605472e+02	-2.212051e+01
1.614745e+02	-2.217252e+01
1.624072e+02	-2.221963e+01
1.633453e+02	-2.227162e+01
1.642887e+02	-2.232245e+01
1.652377e+02	-2.237069e+01
1.661921e+02	-2.242066e+01
1.671520e+02	-2.247033e+01
1.681175e+02	-2.252040e+01
1.690885e+02	-2.257048e+01
1.700651e+02	-2.262002e+01
1.710474e+02	-2.266827e+01
1.720354e+02	-2.271808e+01
1.730291e+02	-2.276968e+01
1.740285e+02	-2.281905e+01
1.750337e+02	-2.287001e+01
1.760446e+02	-2.291702e+01
1.770615e+02	-2.296929e+01
1.780842e+02	-2.301916e+01
1.791128e+02	-2.306769e+01
1.801473e+02	-2.311764e+01
1.811878e+02	-2.316692e+01
1.822344e+02	-2.321839e+01
1.832870e+02	-2.326630e+01
1.843456e+02	-2.331708e+01
1.854104e+02	-2.336610e+01
1.864813e+02	-2.341697e+01
1.875584e+02	-2.346704e+01
1.886418e+02	-2.351450e+01
1.897313e+02	-2.356692e+01
1.908272e+02	-2.361518e+01
1.919294e+02	-2.366667e+01
1.930380e+02	-2.371586e+01
1.941530e+02	-2.376337e+01
1.952744e+02	-2.381432e+01
1.964023e+02	-2.386560e+01
1.975367e+02	-2.391681e+01
1.986777e+02	-2.396551e+01
1.998252e+02	-2.401818e+01
2.009794e+02	-2.406414e+01
2.021403e+02	-2.411431e+01
2.033078e+02	-2.416214e+01
2.044821e+02	-2.421154e+01
2.056632e+02	-2.426392e+01
2.068511e+02	-2.431638e+01
2.080459e+02	-2.436541e+01
2.092475e+02	-2.441489e+01
2.104561e+02	-2.446336e+01
2.116717e+02	-2.451440e+01
2.128943e+02	-2.456295e+01
2.141240e+02	-2.461220e+01
2.153608e+02	-2.466256e+01
2.166047e+02	-2.471532e+01
2.178558e+02	-2.476443e+01
2.191141e+02	-2.481219e+01
2.203797e+02	-2.486313e+01
2.216526e+02	-2.491073e+01
2.229329e+02	-2.496119e+01
2.242205e+02	-2.501318e+01
2.255156e+02	-2.506337e+01
2.268182e+02	-2.511401e+01
2.281283e+02	-2.515877e+01
2.294459e+02	-2.521319e+01
2.307712e+02	-2.526413e+01
2.321041e+02	-2.531667e+01
2.334447e+02	-2.536162e+01
2.347931e+02	-2.541051e+01
2.361493e+02	-2.546232e+01
2.375133e+02	-2.551181e+01
2.388851e+02	-2.556061e+01
2.402649e+02	-2.561181e+01
2.416527e+02	-2.566134e+01
2.430484e+02	-2.571208e+01
2.444523e+02	-2.576160e+01
2.458642e+02	-2.580945e+01
2.472843e+02	-2.585616e+01
2.487126e+02	-2.591099e+01
2.501492e+02	-2.596196e+01
2.515940e+02	-2.600934e+01
2.530472e+02	-2.606363e+01
2.545088e+02	-2.610984e+01
2.559789e+02	-2.616299e+01
2.574574e+02	-2.621138e+01
2.589444e+02	-2.625949e+01
2.604401e+02	-2.631216e+01
2.619444e+02	-2.635757e+01
2.634574e+02	-2.640961e+01
2.649791e+02	-2.645847e+01
2.665096e+02	-2.650931e+01
2.680489e+02	-2.655914e+01
2.695972e+02	-2.660843e+01
2.711544e+02	-2.665879e+01
2.727205e+02	-2.670794e+01
2.742958e+02	-2.676122e+01
2.758801e+02	-2.681498e+01
2.774736e+02	-2.686068e+01
2.790762e+02	-2.691143e+01
2.806882e+02	-2.696187e+01
2.823094e+02	-2.701162e+01
2.839400e+02	-2.705908e+01
2.855800e+02	-2.711023e+01
2.872295e+02	-2.716036e+01
2.888886e+02	-2.720992e+01
2.905572e+02	-2.726196e+01
2.922354e+02	-2.731035e+01
2.939234e+02	-2.736008e+01
2.956211e+02	-2.741113e+01
2.973286e+02	-2.746376e+01
2.990459e+02	-2.751155e+01
3.007732e+02	-2.756063e+01
3.025104e+02	-2.761222e+01
3.042577e+02	-2.766160e+01
3.060151e+02	-2.771048e+01
3.077826e+02	-2.776048e+01
3.095604e+02	-2.781020e+01
3.113484e+02	-2.786276e+01
3.131467e+02	-2.790996e+01
3.149554e+02	-2.796082e+01
3.167746e+02	-2.801061e+01
3.186043e+02	-2.806558e+01
3.204445e+02	-2.810810e+01
3.222954e+02	-2.816545e+01
3.241570e+02	-2.821180e+01
3.260293e+02	-2.826269e+01
3.279124e+02	-2.830851e+01
3.298064e+02	-2.835835e+01
3.317114e+02	-2.840893e+01
3.336273e+02	-2.846191e+01
3.355544e+02	-2.851277e+01
3.374925e+02	-2.856147e+01
3.394418e+02	-2.860962e+01
3.414024e+02	-2.866090e+01
3.433744e+02	-2.871356e+01
3.453577e+02	-2.875934e+01
3.473525e+02	-2.881234e+01
3.493588e+02	-2.886197e+01
3.513766e+02	-2.891355e+01
3.534062e+02	-2.896241e+01
3.554474e+02	-2.901128e+01
3.575005e+02	-2.906292e+01
3.595654e+02	-2.911114e+01
3.616422e+02	-2.916533e+01
3.637311e+02	-2.921351e+01
3.658320e+02	-2.926154e+01
3.679450e+02	-2.930650e+01
3.700702e+02	-2.936175e+01
3.722077e+02	-2.941145e+01
3.743576e+02	-2.945971e+01
3.765199e+02	-2.950905e+01
3.786946e+02	-2.956223e+01
3.808820e+02	-2.961528e+01
3.830819e+02	-2.965658e+01
3.852946e+02	-2.971314e+01
3.875200e+02	-2.976555e+01
3.897583e+02	-2.981033e+01
3.920096e+02	-2.986142e+01
3.942738e+02	-2.991284e+01
3.965511e+02	-2.996079e+01
3.988416e+02	-3.000914e+01
4.011452e+02	-3.006219e+01
4.034622e+02	-3.012060e+01
4.057926e+02	-3.016913e+01
4.081365e+02	-3.021960e+01
4.104938e+02	-3.026248e+01
4.128648e+02	-3.031379e+01
4.152495e+02	-3.036385e+01
4.176480e+02	-3.041029e+01
4.200603e+02	-3.046239e+01
4.224866e+02	-3.051368e+01
4.249268e+02	-3.056407e+01
4.273812e+02	-3.061385e+01
4.298497e+02	-3.066224e+01
4.323325e+02	-3.071225e+01
4.348297e+02	-3.076554e+01
4.373412e+02	-3.081797e+01
4.398673e+02	-3.086424e+01
4.424079e+02	-3.091671e+01
4.449633e+02	-3.096436e+01
4.475334e+02	-3.101531e+01
4.501183e+02	-3.106454e+01
4.527182e+02	-3.111605e+01
4.553330e+02	-3.116223e+01
4.579630e+02	-3.121554e+01
4.606082e+02	-3.127221e+01
4.632687e+02	-3.132049e+01
4.659445e+02	-3.137397e+01
4.686358e+02	-3.141524e+01
4.713426e+02	-3.146959e+01
4.740650e+02	-3.151470e+01
4.768032e+02	-3.157053e+01
4.795572e+02	-3.161902e+01
4.823271e+02	-3.167258e+01
4.851130e+02	-3.172349e+01
4.879150e+02	-3.176405e+01
4.907332e+02	-3.182143e+01
4.935676e+02	-3.187124e+01
4.964185e+02	-3.192278e+01
4.992858e+02	-3.196533e+01
5.021696e+02	-3.202373e+01
5.050701e+02	-3.206597e+01
5.079874e+02	-3.212222e+01
5.109215e+02	-3.217476e+01
5.138726e+02	-3.221873e+01
5.168407e+02	-3.227107e+01
5.198259e+02	-3.232049e+01
5.228284e+02	-3.237208e+01
5.258482e+02	-3.243213e+01
5.288855e+02	-3.247091e+01
5.319403e+02	-3.251964e+01
5.350128e+02	-3.257477e+01
5.381030e+02	-3.262209e+01
5.412111e+02	-3.267825e+01
5.443371e+02	-3.271753e+01
5.474812e+02	-3.276932e+01
5.506434e+02	-3.282395e+01
5.538239e+02	-3.287787e+01
5.570228e+02	-3.292346e+01
5.602401e+02	-3.297212e+01
5.634760e+02	-3.302339e+01
5.667306e+02	-3.308208e+01
5.700040e+02	-3.312548e+01
5.732964e+02	-3.317386e+01
5.766077e+02	-3.322946e+01
5.799382e+02	-3.327165e+01
5.832879e+02	-3.332455e+01
5.866569e+02	-3.337956e+01
5.900454e+02	-3.342624e+01
5.934535e+02	-3.347812e+01
5.968813e+02	-3.352560e+01
6.003288e+02	-3.357386e+01
6.037963e+02	-3.362943e+01
6.072838e+02	-3.367897e+01
6.107914e+02	-3.372758e+01
6.143194e+02	-3.377239e+01
6.178676e+02	-3.383274e+01
6.214364e+02	-3.388317e+01
6.250258e+02	-3.392709e+01
6.286359e+02	-3.397759e+01
6.322669e+02	-3.403246e+01
6.359189e+02	-3.407895e+01
6.395919e+02	-3.412814e+01
6.432862e+02	-3.419005e+01
6.470017e+02	-3.422682e+01
6.507388e+02	-3.427402e+01
6.544974e+02	-3.434184e+01
6.582778e+02	-3.437543e+01
6.620800e+02	-3.443945e+01
6.659041e+02	-3.447989e+01
6.697504e+02	-3.453238e+01
6.736188e+02	-3.458235e+01
6.775096e+02	-3.463692e+01
6.814229e+02	-3.468058e+01
6.853587e+02	-3.473083e+01
6.893173e+02	-3.478723e+01
6.932988e+02	-3.483231e+01
6.973033e+02	-3.489505e+01
7.013309e+02	-3.494281e+01
