Frequency(Hz)	Magnitude(dB)
1.000000e+01	-2.181442e+00
1.005776e+01	-2.201330e+00
1.011585e+01	-2.221139e+00
1.017428e+01	-2.241479e+00
1.023305e+01	-2.261482e+00
1.029215e+01	-2.281903e+00
1.035160e+01	-2.302398e+00
1.041139e+01	-2.323302e+00
1.047153e+01	-2.343909e+00
1.053201e+01	-2.364888e+00
1.059284e+01	-2.386178e+00
1.065403e+01	-2.407270e+00
1.071556e+01	-2.428427e+00
1.077746e+01	-2.449827e+00
1.083971e+01	-2.471560e+00
1.090232e+01	-2.493504e+00
1.096529e+01	-2.515340e+00
1.102862e+01	-2.537433e+00
1.109232e+01	-2.559704e+00
1.115639e+01	-2.582111e+00
1.122083e+01	-2.604644e+00
1.128564e+01	-2.627179e+00
1.135083e+01	-2.649912e+00
1.141639e+01	-2.672933e+00
1.148233e+01	-2.695857e+00
1.154865e+01	-2.718940e+00
1.161536e+01	-2.742325e+00
1.168245e+01	-2.765923e+00
1.174992e+01	-2.789735e+00
1.181779e+01	-2.813275e+00
1.188605e+01	-2.837302e+00
1.195470e+01	-2.861176e+00
1.202375e+01	-2.885594e+00
1.209320e+01	-2.909859e+00
1.216305e+01	-2.934218e+00
1.223330e+01	-2.958931e+00
1.230396e+01	-2.983703e+00
1.237503e+01	-3.008813e+00
1.244651e+01	-3.033774e+00
1.251840e+01	-3.058968e+00
1.259070e+01	-3.084351e+00
1.266343e+01	-3.109799e+00
1.273657e+01	-3.135434e+00
1.281014e+01	-3.161258e+00
1.288413e+01	-3.187282e+00
1.295855e+01	-3.213331e+00
1.303339e+01	-3.239591e+00
1.310867e+01	-3.266074e+00
1.318439e+01	-3.292638e+00
1.326054e+01	-3.319479e+00
1.333713e+01	-3.345888e+00
1.341417e+01	-3.372819e+00
1.349165e+01	-3.400133e+00
1.356958e+01	-3.427260e+00
1.364795e+01	-3.454622e+00
1.372678e+01	-3.482091e+00
1.380607e+01	-3.510062e+00
1.388581e+01	-3.537805e+00
1.396602e+01	-3.565570e+00
1.404668e+01	-3.593450e+00
1.412782e+01	-3.621970e+00
1.420942e+01	-3.650358e+00
1.429149e+01	-3.678947e+00
1.437404e+01	-3.707352e+00
1.445706e+01	-3.736311e+00
1.454057e+01	-3.765027e+00
1.462455e+01	-3.794330e+00
1.470902e+01	-3.823301e+00
1.479398e+01	-3.852912e+00
1.487943e+01	-3.882136e+00
1.496537e+01	-3.912086e+00
1.505181e+01	-3.941768e+00
1.513875e+01	-3.971581e+00
1.522619e+01	-4.001821e+00
1.531414e+01	-4.031726e+00
1.540259e+01	-4.061975e+00
1.549156e+01	-4.092638e+00
1.558103e+01	-4.122848e+00
1.567103e+01	-4.153986e+00
1.576155e+01	-4.184605e+00
1.585258e+01	-4.215855e+00
1.594415e+01	-4.246929e+00
1.603624e+01	-4.278173e+00
1.612886e+01	-4.309775e+00
1.622202e+01	-4.341319e+00
1.631572e+01	-4.373127e+00
1.640996e+01	-4.404542e+00
1.650474e+01	-4.436550e+00
1.660008e+01	-4.468668e+00
1.669596e+01	-4.500962e+00
1.679239e+01	-4.532923e+00
1.688938e+01	-4.565930e+00
1.698694e+01	-4.598404e+00
1.708505e+01	-4.631133e+00
1.718373e+01	-4.663819e+00
1.728299e+01	-4.697056e+00
1.738281e+01	-4.730161e+00
1.748322e+01	-4.763108e+00
1.758420e+01	-4.797144e+00
1.768576e+01	-4.830142e+00
1.778792e+01	-4.864035e+00
1.789066e+01	-4.897455e+00
1.799399e+01	-4.931636e+00
1.809793e+01	-4.965817e+00
1.820246e+01	-4.999643e+00
1.830760e+01	-5.033781e+00
1.841334e+01	-5.068183e+00
1.851969e+01	-5.102939e+00
1.862666e+01	-5.137703e+00
1.873425e+01	-5.172142e+00
1.884246e+01	-5.207027e+00
1.895129e+01	-5.242280e+00
1.906075e+01	-5.277464e+00
1.917085e+01	-5.312630e+00
1.928158e+01	-5.347918e+00
1.939295e+01	-5.383489e+00
1.950496e+01	-5.419039e+00
1.961762e+01	-5.454671e+00
1.973093e+01	-5.490368e+00
1.984490e+01	-5.526249e+00
1.995952e+01	-5.562399e+00
2.007480e+01	-5.598672e+00
2.019076e+01	-5.634981e+00
2.030738e+01	-5.671304e+00
2.042467e+01	-5.708225e+00
2.054264e+01	-5.744683e+00
2.066130e+01	-5.781200e+00
2.078064e+01	-5.818388e+00
2.090066e+01	-5.854754e+00
2.102139e+01	-5.892037e+00
2.114280e+01	-5.929222e+00
2.126492e+01	-5.966784e+00
2.138775e+01	-6.004254e+00
2.151128e+01	-6.041791e+00
2.163553e+01	-6.079326e+00
2.176050e+01	-6.116929e+00
2.188619e+01	-6.154894e+00
2.201260e+01	-6.192943e+00
2.213974e+01	-6.230819e+00
2.226762e+01	-6.269156e+00
2.239624e+01	-6.307374e+00
2.252560e+01	-6.345708e+00
2.265571e+01	-6.384474e+00
2.278656e+01	-6.422915e+00
2.291818e+01	-6.461828e+00
2.305055e+01	-6.499895e+00
2.318369e+01	-6.539164e+00
2.331760e+01	-6.578141e+00
2.345228e+01	-6.616985e+00
2.358774e+01	-6.656245e+00
2.372398e+01	-6.695917e+00
2.386101e+01	-6.735309e+00
2.399883e+01	-6.774601e+00
2.413745e+01	-6.813563e+00
2.427686e+01	-6.853625e+00
2.441709e+01	-6.893582e+00
2.455812e+01	-6.933407e+00
2.469997e+01	-6.973036e+00
2.484263e+01	-7.013138e+00
2.498612e+01	-7.053352e+00
2.513044e+01	-7.093590e+00
2.527559e+01	-7.134052e+00
2.542158e+01	-7.173949e+00
2.556842e+01	-7.214700e+00
2.571610e+01	-7.255353e+00
2.586463e+01	-7.295868e+00
2.601403e+01	-7.336754e+00
2.616428e+01	-7.377585e+00
2.631541e+01	-7.418454e+00
2.646740e+01	-7.459697e+00
2.662028e+01	-7.500635e+00
2.677404e+01	-7.541187e+00
2.692868e+01	-7.583076e+00
2.708422e+01	-7.624397e+00
2.724066e+01	-7.665639e+00
2.739800e+01	-7.706989e+00
2.755625e+01	-7.749100e+00
2.771541e+01	-7.790310e+00
2.787550e+01	-7.832361e+00
2.803650e+01	-7.874114e+00
2.819844e+01	-7.915959e+00
2.836131e+01	-7.958292e+00
2.852513e+01	-8.000079e+00
2.868989e+01	-8.041919e+00
2.885560e+01	-8.084162e+00
2.902227e+01	-8.126309e+00
2.918990e+01	-8.169084e+00
2.935850e+01	-8.211398e+00
2.952807e+01	-8.254106e+00
2.969863e+01	-8.296337e+00
2.987016e+01	-8.339187e+00
3.004269e+01	-8.381792e+00
3.021622e+01	-8.424664e+00
3.039075e+01	-8.467338e+00
3.056628e+01	-8.510533e+00
3.074283e+01	-8.553597e+00
3.092040e+01	-8.596545e+00
3.109900e+01	-8.640325e+00
3.127862e+01	-8.683134e+00
3.145929e+01	-8.726457e+00
3.164099e+01	-8.769786e+00
3.182375e+01	-8.813490e+00
3.200756e+01	-8.856431e+00
3.219244e+01	-8.899891e+00
3.237838e+01	-8.943548e+00
3.256540e+01	-8.987599e+00
3.275349e+01	-9.030748e+00
3.294268e+01	-9.074902e+00
3.313295e+01	-9.118472e+00
3.332433e+01	-9.162772e+00
3.351681e+01	-9.206888e+00
3.371040e+01	-9.250857e+00
3.390511e+01	-9.295066e+00
3.410094e+01	-9.339394e+00
3.429791e+01	-9.383181e+00
3.449601e+01	-9.427590e+00
3.469526e+01	-9.471431e+00
3.489566e+01	-9.516285e+00
3.509721e+01	-9.560819e+00
3.529993e+01	-9.605146e+00
3.550382e+01	-9.649550e+00
3.570889e+01	-9.694799e+00
3.591515e+01	-9.738860e+00
3.612259e+01	-9.783893e+00
3.633123e+01	-9.828678e+00
3.654108e+01	-9.873260e+00
3.675214e+01	-9.918708e+00
3.696442e+01	-9.963208e+00
3.717792e+01	-1.000832e+01
3.739266e+01	-1.005303e+01
3.760864e+01	-1.009861e+01
3.782587e+01	-1.014361e+01
3.804435e+01	-1.018901e+01
3.826409e+01	-1.023469e+01
3.848510e+01	-1.027991e+01
3.870739e+01	-1.032471e+01
3.893096e+01	-1.037053e+01
3.915583e+01	-1.041511e+01
3.938199e+01	-1.046159e+01
3.960946e+01	-1.050645e+01
3.983824e+01	-1.055237e+01
4.006834e+01	-1.059858e+01
4.029978e+01	-1.064347e+01
4.053255e+01	-1.068938e+01
4.076666e+01	-1.073528e+01
4.100213e+01	-1.078118e+01
4.123896e+01	-1.082669e+01
4.147715e+01	-1.087260e+01
4.171672e+01	-1.091944e+01
4.195767e+01	-1.096466e+01
4.220002e+01	-1.101110e+01
4.244377e+01	-1.105666e+01
4.268892e+01	-1.110307e+01
4.293549e+01	-1.114953e+01
4.318348e+01	-1.119501e+01
4.343291e+01	-1.124149e+01
4.368377e+01	-1.128768e+01
4.393609e+01	-1.133423e+01
4.418986e+01	-1.138073e+01
4.444510e+01	-1.142738e+01
4.470182e+01	-1.147348e+01
4.496001e+01	-1.151939e+01
4.521970e+01	-1.156671e+01
4.548089e+01	-1.161327e+01
4.574358e+01	-1.166017e+01
4.600779e+01	-1.170646e+01
4.627353e+01	-1.175325e+01
4.654081e+01	-1.179976e+01
4.680963e+01	-1.184706e+01
4.708000e+01	-1.189249e+01
4.735193e+01	-1.194010e+01
4.762543e+01	-1.198651e+01
4.790051e+01	-1.203378e+01
4.817719e+01	-1.208069e+01
4.845545e+01	-1.212782e+01
4.873533e+01	-1.217485e+01
4.901682e+01	-1.222123e+01
4.929994e+01	-1.226887e+01
4.958470e+01	-1.231601e+01
4.987110e+01	-1.236250e+01
5.015915e+01	-1.241023e+01
5.044887e+01	-1.245710e+01
5.074026e+01	-1.250465e+01
5.103333e+01	-1.255097e+01
5.132810e+01	-1.259852e+01
5.162457e+01	-1.264649e+01
5.192275e+01	-1.269303e+01
5.222265e+01	-1.274034e+01
5.252429e+01	-1.278766e+01
5.282767e+01	-1.283483e+01
5.313280e+01	-1.288291e+01
5.343969e+01	-1.293026e+01
5.374836e+01	-1.297856e+01
5.405880e+01	-1.302584e+01
5.437105e+01	-1.307310e+01
5.468509e+01	-1.312119e+01
5.500095e+01	-1.316790e+01
5.531863e+01	-1.321560e+01
5.563815e+01	-1.326365e+01
5.595951e+01	-1.331047e+01
5.628273e+01	-1.335896e+01
5.660782e+01	-1.340681e+01
5.693479e+01	-1.345446e+01
5.726364e+01	-1.350133e+01
5.759439e+01	-1.355015e+01
5.792705e+01	-1.359678e+01
5.826164e+01	-1.364602e+01
5.859815e+01	-1.369368e+01
5.893662e+01	-1.374153e+01
5.927703e+01	-1.378957e+01
5.961941e+01	-1.383677e+01
5.996377e+01	-1.388541e+01
6.031012e+01	-1.393273e+01
6.065847e+01	-1.398207e+01
6.100883e+01	-1.402946e+01
6.136121e+01	-1.407710e+01
6.171563e+01	-1.412609e+01
6.207210e+01	-1.417353e+01
6.243063e+01	-1.422166e+01
6.279122e+01	-1.427012e+01
6.315390e+01	-1.431799e+01
6.351868e+01	-1.436617e+01
6.388556e+01	-1.441459e+01
6.425456e+01	-1.446238e+01
6.462569e+01	-1.451135e+01
6.499897e+01	-1.455917e+01
6.537440e+01	-1.460816e+01
6.575200e+01	-1.465631e+01
6.613178e+01	-1.470401e+01
6.651375e+01	-1.475222e+01
6.689793e+01	-1.480158e+01
6.728433e+01	-1.485046e+01
6.767297e+01	-1.489722e+01
6.806384e+01	-1.494651e+01
6.845698e+01	-1.499538e+01
6.885238e+01	-1.504269e+01
6.925007e+01	-1.509182e+01
6.965005e+01	-1.513854e+01
7.005235e+01	-1.518882e+01
7.045697e+01	-1.523706e+01
7.086393e+01	-1.528583e+01
7.127323e+01	-1.533380e+01
7.168490e+01	-1.538279e+01
7.209895e+01	-1.543123e+01
7.251539e+01	-1.547998e+01
7.293424e+01	-1.552841e+01
7.335551e+01	-1.557773e+01
7.377920e+01	-1.562522e+01
7.420535e+01	-1.567456e+01
7.463396e+01	-1.572343e+01
7.506504e+01	-1.577121e+01
7.549861e+01	-1.582011e+01
7.593469e+01	-1.586955e+01
7.637328e+01	-1.591851e+01
7.681441e+01	-1.596682e+01
7.725809e+01	-1.601611e+01
7.770433e+01	-1.606386e+01
7.815315e+01	-1.611384e+01
7.860456e+01	-1.616197e+01
7.905857e+01	-1.621085e+01
7.951521e+01	-1.626007e+01
7.997449e+01	-1.630793e+01
8.043642e+01	-1.635790e+01
8.090102e+01	-1.640583e+01
8.136830e+01	-1.645490e+01
8.183828e+01	-1.650446e+01
8.231097e+01	-1.655306e+01
8.278640e+01	-1.660224e+01
8.326457e+01	-1.665023e+01
8.374550e+01	-1.669959e+01
8.422921e+01	-1.674889e+01
8.471572e+01	-1.679731e+01
8.520503e+01	-1.684634e+01
8.569717e+01	-1.689660e+01
8.619215e+01	-1.694431e+01
8.669000e+01	-1.699351e+01
8.719071e+01	-1.704342e+01
8.769432e+01	-1.709103e+01
8.820084e+01	-1.714024e+01
8.871029e+01	-1.719022e+01
8.922267e+01	-1.723964e+01
8.973802e+01	-1.728833e+01
9.025634e+01	-1.733658e+01
9.077766e+01	-1.738602e+01
9.130199e+01	-1.743611e+01
9.182935e+01	-1.748325e+01
9.235975e+01	-1.753364e+01
9.289321e+01	-1.758376e+01
9.342976e+01	-1.763195e+01
9.396941e+01	-1.768053e+01
9.451217e+01	-1.773107e+01
9.505807e+01	-1.777897e+01
9.560712e+01	-1.782818e+01
9.615934e+01	-1.787787e+01
9.671476e+01	-1.792806e+01
9.727338e+01	-1.797649e+01
9.783522e+01	-1.802603e+01
9.840032e+01	-1.807465e+01
9.896867e+01	-1.812327e+01
9.954031e+01	-1.817307e+01
1.001153e+02	-1.822222e+01
1.006935e+02	-1.827149e+01
1.012751e+02	-1.832085e+01
1.018601e+02	-1.837072e+01
1.024484e+02	-1.842106e+01
1.030402e+02	-1.846956e+01
1.036353e+02	-1.851773e+01
1.042339e+02	-1.856759e+01
1.048360e+02	-1.861718e+01
1.054415e+02	-1.866627e+01
1.060505e+02	-1.871668e+01
1.066631e+02	-1.876608e+01
1.072791e+02	-1.881470e+01
1.078988e+02	-1.886397e+01
1.085220e+02	-1.891274e+01
1.091488e+02	-1.896479e+01
1.097793e+02	-1.901278e+01
1.104133e+02	-1.906114e+01
1.110511e+02	-1.911014e+01
1.116925e+02	-1.916098e+01
1.123376e+02	-1.920860e+01
1.129865e+02	-1.925983e+01
1.136391e+02	-1.930906e+01
1.142955e+02	-1.935885e+01
1.149556e+02	-1.940764e+01
1.156196e+02	-1.945734e+01
1.162874e+02	-1.950666e+01
1.169591e+02	-1.955660e+01
1.176347e+02	-1.960510e+01
1.183141e+02	-1.965371e+01
1.189975e+02	-1.970476e+01
1.196848e+02	-1.975364e+01
1.203761e+02	-1.980287e+01
1.210714e+02	-1.985332e+01
1.217707e+02	-1.990187e+01
1.224740e+02	-1.995321e+01
1.231814e+02	-2.000108e+01
1.238929e+02	-2.005286e+01
1.246085e+02	-2.010079e+01
1.253283e+02	-2.014929e+01
1.260522e+02	-2.020049e+01
1.267802e+02	-2.024581e+01
1.275125e+02	-2.029913e+01
1.282490e+02	-2.034711e+01
1.289898e+02	-2.039759e+01
1.297348e+02	-2.044729e+01
1.304842e+02	-2.049756e+01
1.312378e+02	-2.054602e+01
1.319959e+02	-2.059444e+01
1.327583e+02	-2.064555e+01
1.335251e+02	-2.069673e+01
1.342963e+02	-2.074561e+01
1.350720e+02	-2.079555e+01
1.358522e+02	-2.084414e+01
1.366368e+02	-2.089456e+01
1.374260e+02	-2.094449e+01
1.382198e+02	-2.099424e+01
1.390182e+02	-2.104258e+01
1.398211e+02	-2.109417e+01
1.406287e+02	-2.114339e+01
1.414410e+02	-2.119273e+01
1.422579e+02	-2.124063e+01
1.430796e+02	-2.129143e+01
1.439060e+02	-2.134233e+01
1.447372e+02	-2.138933e+01
1.455732e+02	-2.144034e+01
1.464141e+02	-2.148975e+01
1.472597e+02	-2.154025e+01
1.481103e+02	-2.158872e+01
1.489658e+02	-2.164011e+01
1.498262e+02	-2.168840e+01
1.506916e+02	-2.173826e+01
1.515620e+02	-2.178931e+01
1.524374e+02	-2.183878e+01
1.533179e+02	-2.188751e+01
1.542034e+02	-2.193943e+01
1.550941e+02	-2.198586e+01
1.559899e+02	-2.203744e+01
1.568909e+02	-2.208549e+01
1.577971e+02	-2.213556e+01
1.587085e+02	-2.218494e+01
1.596252e+02	-2.223547e+01
1.605472e+02	-2.228503e+01
1.614745e+02	-2.233210e+01
1.624072e+02	-2.238614e+01
1.633453e+02	-2.243487e+01
1.642887e+02	-2.248484e+01
1.652377e+02	-2.253468e+01
1.661921e+02	-2.258405e+01
1.671520e+02	-2.263550e+01
1.681175e+02	-2.268682e+01
1.690885e+02	-2.273459e+01
1.700651e+02	-2.278275e+01
1.710474e+02	-2.283080e+01
1.720354e+02	-2.288379e+01
1.730291e+02	-2.293410e+01
1.740285e+02	-2.298298e+01
1.750337e+02	-2.303181e+01
1.760446e+02	-2.307979e+01
1.770615e+02	-2.313094e+01
1.780842e+02	-2.318229e+01
1.791128e+02	-2.323042e+01
1.801473e+02	-2.328247e+01
1.811878e+02	-2.333166e+01
1.822344e+02	-2.338164e+01
1.832870e+02	-2.342978e+01
1.843456e+02	-2.347951e+01
1.854104e+02	-2.353343e+01
1.864813e+02	-2.358095e+01
1.875584e+02	-2.362929e+01
1.886418e+02	-2.368025e+01
1.897313e+02	-2.372941e+01
1.908272e+02	-2.377958e+01
1.919294e+02	-2.383074e+01
1.930380e+02	-2.387763e+01
1.941530e+02	-2.393048e+01
1.952744e+02	-2.398011e+01
1.964023e+02	-2.402661e+01
1.975367e+02	-2.407757e+01
1.986777e+02	-2.413084e+01
1.998252e+02	-2.417712e+01
2.009794e+02	-2.422882e+01
2.021403e+02	-2.427797e+01
2.033078e+02	-2.432794e+01
2.044821e+02	-2.437916e+01
2.056632e+02	-2.442949e+01
2.068511e+02	-2.447746e+01
2.080459e+02	-2.452739e+01
2.092475e+02	-2.457560e+01
2.104561e+02	-2.462583e+01
2.116717e+02	-2.467673e+01
2.128943e+02	-2.472860e+01
2.141240e+02	-2.477743e+01
2.153608e+02	-2.482408e+01
2.166047e+02	-2.487715e+01
2.178558e+02	-2.492833e+01
2.191141e+02	-2.497448e+01
2.203797e+02	-2.502480e+01
2.216526e+02	-2.507930e+01
2.229329e+02	-2.512434e+01
2.242205e+02	-2.517641e+01
2.255156e+02	-2.522693e+01
2.268182e+02	-2.527633e+01
2.281283e+02	-2.532421e+01
2.294459e+02	-2.537912e+01
2.307712e+02	-2.542668e+01
2.321041e+02	-2.547719e+01
2.334447e+02	-2.552898e+01
2.347931e+02	-2.557352e+01
2.361493e+02	-2.562486e+01
2.375133e+02	-2.567405e+01
2.388851e+02	-2.572674e+01
2.402649e+02	-2.577894e+01
2.416527e+02	-2.582644e+01
2.430484e+02	-2.587536e+01
2.444523e+02	-2.592051e+01
2.458642e+02	-2.597490e+01
2.472843e+02	-2.602537e+01
2.487126e+02	-2.607531e+01
2.501492e+02	-2.612511e+01
2.515940e+02	-2.617320e+01
2.530472e+02	-2.622546e+01
2.545088e+02	-2.627415e+01
2.559789e+02	-2.632347e+01
2.574574e+02	-2.637608e+01
2.589444e+02	-2.642707e+01
2.604401e+02	-2.647269e+01
2.619444e+02	-2.652307e+01
2.634574e+02	-2.657424e+01
2.649791e+02	-2.662409e+01
2.665096e+02	-2.667345e+01
2.680489e+02	-2.672452e+01
2.695972e+02	-2.677292e+01
2.711544e+02	-2.682265e+01
2.727205e+02	-2.687290e+01
2.742958e+02	-2.692626e+01
2.758801e+02	-2.696774e+01
2.774736e+02	-2.702350e+01
2.790762e+02	-2.707365e+01
2.806882e+02	-2.712339e+01
2.823094e+02	-2.717369e+01
2.839400e+02	-2.722417e+01
2.855800e+02	-2.727772e+01
2.872295e+02	-2.732174e+01
2.888886e+02	-2.737190e+01
2.905572e+02	-2.742391e+01
2.922354e+02	-2.747584e+01
2.939234e+02	-2.752633e+01
2.956211e+02	-2.757289e+01
2.973286e+02	-2.762785e+01
2.990459e+02	-2.767439e+01
3.007732e+02	-2.772635e+01
3.025104e+02	-2.777324e+01
3.042577e+02	-2.782530e+01
3.060151e+02	-2.787540e+01
3.077826e+02	-2.792853e+01
3.095604e+02	-2.797420e+01
3.113484e+02	-2.802133e+01
3.131467e+02	-2.807542e+01
3.149554e+02	-2.812695e+01
3.167746e+02	-2.817392e+01
3.186043e+02	-2.822348e+01
3.204445e+02	-2.827542e+01
3.222954e+02	-2.832804e+01
3.241570e+02	-2.837614e+01
3.260293e+02	-2.842372e+01
3.279124e+02	-2.847668e+01
3.298064e+02	-2.852283e+01
3.317114e+02	-2.857587e+01
3.336273e+02	-2.863078e+01
3.355544e+02	-2.867598e+01
3.374925e+02	-2.872874e+01
3.394418e+02	-2.877520e+01
3.414024e+02	-2.883022e+01
3.433744e+02	-2.887801e+01
3.453577e+02	-2.892993e+01
3.473525e+02	-2.897409e+01
3.493588e+02	-2.902985e+01
3.513766e+02	-2.907642e+01
3.534062e+02	-2.913000e+01
3.554474e+02	-2.917720e+01
3.575005e+02	-2.922511e+01
3.595654e+02	-2.927409e+01
3.616422e+02	-2.932593e+01
3.637311e+02	-2.937297e+01
3.658320e+02	-2.942323e+01
3.679450e+02	-2.947715e+01
3.700702e+02	-2.952563e+01
3.722077e+02	-2.957345e+01
3.743576e+02	-2.962326e+01
3.765199e+02	-2.967660e+01
3.786946e+02	-2.972452e+01
3.808820e+02	-2.977699e+01
3.830819e+02	-2.983067e+01
3.852946e+02	-2.987646e+01
3.875200e+02	-2.992628e+01
3.897583e+02	-2.997450e+01
3.920096e+02	-3.002979e+01
3.942738e+02	-3.007901e+01
3.965511e+02	-3.012912e+01
3.988416e+02	-3.017624e+01
4.011452e+02	-3.022842e+01
4.034622e+02	-3.027363e+01
4.057926e+02	-3.032506e+01
4.081365e+02	-3.038041e+01
4.104938e+02	-3.042582e+01
4.128648e+02	-3.048020e+01
4.152495e+02	-3.052636e+01
4.176480e+02	-3.058308e+01
4.200603e+02	-3.062720e+01
4.224866e+02	-3.067424e+01
4.249268e+02	-3.072497e+01
4.273812e+02	-3.077580e+01
4.298497e+02	-3.082966e+01
4.323325e+02	-3.087898e+01
4.348297e+02	-3.092956e+01
4.373412e+02	-3.098099e+01
4.398673e+02	-3.103450e+01
4.424079e+02	-3.108316e+01
4.449633e+02	-3.112708e+01
4.475334e+02	-3.118081e+01
4.501183e+02	-3.122931e+01
4.527182e+02	-3.127907e+01
4.553330e+02	-3.132875e+01
4.579630e+02	-3.137738e+01
4.606082e+02	-3.143189e+01
4.632687e+02	-3.148276e+01
4.659445e+02	-3.152364e+01
4.686358e+02	-3.158439e+01
4.713426e+02	-3.163136e+01
4.740650e+02	-3.167842e+01
4.768032e+02	-3.172718e+01
4.795572e+02	-3.178354e+01
4.823271e+02	-3.183107e+01
4.851130e+02	-3.188166e+01
4.879150e+02	-3.192870e+01
4.907332e+02	-3.198302e+01
4.935676e+02	-3.203461e+01
4.964185e+02	-3.208370e+01
4.992858e+02	-3.213015e+01
5.021696e+02	-3.218553e+01
5.050701e+02	-3.223233e+01
5.079874e+02	-3.227937e+01
5.109215e+02	-3.233397e+01
5.138726e+02	-3.238452e+01
5.168407e+02	-3.243423e+01
5.198259e+02	-3.248590e+01
5.228284e+02	-3.253086e+01
5.258482e+02	-3.258557e+01
5.288855e+02	-3.263580e+01
5.319403e+02	-3.268592e+01
5.350128e+02	-3.273110e+01
5.381030e+02	-3.278138e+01
5.412111e+02	-3.283519e+01
5.443371e+02	-3.289240e+01
5.474812e+02	-3.293259e+01
5.506434e+02	-3.298992e+01
5.538239e+02	-3.302789e+01
5.570228e+02	-3.308749e+01
5.602401e+02	-3.313576e+01
5.634760e+02	-3.319529e+01
5.667306e+02	-3.324302e+01
5.700040e+02	-3.328759e+01
5.732964e+02	-3.334072e+01
5.766077e+02	-3.339701e+01
5.799382e+02	-3.343615e+01
5.832879e+02	-3.348979e+01
5.866569e+02	-3.353439e+01
5.900454e+02	-3.358949e+01
5.934535e+02	-3.363717e+01
5.968813e+02	-3.368999e+01
6.003288e+02	-3.373774e+01
6.037963e+02	-3.378940e+01
6.072838e+02	-3.384046e+01
6.107914e+02	-3.388956e+01
6.143194e+02	-3.393714e+01
6.178676e+02	-3.399109e+01
6.214364e+02	-3.404817e+01
6.250258e+02	-3.409018e+01
6.286359e+02	-3.414929e+01
6.322669e+02	-3.419951e+01
6.359189e+02	-3.424078e+01
6.395919e+02	-3.429384e+01
6.432862e+02	-3.434425e+01
6.470017e+02	-3.439735e+01
6.507388e+02	-3.445192e+01
6.544974e+02	-3.449603e+01
6.582778e+02	-3.454649e+01
6.620800e+02	-3.459693e+01
6.659041e+02	-3.464013e+01
6.697504e+02	-3.469261e+01
6.736188e+02	-3.476008e+01
6.775096e+02	-3.480067e+01
6.814229e+02	-3.483524e+01
6.853587e+02	-3.489931e+01
6.893173e+02	-3.494505e+01
6.932988e+02	-3.499785e+01
6.973033e+02	-3.503830e+01
7.013309e+02	-3.509666e+01
