Frequency(Hz)	Magnitude(dB)
1.000000e+01	-2.405206e+00
1.005776e+01	-2.426529e+00
1.011585e+01	-2.448134e+00
1.017428e+01	-2.469848e+00
1.023305e+01	-2.491364e+00
1.029215e+01	-2.513613e+00
1.035160e+01	-2.535472e+00
1.041139e+01	-2.557782e+00
1.047153e+01	-2.579933e+00
1.053201e+01	-2.602383e+00
1.059284e+01	-2.625061e+00
1.065403e+01	-2.648007e+00
1.071556e+01	-2.670789e+00
1.077746e+01	-2.693802e+00
1.083971e+01	-2.717092e+00
1.090232e+01	-2.740228e+00
1.096529e+01	-2.763992e+00
1.102862e+01	-2.787441e+00
1.109232e+01	-2.811231e+00
1.115639e+01	-2.834969e+00
1.122083e+01	-2.859216e+00
1.128564e+01	-2.883406e+00
1.135083e+01	-2.907576e+00
1.141639e+01	-2.932178e+00
1.148233e+01	-2.956853e+00
1.154865e+01	-2.981595e+00
1.161536e+01	-3.006784e+00
1.168245e+01	-3.031568e+00
1.174992e+01	-3.056764e+00
1.181779e+01	-3.082162e+00
1.188605e+01	-3.107734e+00
1.195470e+01	-3.133372e+00
1.202375e+01	-3.159177e+00
1.209320e+01	-3.184987e+00
1.216305e+01	-3.211095e+00
1.223330e+01	-3.237402e+00
1.230396e+01	-3.263650e+00
1.237503e+01	-3.290342e+00
1.244651e+01	-3.316768e+00
1.251840e+01	-3.343575e+00
1.259070e+01	-3.370578e+00
1.266343e+01	-3.397577e+00
1.273657e+01	-3.424846e+00
1.281014e+01	-3.452340e+00
1.288413e+01	-3.479923e+00
1.295855e+01	-3.507363e+00
1.303339e+01	-3.535176e+00
1.310867e+01	-3.563118e+00
1.318439e+01	-3.591041e+00
1.326054e+01	-3.619646e+00
1.333713e+01	-3.647655e+00
1.341417e+01	-3.676271e+00
1.349165e+01	-3.705008e+00
1.356958e+01	-3.733638e+00
1.364795e+01	-3.762563e+00
1.372678e+01	-3.791735e+00
1.380607e+01	-3.820840e+00
1.388581e+01	-3.850095e+00
1.396602e+01	-3.879386e+00
1.404668e+01	-3.909141e+00
1.412782e+01	-3.939088e+00
1.420942e+01	-3.968775e+00
1.429149e+01	-3.998791e+00
1.437404e+01	-4.029137e+00
1.445706e+01	-4.059738e+00
1.454057e+01	-4.089690e+00
1.462455e+01	-4.120403e+00
1.470902e+01	-4.151067e+00
1.479398e+01	-4.182022e+00
1.487943e+01	-4.213152e+00
1.496537e+01	-4.244153e+00
1.505181e+01	-4.275304e+00
1.513875e+01	-4.306975e+00
1.522619e+01	-4.338466e+00
1.531414e+01	-4.370014e+00
1.540259e+01	-4.401853e+00
1.549156e+01	-4.433828e+00
1.558103e+01	-4.466006e+00
1.567103e+01	-4.498041e+00
1.576155e+01	-4.530468e+00
1.585258e+01	-4.562774e+00
1.594415e+01	-4.595349e+00
1.603624e+01	-4.628140e+00
1.612886e+01	-4.660841e+00
1.622202e+01	-4.694122e+00
1.631572e+01	-4.727261e+00
1.640996e+01	-4.760175e+00
1.650474e+01	-4.793899e+00
1.660008e+01	-4.827264e+00
1.669596e+01	-4.860763e+00
1.679239e+01	-4.894512e+00
1.688938e+01	-4.928412e+00
1.698694e+01	-4.962395e+00
1.708505e+01	-4.996573e+00
1.718373e+01	-5.030760e+00
1.728299e+01	-5.065549e+00
1.738281e+01	-5.099733e+00
1.748322e+01	-5.134475e+00
1.758420e+01	-5.169053e+00
1.768576e+01	-5.203992e+00
1.778792e+01	-5.239034e+00
1.789066e+01	-5.274313e+00
1.799399e+01	-5.309228e+00
1.809793e+01	-5.344755e+00
1.820246e+01	-5.380440e+00
1.830760e+01	-5.415906e+00
1.841334e+01	-5.451689e+00
1.851969e+01	-5.487352e+00
1.862666e+01	-5.523475e+00
1.873425e+01	-5.558923e+00
1.884246e+01	-5.595735e+00
1.895129e+01	-5.631763e+00
1.906075e+01	-5.668210e+00
1.917085e+01	-5.704648e+00
1.928158e+01	-5.741215e+00
1.939295e+01	-5.778063e+00
1.950496e+01	-5.814952e+00
1.961762e+01	-5.851894e+00
1.973093e+01	-5.889163e+00
1.984490e+01	-5.926210e+00
1.995952e+01	-5.963619e+00
2.007480e+01	-6.000948e+00
2.019076e+01	-6.038536e+00
2.030738e+01	-6.075897e+00
2.042467e+01	-6.113888e+00
2.054264e+01	-6.151485e+00
2.066130e+01	-6.189738e+00
2.078064e+01	-6.227732e+00
2.090066e+01	-6.265733e+00
2.102139e+01	-6.303724e+00
2.114280e+01	-6.342361e+00
2.126492e+01	-6.380689e+00
2.138775e+01	-6.419484e+00
2.151128e+01	-6.458116e+00
2.163553e+01	-6.496789e+00
2.176050e+01	-6.535948e+00
2.188619e+01	-6.574883e+00
2.201260e+01	-6.613723e+00
2.213974e+01	-6.653043e+00
2.226762e+01	-6.691581e+00
2.239624e+01	-6.731491e+00
2.252560e+01	-6.770618e+00
2.265571e+01	-6.810684e+00
2.278656e+01	-6.850343e+00
2.291818e+01	-6.889845e+00
2.305055e+01	-6.929470e+00
2.318369e+01	-6.969382e+00
2.331760e+01	-7.009878e+00
2.345228e+01	-7.049891e+00
2.358774e+01	-7.090162e+00
2.372398e+01	-7.130190e+00
2.386101e+01	-7.170861e+00
2.399883e+01	-7.211162e+00
2.413745e+01	-7.251664e+00
2.427686e+01	-7.292238e+00
2.441709e+01	-7.333062e+00
2.455812e+01	-7.373993e+00
2.469997e+01	-7.414969e+00
2.484263e+01	-7.455923e+00
2.498612e+01	-7.496969e+00
2.513044e+01	-7.538343e+00
2.527559e+01	-7.579339e+00
2.542158e+01	-7.620791e+00
2.556842e+01	-7.661846e+00
2.571610e+01	-7.703869e+00
2.586463e+01	-7.745092e+00
2.601403e+01	-7.787119e+00
2.616428e+01	-7.828725e+00
2.631541e+01	-7.870310e+00
2.646740e+01	-7.912498e+00
2.662028e+01	-7.954500e+00
2.677404e+01	-7.996437e+00
2.692868e+01	-8.038475e+00
2.708422e+01	-8.080674e+00
2.724066e+01	-8.123187e+00
2.739800e+01	-8.165337e+00
2.755625e+01	-8.208016e+00
2.771541e+01	-8.250271e+00
2.787550e+01	-8.293090e+00
2.803650e+01	-8.335347e+00
2.819844e+01	-8.378727e+00
2.836131e+01	-8.421060e+00
2.852513e+01	-8.463895e+00
2.868989e+01	-8.506881e+00
2.885560e+01	-8.549757e+00
2.902227e+01	-8.593162e+00
2.918990e+01	-8.635836e+00
2.935850e+01	-8.678810e+00
2.952807e+01	-8.722592e+00
2.969863e+01	-8.765474e+00
2.987016e+01	-8.809553e+00
3.004269e+01	-8.852818e+00
3.021622e+01	-8.896187e+00
3.039075e+01	-8.939734e+00
3.056628e+01	-8.983483e+00
3.074283e+01	-9.027343e+00
3.092040e+01	-9.071181e+00
3.109900e+01	-9.114826e+00
3.127862e+01	-9.158957e+00
3.145929e+01	-9.202812e+00
3.164099e+01	-9.247011e+00
3.182375e+01	-9.291428e+00
3.200756e+01	-9.335124e+00
3.219244e+01	-9.379193e+00
3.237838e+01	-9.423929e+00
3.256540e+01	-9.467761e+00
3.275349e+01	-9.512518e+00
3.294268e+01	-9.557139e+00
3.313295e+01	-9.601297e+00
3.332433e+01	-9.646269e+00
3.351681e+01	-9.690727e+00
3.371040e+01	-9.735229e+00
3.390511e+01	-9.779756e+00
3.410094e+01	-9.824854e+00
3.429791e+01	-9.869175e+00
3.449601e+01	-9.914785e+00
3.469526e+01	-9.958958e+00
3.489566e+01	-1.000426e+01
3.509721e+01	-1.004940e+01
3.529993e+01	-1.009441e+01
3.550382e+01	-1.013965e+01
3.570889e+01	-1.018512e+01
3.591515e+01	-1.023001e+01
3.612259e+01	-1.027604e+01
3.633123e+01	-1.032030e+01
3.654108e+01	-1.036648e+01
3.675214e+01	-1.041210e+01
3.696442e+01	-1.045755e+01
3.717792e+01	-1.050270e+01
3.739266e+01	-1.054871e+01
3.760864e+01	-1.059370e+01
3.782587e+01	-1.064003e+01
3.804435e+01	-1.068513e+01
3.826409e+01	-1.073079e+01
3.848510e+01	-1.077707e+01
3.870739e+01	-1.082366e+01
3.893096e+01	-1.086890e+01
3.915583e+01	-1.091472e+01
3.938199e+01	-1.096092e+01
3.960946e+01	-1.100703e+01
3.983824e+01	-1.105273e+01
4.006834e+01	-1.109870e+01
4.029978e+01	-1.114545e+01
4.053255e+01	-1.119115e+01
4.076666e+01	-1.123749e+01
4.100213e+01	-1.128408e+01
4.123896e+01	-1.133044e+01
4.147715e+01	-1.137698e+01
4.171672e+01	-1.142300e+01
4.195767e+01	-1.147044e+01
4.220002e+01	-1.151662e+01
4.244377e+01	-1.156226e+01
4.268892e+01	-1.160930e+01
4.293549e+01	-1.165588e+01
4.318348e+01	-1.170175e+01
4.343291e+01	-1.174830e+01
4.368377e+01	-1.179539e+01
4.393609e+01	-1.184242e+01
4.418986e+01	-1.188932e+01
4.444510e+01	-1.193573e+01
4.470182e+01	-1.198291e+01
4.496001e+01	-1.202870e+01
4.521970e+01	-1.207644e+01
4.548089e+01	-1.212363e+01
4.574358e+01	-1.217064e+01
4.600779e+01	-1.221771e+01
4.627353e+01	-1.226469e+01
4.654081e+01	-1.231156e+01
4.680963e+01	-1.235850e+01
4.708000e+01	-1.240517e+01
4.735193e+01	-1.245282e+01
4.762543e+01	-1.250047e+01
4.790051e+01	-1.254711e+01
4.817719e+01	-1.259438e+01
4.845545e+01	-1.264198e+01
4.873533e+01	-1.268914e+01
4.901682e+01	-1.273639e+01
4.929994e+01	-1.278405e+01
4.958470e+01	-1.283123e+01
4.987110e+01	-1.287886e+01
5.015915e+01	-1.292630e+01
5.044887e+01	-1.297359e+01
5.074026e+01	-1.302144e+01
5.103333e+01	-1.306928e+01
5.132810e+01	-1.311642e+01
5.162457e+01	-1.316404e+01
5.192275e+01	-1.321107e+01
5.222265e+01	-1.325930e+01
5.252429e+01	-1.330778e+01
5.282767e+01	-1.335466e+01
5.313280e+01	-1.340194e+01
5.343969e+01	-1.345034e+01
5.374836e+01	-1.349827e+01
5.405880e+01	-1.354577e+01
5.437105e+01	-1.359413e+01
5.468509e+01	-1.364173e+01
5.500095e+01	-1.368954e+01
5.531863e+01	-1.373771e+01
5.563815e+01	-1.378537e+01
5.595951e+01	-1.383354e+01
5.628273e+01	-1.388131e+01
5.660782e+01	-1.392936e+01
5.693479e+01	-1.397621e+01
5.726364e+01	-1.402437e+01
5.759439e+01	-1.407325e+01
5.792705e+01	-1.412186e+01
5.826164e+01	-1.416920e+01
5.859815e+01	-1.421823e+01
5.893662e+01	-1.426570e+01
5.927703e+01	-1.431330e+01
5.961941e+01	-1.436185e+01
5.996377e+01	-1.441038e+01
6.031012e+01	-1.445806e+01
6.065847e+01	-1.450624e+01
6.100883e+01	-1.455562e+01
6.136121e+01	-1.460330e+01
6.171563e+01	-1.465144e+01
6.207210e+01	-1.469998e+01
6.243063e+01	-1.474825e+01
6.279122e+01	-1.479613e+01
6.315390e+01	-1.484540e+01
6.351868e+01	-1.489334e+01
6.388556e+01	-1.494103e+01
6.425456e+01	-1.499030e+01
6.462569e+01	-1.503868e+01
6.499897e+01	-1.508760e+01
6.537440e+01	-1.513601e+01
6.575200e+01	-1.518488e+01
6.613178e+01	-1.523239e+01
6.651375e+01	-1.528097e+01
6.689793e+01	-1.533085e+01
6.728433e+01	-1.537770e+01
6.767297e+01	-1.542670e+01
6.806384e+01	-1.547657e+01
6.845698e+01	-1.552413e+01
6.885238e+01	-1.557216e+01
6.925007e+01	-1.562202e+01
6.965005e+01	-1.567083e+01
7.005235e+01	-1.571938e+01
7.045697e+01	-1.576774e+01
7.086393e+01	-1.581529e+01
7.127323e+01	-1.586473e+01
7.168490e+01	-1.591370e+01
7.209895e+01	-1.596124e+01
7.251539e+01	-1.601060e+01
7.293424e+01	-1.605889e+01
7.335551e+01	-1.610887e+01
7.377920e+01	-1.615711e+01
7.420535e+01	-1.620513e+01
7.463396e+01	-1.625485e+01
7.506504e+01	-1.630450e+01
7.549861e+01	-1.635352e+01
7.593469e+01	-1.640175e+01
7.637328e+01	-1.645138e+01
7.681441e+01	-1.649978e+01
7.725809e+01	-1.654899e+01
7.770433e+01	-1.659736e+01
7.815315e+01	-1.664572e+01
7.860456e+01	-1.669538e+01
7.905857e+01	-1.674479e+01
7.951521e+01	-1.679319e+01
7.997449e+01	-1.684150e+01
8.043642e+01	-1.689144e+01
8.090102e+01	-1.693980e+01
8.136830e+01	-1.698864e+01
8.183828e+01	-1.703738e+01
8.231097e+01	-1.708712e+01
8.278640e+01	-1.713613e+01
8.326457e+01	-1.718593e+01
8.374550e+01	-1.723448e+01
8.422921e+01	-1.728477e+01
8.471572e+01	-1.733279e+01
8.520503e+01	-1.738200e+01
8.569717e+01	-1.743032e+01
8.619215e+01	-1.747927e+01
8.669000e+01	-1.752947e+01
8.719071e+01	-1.757897e+01
8.769432e+01	-1.762730e+01
8.820084e+01	-1.767518e+01
8.871029e+01	-1.772614e+01
8.922267e+01	-1.777469e+01
8.973802e+01	-1.782457e+01
9.025634e+01	-1.787386e+01
9.077766e+01	-1.792248e+01
9.130199e+01	-1.797380e+01
9.182935e+01	-1.802060e+01
9.235975e+01	-1.806962e+01
9.289321e+01	-1.811940e+01
9.342976e+01	-1.816965e+01
9.396941e+01	-1.821742e+01
9.451217e+01	-1.826673e+01
9.505807e+01	-1.831735e+01
9.560712e+01	-1.836630e+01
9.615934e+01	-1.841525e+01
9.671476e+01	-1.846422e+01
9.727338e+01	-1.851375e+01
9.783522e+01	-1.856292e+01
9.840032e+01	-1.861207e+01
9.896867e+01	-1.866241e+01
9.954031e+01	-1.870910e+01
1.001153e+02	-1.876165e+01
1.006935e+02	-1.880911e+01
1.012751e+02	-1.886009e+01
1.018601e+02	-1.890874e+01
1.024484e+02	-1.895905e+01
1.030402e+02	-1.900684e+01
1.036353e+02	-1.905643e+01
1.042339e+02	-1.910697e+01
1.048360e+02	-1.915636e+01
1.054415e+02	-1.920587e+01
1.060505e+02	-1.925615e+01
1.066631e+02	-1.930421e+01
1.072791e+02	-1.935400e+01
1.078988e+02	-1.940309e+01
1.085220e+02	-1.945290e+01
1.091488e+02	-1.950134e+01
1.097793e+02	-1.955099e+01
1.104133e+02	-1.960202e+01
1.110511e+02	-1.964867e+01
1.116925e+02	-1.970028e+01
1.123376e+02	-1.974960e+01
1.129865e+02	-1.979947e+01
1.136391e+02	-1.984924e+01
1.142955e+02	-1.989799e+01
1.149556e+02	-1.994788e+01
1.156196e+02	-1.999843e+01
1.162874e+02	-2.004728e+01
1.169591e+02	-2.009680e+01
1.176347e+02	-2.014709e+01
1.183141e+02	-2.019606e+01
1.189975e+02	-2.024448e+01
1.196848e+02	-2.029458e+01
1.203761e+02	-2.034443e+01
1.210714e+02	-2.039408e+01
1.217707e+02	-2.044414e+01
1.224740e+02	-2.049272e+01
1.231814e+02	-2.054281e+01
1.238929e+02	-2.059231e+01
1.246085e+02	-2.064168e+01
1.253283e+02	-2.069086e+01
1.260522e+02	-2.074174e+01
1.267802e+02	-2.079033e+01
1.275125e+02	-2.083923e+01
1.282490e+02	-2.089059e+01
1.289898e+02	-2.093851e+01
1.297348e+02	-2.098740e+01
1.304842e+02	-2.103766e+01
1.312378e+02	-2.108647e+01
1.319959e+02	-2.113706e+01
1.327583e+02	-2.118794e+01
1.335251e+02	-2.123508e+01
1.342963e+02	-2.128616e+01
1.350720e+02	-2.133610e+01
1.358522e+02	-2.138611e+01
1.366368e+02	-2.143557e+01
1.374260e+02	-2.148467e+01
1.382198e+02	-2.153645e+01
1.390182e+02	-2.158479e+01
1.398211e+02	-2.163503e+01
1.406287e+02	-2.168435e+01
1.414410e+02	-2.173315e+01
1.422579e+02	-2.178413e+01
1.430796e+02	-2.183305e+01
1.439060e+02	-2.188231e+01
1.447372e+02	-2.193436e+01
1.455732e+02	-2.198218e+01
1.464141e+02	-2.203194e+01
1.472597e+02	-2.208187e+01
1.481103e+02	-2.213332e+01
1.489658e+02	-2.218269e+01
1.498262e+02	-2.223169e+01
1.506916e+02	-2.228294e+01
1.515620e+02	-2.232993e+01
1.524374e+02	-2.237933e+01
1.533179e+02	-2.242929e+01
1.542034e+02	-2.247878e+01
1.550941e+02	-2.253086e+01
1.559899e+02	-2.257947e+01
1.568909e+02	-2.262815e+01
1.577971e+02	-2.267977e+01
1.587085e+02	-2.272760e+01
1.596252e+02	-2.277864e+01
1.605472e+02	-2.282936e+01
1.614745e+02	-2.287829e+01
1.624072e+02	-2.292588e+01
1.633453e+02	-2.297809e+01
1.642887e+02	-2.302796e+01
1.652377e+02	-2.307600e+01
1.661921e+02	-2.312910e+01
1.671520e+02	-2.317634e+01
1.681175e+02	-2.322577e+01
1.690885e+02	-2.327763e+01
1.700651e+02	-2.332661e+01
1.710474e+02	-2.337625e+01
1.720354e+02	-2.342625e+01
1.730291e+02	-2.347620e+01
1.740285e+02	-2.352669e+01
1.750337e+02	-2.357331e+01
1.760446e+02	-2.362507e+01
1.770615e+02	-2.367528e+01
1.780842e+02	-2.372533e+01
1.791128e+02	-2.377743e+01
1.801473e+02	-2.382726e+01
1.811878e+02	-2.387491e+01
1.822344e+02	-2.392514e+01
1.832870e+02	-2.397443e+01
1.843456e+02	-2.402532e+01
1.854104e+02	-2.407376e+01
1.864813e+02	-2.412313e+01
1.875584e+02	-2.417133e+01
1.886418e+02	-2.422419e+01
1.897313e+02	-2.427598e+01
1.908272e+02	-2.432425e+01
1.919294e+02	-2.437443e+01
1.930380e+02	-2.442249e+01
1.941530e+02	-2.447286e+01
1.952744e+02	-2.452303e+01
1.964023e+02	-2.457315e+01
1.975367e+02	-2.462169e+01
1.986777e+02	-2.467345e+01
1.998252e+02	-2.472315e+01
2.009794e+02	-2.477038e+01
2.021403e+02	-2.482043e+01
2.033078e+02	-2.487219e+01
2.044821e+02	-2.492415e+01
2.056632e+02	-2.497449e+01
2.068511e+02	-2.502130e+01
2.080459e+02	-2.507405e+01
2.092475e+02	-2.512201e+01
2.104561e+02	-2.517074e+01
2.116717e+02	-2.522354e+01
2.128943e+02	-2.526907e+01
2.141240e+02	-2.532377e+01
2.153608e+02	-2.536918e+01
2.166047e+02	-2.542137e+01
2.178558e+02	-2.547177e+01
2.191141e+02	-2.551924e+01
2.203797e+02	-2.557125e+01
2.216526e+02	-2.562321e+01
2.229329e+02	-2.567278e+01
2.242205e+02	-2.571880e+01
2.255156e+02	-2.577063e+01
2.268182e+02	-2.582259e+01
2.281283e+02	-2.586990e+01
2.294459e+02	-2.591843e+01
2.307712e+02	-2.597211e+01
2.321041e+02	-2.602190e+01
2.334447e+02	-2.607247e+01
2.347931e+02	-2.612159e+01
2.361493e+02	-2.616998e+01
2.375133e+02	-2.622029e+01
2.388851e+02	-2.627109e+01
2.402649e+02	-2.631773e+01
2.416527e+02	-2.636808e+01
2.430484e+02	-2.642304e+01
2.444523e+02	-2.646937e+01
2.458642e+02	-2.652109e+01
2.472843e+02	-2.657236e+01
2.487126e+02	-2.662084e+01
2.501492e+02	-2.666952e+01
2.515940e+02	-2.671819e+01
2.530472e+02	-2.677152e+01
2.545088e+02	-2.681970e+01
2.559789e+02	-2.686864e+01
2.574574e+02	-2.691850e+01
2.589444e+02	-2.696946e+01
2.604401e+02	-2.701881e+01
2.619444e+02	-2.706651e+01
2.634574e+02	-2.712286e+01
2.649791e+02	-2.716747e+01
2.665096e+02	-2.721781e+01
2.680489e+02	-2.727155e+01
2.695972e+02	-2.731768e+01
2.711544e+02	-2.736932e+01
2.727205e+02	-2.741940e+01
2.742958e+02	-2.746659e+01
2.758801e+02	-2.752171e+01
2.774736e+02	-2.756796e+01
2.790762e+02	-2.761655e+01
2.806882e+02	-2.766757e+01
2.823094e+02	-2.772009e+01
2.839400e+02	-2.777082e+01
2.855800e+02	-2.782024e+01
2.872295e+02	-2.787049e+01
2.888886e+02	-2.792008e+01
2.905572e+02	-2.797100e+01
2.922354e+02	-2.801825e+01
2.939234e+02	-2.807134e+01
2.956211e+02	-2.811986e+01
2.973286e+02	-2.817072e+01
2.990459e+02	-2.822137e+01
3.007732e+02	-2.826980e+01
3.025104e+02	-2.831671e+01
3.042577e+02	-2.837008e+01
3.060151e+02	-2.842359e+01
3.077826e+02	-2.847047e+01
3.095604e+02	-2.852236e+01
3.113484e+02	-2.857056e+01
3.131467e+02	-2.862192e+01
3.149554e+02	-2.867016e+01
3.167746e+02	-2.871623e+01
3.186043e+02	-2.877069e+01
3.204445e+02	-2.881629e+01
3.222954e+02	-2.886722e+01
3.241570e+02	-2.891885e+01
3.260293e+02	-2.897034e+01
3.279124e+02	-2.902063e+01
3.298064e+02	-2.907457e+01
3.317114e+02	-2.911950e+01
3.336273e+02	-2.917146e+01
3.355544e+02	-2.921947e+01
3.374925e+02	-2.927072e+01
3.394418e+02	-2.931799e+01
3.414024e+02	-2.937265e+01
3.433744e+02	-2.942446e+01
3.453577e+02	-2.947284e+01
3.473525e+02	-2.952048e+01
3.493588e+02	-2.957496e+01
3.513766e+02	-2.962122e+01
3.534062e+02	-2.967419e+01
3.554474e+02	-2.972146e+01
3.575005e+02	-2.977359e+01
3.595654e+02	-2.982612e+01
3.616422e+02	-2.987121e+01
3.637311e+02	-2.992379e+01
3.658320e+02	-2.997685e+01
3.679450e+02	-3.002468e+01
3.700702e+02	-3.007173e+01
3.722077e+02	-3.011738e+01
3.743576e+02	-3.017804e+01
3.765199e+02	-3.022431e+01
3.786946e+02	-3.027124e+01
3.808820e+02	-3.032080e+01
3.830819e+02	-3.037459e+01
3.852946e+02	-3.042765e+01
3.875200e+02	-3.046810e+01
3.897583e+02	-3.052605e+01
3.920096e+02	-3.056868e+01
3.942738e+02	-3.061737e+01
3.965511e+02	-3.067505e+01
3.988416e+02	-3.072244e+01
4.011452e+02	-3.077275e+01
4.034622e+02	-3.082111e+01
4.057926e+02	-3.087199e+01
4.081365e+02	-3.092708e+01
4.104938e+02	-3.097193e+01
4.128648e+02	-3.102536e+01
4.152495e+02	-3.107786e+01
4.176480e+02	-3.112970e+01
4.200603e+02	-3.117354e+01
4.224866e+02	-3.122503e+01
4.249268e+02	-3.127417e+01
4.273812e+02	-3.132876e+01
4.298497e+02	-3.137600e+01
4.323325e+02	-3.142039e+01
4.348297e+02	-3.147644e+01
4.373412e+02	-3.152018e+01
4.398673e+02	-3.157891e+01
4.424079e+02	-3.162988e+01
4.449633e+02	-3.167812e+01
4.475334e+02	-3.172415e+01
4.501183e+02	-3.177169e+01
4.527182e+02	-3.182608e+01
4.553330e+02	-3.187737e+01
4.579630e+02	-3.192936e+01
4.606082e+02	-3.198441e+01
4.632687e+02	-3.203280e+01
4.659445e+02	-3.207857e+01
4.686358e+02	-3.213060e+01
4.713426e+02	-3.218555e+01
4.740650e+02	-3.223172e+01
4.768032e+02	-3.228111e+01
4.795572e+02	-3.233044e+01
4.823271e+02	-3.237239e+01
4.851130e+02	-3.242666e+01
4.879150e+02	-3.248737e+01
4.907332e+02	-3.252795e+01
4.935676e+02	-3.258069e+01
4.964185e+02	-3.262990e+01
4.992858e+02	-3.267522e+01
5.021696e+02	-3.272585e+01
5.050701e+02	-3.277544e+01
5.079874e+02	-3.282563e+01
5.109215e+02	-3.287909e+01
5.138726e+02	-3.292354e+01
5.168407e+02	-3.298302e+01
5.198259e+02	-3.303301e+01
5.228284e+02	-3.308491e+01
5.258482e+02	-3.313303e+01
5.288855e+02	-3.317923e+01
5.319403e+02	-3.323654e+01
5.350128e+02	-3.328478e+01
5.381030e+02	-3.333070e+01
5.412111e+02	-3.337776e+01
5.443371e+02	-3.343464e+01
5.474812e+02	-3.349121e+01
5.506434e+02	-3.353413e+01
5.538239e+02	-3.357601e+01
5.570228e+02	-3.363787e+01
5.602401e+02	-3.368962e+01
5.634760e+02	-3.372873e+01
5.667306e+02	-3.378256e+01
5.700040e+02	-3.383385e+01
5.732964e+02	-3.388603e+01
5.766077e+02	-3.393533e+01
5.799382e+02	-3.398840e+01
5.832879e+02	-3.403349e+01
5.866569e+02	-3.408935e+01
5.900454e+02	-3.413753e+01
5.934535e+02	-3.418775e+01
5.968813e+02	-3.424043e+01
6.003288e+02	-3.429353e+01
6.037963e+02	-3.433401e+01
6.072838e+02	-3.439277e+01
6.107914e+02	-3.442684e+01
6.143194e+02	-3.449202e+01
6.178676e+02	-3.453403e+01
6.214364e+02	-3.459502e+01
6.250258e+02	-3.464406e+01
6.286359e+02	-3.469270e+01
6.322669e+02	-3.474519e+01
6.359189e+02	-3.479653e+01
6.395919e+02	-3.483517e+01
6.432862e+02	-3.488018e+01
6.470017e+02	-3.493728e+01
6.507388e+02	-3.499824e+01
6.544974e+02	-3.503732e+01
6.582778e+02	-3.509149e+01
6.620800e+02	-3.513920e+01
6.659041e+02	-3.519466e+01
6.697504e+02	-3.523977e+01
6.736188e+02	-3.529658e+01
6.775096e+02	-3.535223e+01
6.814229e+02	-3.539710e+01
6.853587e+02	-3.545157e+01
6.893173e+02	-3.550491e+01
6.932988e+02	-3.554850e+01
6.973033e+02	-3.559562e+01
7.013309e+02	-3.565186e+01
