Frequency(Hz)	Magnitude(dB)
1.000000e+01	-1.692429e-05
1.005776e+01	-1.712036e-05
1.011585e+01	-1.731870e-05
1.017428e+01	-1.751934e-05
1.023305e+01	-1.772231e-05
1.029215e+01	-1.792763e-05
1.035160e+01	-1.813532e-05
1.041139e+01	-1.834542e-05
1.047153e+01	-1.855796e-05
1.053201e+01	-1.877296e-05
1.059284e+01	-1.899045e-05
1.065403e+01	-1.921046e-05
1.071556e+01	-1.943302e-05
1.077746e+01	-1.965815e-05
1.083971e+01	-1.988590e-05
1.090232e+01	-2.011628e-05
1.096529e+01	-2.034933e-05
1.102862e+01	-2.058509e-05
1.109232e+01	-2.082357e-05
1.115639e+01	-2.106481e-05
1.122083e+01	-2.130886e-05
1.128564e+01	-2.155572e-05
1.135083e+01	-2.180545e-05
1.141639e+01	-2.205807e-05
1.148233e+01	-2.231362e-05
1.154865e+01	-2.257213e-05
1.161536e+01	-2.283364e-05
1.168245e+01	-2.309817e-05
1.174992e+01	-2.336577e-05
1.181779e+01	-2.363647e-05
1.188605e+01	-2.391030e-05
1.195470e+01	-2.418731e-05
1.202375e+01	-2.446752e-05
1.209320e+01	-2.475098e-05
1.216305e+01	-2.503773e-05
1.223330e+01	-2.532780e-05
1.230396e+01	-2.562123e-05
1.237503e+01	-2.591806e-05
1.244651e+01	-2.621832e-05
1.251840e+01	-2.652207e-05
1.259070e+01	-2.682933e-05
1.266343e+01	-2.714016e-05
1.273657e+01	-2.745458e-05
1.281014e+01	-2.777265e-05
1.288413e+01	-2.809440e-05
1.295855e+01	-2.841988e-05
1.303339e+01	-2.874914e-05
1.310867e+01	-2.908220e-05
1.318439e+01	-2.941913e-05
1.326054e+01	-2.975995e-05
1.333713e+01	-3.010473e-05
1.341417e+01	-3.045350e-05
1.349165e+01	-3.080631e-05
1.356958e+01	-3.116321e-05
1.364795e+01	-3.152424e-05
1.372678e+01	-3.188946e-05
1.380607e+01	-3.225891e-05
1.388581e+01	-3.263263e-05
1.396602e+01	-3.301069e-05
1.404668e+01	-3.339313e-05
1.412782e+01	-3.377999e-05
1.420942e+01	-3.417134e-05
1.429149e+01	-3.456723e-05
1.437404e+01	-3.496770e-05
1.445706e+01	-3.537280e-05
1.454057e+01	-3.578261e-05
1.462455e+01	-3.619716e-05
1.470902e+01	-3.661651e-05
1.479398e+01	-3.704072e-05
1.487943e+01	-3.746984e-05
1.496537e+01	-3.790394e-05
1.505181e+01	-3.834307e-05
1.513875e+01	-3.878728e-05
1.522619e+01	-3.923664e-05
1.531414e+01	-3.969120e-05
1.540259e+01	-4.015104e-05
1.549156e+01	-4.061620e-05
1.558103e+01	-4.108674e-05
1.567103e+01	-4.156274e-05
1.576155e+01	-4.204426e-05
1.585258e+01	-4.253135e-05
1.594415e+01	-4.302408e-05
1.603624e+01	-4.352253e-05
1.612886e+01	-4.402674e-05
1.622202e+01	-4.453680e-05
1.631572e+01	-4.505277e-05
1.640996e+01	-4.557472e-05
1.650474e+01	-4.610271e-05
1.660008e+01	-4.663682e-05
1.669596e+01	-4.717712e-05
1.679239e+01	-4.772368e-05
1.688938e+01	-4.827657e-05
1.698694e+01	-4.883586e-05
1.708505e+01	-4.940163e-05
1.718373e+01	-4.997396e-05
1.728299e+01	-5.055292e-05
1.738281e+01	-5.113859e-05
1.748322e+01	-5.173104e-05
1.758420e+01	-5.233035e-05
1.768576e+01	-5.293661e-05
1.778792e+01	-5.354989e-05
1.789066e+01	-5.417028e-05
1.799399e+01	-5.479785e-05
1.809793e+01	-5.543270e-05
1.820246e+01	-5.607490e-05
1.830760e+01	-5.672454e-05
1.841334e+01	-5.738170e-05
1.851969e+01	-5.804648e-05
1.862666e+01	-5.871896e-05
1.873425e+01	-5.939923e-05
1.884246e+01	-6.008738e-05
1.895129e+01	-6.078351e-05
1.906075e+01	-6.148770e-05
1.917085e+01	-6.220005e-05
1.928158e+01	-6.292064e-05
1.939295e+01	-6.364959e-05
1.950496e+01	-6.438699e-05
1.961762e+01	-6.513292e-05
1.973093e+01	-6.588750e-05
1.984490e+01	-6.665082e-05
1.995952e+01	-6.742298e-05
2.007480e+01	-6.820409e-05
2.019076e+01	-6.899425e-05
2.030738e+01	-6.979356e-05
2.042467e+01	-7.060213e-05
2.054264e+01	-7.142007e-05
2.066130e+01	-7.224748e-05
2.078064e+01	-7.308448e-05
2.090066e+01	-7.393118e-05
2.102139e+01	-7.478768e-05
2.114280e+01	-7.565411e-05
2.126492e+01	-7.653058e-05
2.138775e+01	-7.741720e-05
2.151128e+01	-7.831409e-05
2.163553e+01	-7.922137e-05
2.176050e+01	-8.013917e-05
2.188619e+01	-8.106759e-05
2.201260e+01	-8.200677e-05
2.213974e+01	-8.295684e-05
2.226762e+01	-8.391791e-05
2.239624e+01	-8.489011e-05
2.252560e+01	-8.587357e-05
2.265571e+01	-8.686843e-05
2.278656e+01	-8.787482e-05
2.291818e+01	-8.889286e-05
2.305055e+01	-8.992270e-05
2.318369e+01	-9.096447e-05
2.331760e+01	-9.201831e-05
2.345228e+01	-9.308435e-05
2.358774e+01	-9.416275e-05
2.372398e+01	-9.525364e-05
2.386101e+01	-9.635717e-05
2.399883e+01	-9.747348e-05
2.413745e+01	-9.860273e-05
2.427686e+01	-9.974505e-05
2.441709e+01	-1.009006e-04
2.455812e+01	-1.020696e-04
2.469997e+01	-1.032521e-04
2.484263e+01	-1.044482e-04
2.498612e+01	-1.056583e-04
2.513044e+01	-1.068824e-04
2.527559e+01	-1.081206e-04
2.542158e+01	-1.093732e-04
2.556842e+01	-1.106403e-04
2.571610e+01	-1.119221e-04
2.586463e+01	-1.132187e-04
2.601403e+01	-1.145304e-04
2.616428e+01	-1.158572e-04
2.631541e+01	-1.171994e-04
2.646740e+01	-1.185572e-04
2.662028e+01	-1.199307e-04
2.677404e+01	-1.213201e-04
2.692868e+01	-1.227256e-04
2.708422e+01	-1.241474e-04
2.724066e+01	-1.255857e-04
2.739800e+01	-1.270406e-04
2.755625e+01	-1.285124e-04
2.771541e+01	-1.300012e-04
2.787550e+01	-1.315073e-04
2.803650e+01	-1.330308e-04
2.819844e+01	-1.345720e-04
2.836131e+01	-1.361310e-04
2.852513e+01	-1.377081e-04
2.868989e+01	-1.393035e-04
2.885560e+01	-1.409173e-04
2.902227e+01	-1.425498e-04
2.918990e+01	-1.442013e-04
2.935850e+01	-1.458719e-04
2.952807e+01	-1.475618e-04
2.969863e+01	-1.492713e-04
2.987016e+01	-1.510007e-04
3.004269e+01	-1.527500e-04
3.021622e+01	-1.545196e-04
3.039075e+01	-1.563097e-04
3.056628e+01	-1.581206e-04
3.074283e+01	-1.599524e-04
3.092040e+01	-1.618055e-04
3.109900e+01	-1.636800e-04
3.127862e+01	-1.655763e-04
3.145929e+01	-1.674945e-04
3.164099e+01	-1.694349e-04
3.182375e+01	-1.713978e-04
3.200756e+01	-1.733835e-04
3.219244e+01	-1.753921e-04
3.237838e+01	-1.774241e-04
3.256540e+01	-1.794795e-04
3.275349e+01	-1.815588e-04
3.294268e+01	-1.836622e-04
3.313295e+01	-1.857899e-04
3.332433e+01	-1.879423e-04
3.351681e+01	-1.901196e-04
3.371040e+01	-1.923221e-04
3.390511e+01	-1.945502e-04
3.410094e+01	-1.968041e-04
3.429791e+01	-1.990840e-04
3.449601e+01	-2.013904e-04
3.469526e+01	-2.037235e-04
3.489566e+01	-2.060837e-04
3.509721e+01	-2.084712e-04
3.529993e+01	-2.108863e-04
3.550382e+01	-2.133294e-04
3.570889e+01	-2.158008e-04
3.591515e+01	-2.183009e-04
3.612259e+01	-2.208299e-04
3.633123e+01	-2.233882e-04
3.654108e+01	-2.259761e-04
3.675214e+01	-2.285941e-04
3.696442e+01	-2.312423e-04
3.717792e+01	-2.339213e-04
3.739266e+01	-2.366312e-04
3.760864e+01	-2.393726e-04
3.782587e+01	-2.421457e-04
3.804435e+01	-2.449510e-04
3.826409e+01	-2.477887e-04
3.848510e+01	-2.506593e-04
3.870739e+01	-2.535632e-04
3.893096e+01	-2.565007e-04
3.915583e+01	-2.594723e-04
3.938199e+01	-2.624782e-04
3.960946e+01	-2.655190e-04
3.983824e+01	-2.685950e-04
4.006834e+01	-2.717067e-04
4.029978e+01	-2.748544e-04
4.053255e+01	-2.780385e-04
4.076666e+01	-2.812596e-04
4.100213e+01	-2.845180e-04
4.123896e+01	-2.878141e-04
4.147715e+01	-2.911484e-04
4.171672e+01	-2.945213e-04
4.195767e+01	-2.979333e-04
4.220002e+01	-3.013848e-04
4.244377e+01	-3.048763e-04
4.268892e+01	-3.084083e-04
4.293549e+01	-3.119811e-04
4.318348e+01	-3.155954e-04
4.343291e+01	-3.192515e-04
4.368377e+01	-3.229500e-04
4.393609e+01	-3.266913e-04
4.418986e+01	-3.304760e-04
4.444510e+01	-3.343045e-04
4.470182e+01	-3.381773e-04
4.496001e+01	-3.420951e-04
4.521970e+01	-3.460582e-04
4.548089e+01	-3.500672e-04
4.574358e+01	-3.541226e-04
4.600779e+01	-3.582251e-04
4.627353e+01	-3.623751e-04
4.654081e+01	-3.665731e-04
4.680963e+01	-3.708198e-04
4.708000e+01	-3.751156e-04
4.735193e+01	-3.794613e-04
4.762543e+01	-3.838572e-04
4.790051e+01	-3.883041e-04
4.817719e+01	-3.928025e-04
4.845545e+01	-3.973530e-04
4.873533e+01	-4.019563e-04
4.901682e+01	-4.066128e-04
4.929994e+01	-4.113233e-04
4.958470e+01	-4.160884e-04
4.987110e+01	-4.209087e-04
5.015915e+01	-4.257848e-04
5.044887e+01	-4.307174e-04
5.074026e+01	-4.357071e-04
5.103333e+01	-4.407546e-04
5.132810e+01	-4.458606e-04
5.162457e+01	-4.510258e-04
5.192275e+01	-4.562508e-04
5.222265e+01	-4.615363e-04
5.252429e+01	-4.668830e-04
5.282767e+01	-4.722917e-04
5.313280e+01	-4.777630e-04
5.343969e+01	-4.832977e-04
5.374836e+01	-4.888965e-04
5.405880e+01	-4.945602e-04
5.437105e+01	-5.002895e-04
5.468509e+01	-5.060852e-04
5.500095e+01	-5.119479e-04
5.531863e+01	-5.178787e-04
5.563815e+01	-5.238781e-04
5.595951e+01	-5.299470e-04
5.628273e+01	-5.360862e-04
5.660782e+01	-5.422965e-04
5.693479e+01	-5.485787e-04
5.726364e+01	-5.549338e-04
5.759439e+01	-5.613624e-04
5.792705e+01	-5.678655e-04
5.826164e+01	-5.744440e-04
5.859815e+01	-5.810986e-04
5.893662e+01	-5.878303e-04
5.927703e+01	-5.946401e-04
5.961941e+01	-6.015287e-04
5.996377e+01	-6.084970e-04
6.031012e+01	-6.155461e-04
6.065847e+01	-6.226769e-04
6.100883e+01	-6.298903e-04
6.136121e+01	-6.371872e-04
6.171563e+01	-6.445686e-04
6.207210e+01	-6.520356e-04
6.243063e+01	-6.595890e-04
6.279122e+01	-6.672299e-04
6.315390e+01	-6.749594e-04
6.351868e+01	-6.827784e-04
6.388556e+01	-6.906879e-04
6.425456e+01	-6.986891e-04
6.462569e+01	-7.067829e-04
6.499897e+01	-7.149705e-04
6.537440e+01	-7.232530e-04
6.575200e+01	-7.316313e-04
6.613178e+01	-7.401068e-04
6.651375e+01	-7.486804e-04
6.689793e+01	-7.573533e-04
6.728433e+01	-7.661266e-04
6.767297e+01	-7.750016e-04
6.806384e+01	-7.839794e-04
6.845698e+01	-7.930612e-04
6.885238e+01	-8.022482e-04
6.925007e+01	-8.115416e-04
6.965005e+01	-8.209426e-04
7.005235e+01	-8.304526e-04
7.045697e+01	-8.400727e-04
7.086393e+01	-8.498042e-04
7.127323e+01	-8.596484e-04
7.168490e+01	-8.696067e-04
7.209895e+01	-8.796803e-04
7.251539e+01	-8.898706e-04
7.293424e+01	-9.001789e-04
7.335551e+01	-9.106066e-04
7.377920e+01	-9.211552e-04
7.420535e+01	-9.318258e-04
7.463396e+01	-9.426201e-04
7.506504e+01	-9.535394e-04
7.549861e+01	-9.645852e-04
7.593469e+01	-9.757590e-04
7.637328e+01	-9.870621e-04
7.681441e+01	-9.984962e-04
7.725809e+01	-1.010063e-03
7.770433e+01	-1.021763e-03
7.815315e+01	-1.033599e-03
7.860456e+01	-1.045572e-03
7.905857e+01	-1.057684e-03
7.951521e+01	-1.069936e-03
7.997449e+01	-1.082330e-03
8.043642e+01	-1.094868e-03
8.090102e+01	-1.107550e-03
8.136830e+01	-1.120380e-03
8.183828e+01	-1.133358e-03
8.231097e+01	-1.146487e-03
8.278640e+01	-1.159767e-03
8.326457e+01	-1.173202e-03
8.374550e+01	-1.186792e-03
8.422921e+01	-1.200539e-03
8.471572e+01	-1.214446e-03
8.520503e+01	-1.228513e-03
8.569717e+01	-1.242744e-03
8.619215e+01	-1.257139e-03
8.669000e+01	-1.271702e-03
8.719071e+01	-1.286432e-03
8.769432e+01	-1.301334e-03
8.820084e+01	-1.316408e-03
8.871029e+01	-1.331656e-03
8.922267e+01	-1.347082e-03
8.973802e+01	-1.362685e-03
9.025634e+01	-1.378470e-03
9.077766e+01	-1.394437e-03
9.130199e+01	-1.410590e-03
9.182935e+01	-1.426929e-03
9.235975e+01	-1.443458e-03
9.289321e+01	-1.460178e-03
9.342976e+01	-1.477091e-03
9.396941e+01	-1.494201e-03
9.451217e+01	-1.511509e-03
9.505807e+01	-1.529017e-03
9.560712e+01	-1.546728e-03
9.615934e+01	-1.564644e-03
9.671476e+01	-1.582767e-03
9.727338e+01	-1.601101e-03
9.783522e+01	-1.619646e-03
9.840032e+01	-1.638407e-03
9.896867e+01	-1.657385e-03
9.954031e+01	-1.676582e-03
1.001153e+02	-1.696002e-03
1.006935e+02	-1.715647e-03
1.012751e+02	-1.735519e-03
1.018601e+02	-1.755621e-03
1.024484e+02	-1.775957e-03
1.030402e+02	-1.796527e-03
1.036353e+02	-1.817336e-03
1.042339e+02	-1.838386e-03
1.048360e+02	-1.859680e-03
1.054415e+02	-1.881220e-03
1.060505e+02	-1.903010e-03
1.066631e+02	-1.925052e-03
1.072791e+02	-1.947349e-03
1.078988e+02	-1.969904e-03
1.085220e+02	-1.992721e-03
1.091488e+02	-2.015802e-03
1.097793e+02	-2.039150e-03
1.104133e+02	-2.062768e-03
1.110511e+02	-2.086660e-03
1.116925e+02	-2.110829e-03
1.123376e+02	-2.135277e-03
1.129865e+02	-2.160009e-03
1.136391e+02	-2.185027e-03
1.142955e+02	-2.210335e-03
1.149556e+02	-2.235935e-03
1.156196e+02	-2.261833e-03
1.162874e+02	-2.288030e-03
1.169591e+02	-2.314530e-03
1.176347e+02	-2.341337e-03
1.183141e+02	-2.368455e-03
1.189975e+02	-2.395886e-03
1.196848e+02	-2.423636e-03
1.203761e+02	-2.451706e-03
1.210714e+02	-2.480102e-03
1.217707e+02	-2.508826e-03
1.224740e+02	-2.537883e-03
1.231814e+02	-2.567276e-03
1.238929e+02	-2.597010e-03
1.246085e+02	-2.627088e-03
1.253283e+02	-2.657514e-03
1.260522e+02	-2.688292e-03
1.267802e+02	-2.719427e-03
1.275125e+02	-2.750923e-03
1.282490e+02	-2.782782e-03
1.289898e+02	-2.815011e-03
1.297348e+02	-2.847613e-03
1.304842e+02	-2.880593e-03
1.312378e+02	-2.913954e-03
1.319959e+02	-2.947701e-03
1.327583e+02	-2.981839e-03
1.335251e+02	-3.016373e-03
1.342963e+02	-3.051306e-03
1.350720e+02	-3.086644e-03
1.358522e+02	-3.122390e-03
1.366368e+02	-3.158551e-03
1.374260e+02	-3.195130e-03
1.382198e+02	-3.232133e-03
1.390182e+02	-3.269564e-03
1.398211e+02	-3.307428e-03
1.406287e+02	-3.345731e-03
1.414410e+02	-3.384477e-03
1.422579e+02	-3.423671e-03
1.430796e+02	-3.463319e-03
1.439060e+02	-3.503427e-03
1.447372e+02	-3.543998e-03
1.455732e+02	-3.585039e-03
1.464141e+02	-3.626556e-03
1.472597e+02	-3.668552e-03
1.481103e+02	-3.711035e-03
1.489658e+02	-3.754010e-03
1.498262e+02	-3.797482e-03
1.506916e+02	-3.841458e-03
1.515620e+02	-3.885942e-03
1.524374e+02	-3.930941e-03
1.533179e+02	-3.976461e-03
1.542034e+02	-4.022508e-03
1.550941e+02	-4.069088e-03
1.559899e+02	-4.116207e-03
1.568909e+02	-4.163872e-03
1.577971e+02	-4.212088e-03
1.587085e+02	-4.260862e-03
1.596252e+02	-4.310200e-03
1.605472e+02	-4.360110e-03
1.614745e+02	-4.410597e-03
1.624072e+02	-4.461669e-03
1.633453e+02	-4.513332e-03
1.642887e+02	-4.565592e-03
1.652377e+02	-4.618458e-03
1.661921e+02	-4.671935e-03
1.671520e+02	-4.726031e-03
1.681175e+02	-4.780753e-03
1.690885e+02	-4.836108e-03
1.700651e+02	-4.892104e-03
1.710474e+02	-4.948748e-03
1.720354e+02	-5.006048e-03
1.730291e+02	-5.064010e-03
1.740285e+02	-5.122643e-03
1.750337e+02	-5.181955e-03
1.760446e+02	-5.241953e-03
1.770615e+02	-5.302645e-03
1.780842e+02	-5.364040e-03
1.791128e+02	-5.426144e-03
1.801473e+02	-5.488968e-03
1.811878e+02	-5.552518e-03
1.822344e+02	-5.616804e-03
1.832870e+02	-5.681833e-03
1.843456e+02	-5.747615e-03
1.854104e+02	-5.814158e-03
1.864813e+02	-5.881471e-03
1.875584e+02	-5.949562e-03
1.886418e+02	-6.018442e-03
1.897313e+02	-6.088118e-03
1.908272e+02	-6.158600e-03
1.919294e+02	-6.229898e-03
1.930380e+02	-6.302020e-03
1.941530e+02	-6.374977e-03
1.952744e+02	-6.448778e-03
1.964023e+02	-6.523432e-03
1.975367e+02	-6.598950e-03
1.986777e+02	-6.675342e-03
1.998252e+02	-6.752617e-03
2.009794e+02	-6.830786e-03
2.021403e+02	-6.909860e-03
2.033078e+02	-6.989848e-03
2.044821e+02	-7.070761e-03
2.056632e+02	-7.152610e-03
2.068511e+02	-7.235405e-03
2.080459e+02	-7.319158e-03
2.092475e+02	-7.403880e-03
2.104561e+02	-7.489582e-03
2.116717e+02	-7.576275e-03
2.128943e+02	-7.663970e-03
2.141240e+02	-7.752680e-03
2.153608e+02	-7.842415e-03
2.166047e+02	-7.933188e-03
2.178558e+02	-8.025011e-03
2.191141e+02	-8.117896e-03
2.203797e+02	-8.211854e-03
2.216526e+02	-8.306900e-03
2.229329e+02	-8.403044e-03
2.242205e+02	-8.500300e-03
2.255156e+02	-8.598680e-03
2.268182e+02	-8.698198e-03
2.281283e+02	-8.798866e-03
2.294459e+02	-8.900698e-03
2.307712e+02	-9.003708e-03
2.321041e+02	-9.107909e-03
2.334447e+02	-9.213314e-03
2.347931e+02	-9.319937e-03
2.361493e+02	-9.427794e-03
2.375133e+02	-9.536897e-03
2.388851e+02	-9.647261e-03
2.402649e+02	-9.758901e-03
2.416527e+02	-9.871831e-03
2.430484e+02	-9.986067e-03
2.444523e+02	-1.010162e-02
2.458642e+02	-1.021852e-02
2.472843e+02	-1.033676e-02
2.487126e+02	-1.045637e-02
2.501492e+02	-1.057736e-02
2.515940e+02	-1.069975e-02
2.530472e+02	-1.082355e-02
2.545088e+02	-1.094879e-02
2.559789e+02	-1.107547e-02
2.574574e+02	-1.120362e-02
2.589444e+02	-1.133324e-02
2.604401e+02	-1.146437e-02
2.619444e+02	-1.159701e-02
2.634574e+02	-1.173118e-02
2.649791e+02	-1.186690e-02
2.665096e+02	-1.200419e-02
2.680489e+02	-1.214307e-02
2.695972e+02	-1.228355e-02
2.711544e+02	-1.242565e-02
2.727205e+02	-1.256940e-02
2.742958e+02	-1.271480e-02
2.758801e+02	-1.286189e-02
2.774736e+02	-1.301067e-02
2.790762e+02	-1.316118e-02
2.806882e+02	-1.331342e-02
2.823094e+02	-1.346742e-02
2.839400e+02	-1.362320e-02
2.855800e+02	-1.378077e-02
2.872295e+02	-1.394017e-02
2.888886e+02	-1.410141e-02
2.905572e+02	-1.426451e-02
2.922354e+02	-1.442949e-02
2.939234e+02	-1.459638e-02
2.956211e+02	-1.476519e-02
2.973286e+02	-1.493595e-02
2.990459e+02	-1.510869e-02
3.007732e+02	-1.528342e-02
3.025104e+02	-1.546016e-02
3.042577e+02	-1.563895e-02
3.060151e+02	-1.581980e-02
3.077826e+02	-1.600274e-02
3.095604e+02	-1.618779e-02
3.113484e+02	-1.637497e-02
3.131467e+02	-1.656432e-02
3.149554e+02	-1.675585e-02
3.167746e+02	-1.694959e-02
3.186043e+02	-1.714556e-02
3.204445e+02	-1.734380e-02
3.222954e+02	-1.754432e-02
3.241570e+02	-1.774716e-02
3.260293e+02	-1.795234e-02
3.279124e+02	-1.815989e-02
3.298064e+02	-1.836983e-02
3.317114e+02	-1.858219e-02
3.336273e+02	-1.879700e-02
3.355544e+02	-1.901429e-02
3.374925e+02	-1.923409e-02
3.394418e+02	-1.945642e-02
3.414024e+02	-1.968131e-02
3.433744e+02	-1.990880e-02
3.453577e+02	-2.013892e-02
3.473525e+02	-2.037168e-02
3.493588e+02	-2.060713e-02
3.513766e+02	-2.084529e-02
3.534062e+02	-2.108620e-02
3.554474e+02	-2.132989e-02
3.575005e+02	-2.157639e-02
3.595654e+02	-2.182572e-02
3.616422e+02	-2.207794e-02
3.637311e+02	-2.233305e-02
3.658320e+02	-2.259111e-02
3.679450e+02	-2.285215e-02
3.700702e+02	-2.311619e-02
3.722077e+02	-2.338327e-02
3.743576e+02	-2.365343e-02
3.765199e+02	-2.392671e-02
3.786946e+02	-2.420313e-02
3.808820e+02	-2.448273e-02
3.830819e+02	-2.476556e-02
3.852946e+02	-2.505165e-02
3.875200e+02	-2.534103e-02
3.897583e+02	-2.563374e-02
3.920096e+02	-2.592982e-02
3.942738e+02	-2.622932e-02
3.965511e+02	-2.653226e-02
3.988416e+02	-2.683869e-02
4.011452e+02	-2.714865e-02
4.034622e+02	-2.746217e-02
4.057926e+02	-2.777931e-02
4.081365e+02	-2.810009e-02
4.104938e+02	-2.842457e-02
4.128648e+02	-2.875279e-02
4.152495e+02	-2.908477e-02
4.176480e+02	-2.942058e-02
4.200603e+02	-2.976026e-02
4.224866e+02	-3.010384e-02
4.249268e+02	-3.045137e-02
4.273812e+02	-3.080291e-02
4.298497e+02	-3.115848e-02
4.323325e+02	-3.151815e-02
4.348297e+02	-3.188195e-02
4.373412e+02	-3.224993e-02
4.398673e+02	-3.262215e-02
4.424079e+02	-3.299865e-02
4.449633e+02	-3.337947e-02
4.475334e+02	-3.376467e-02
4.501183e+02	-3.415430e-02
4.527182e+02	-3.454841e-02
4.553330e+02	-3.494705e-02
4.579630e+02	-3.535026e-02
4.606082e+02	-3.575812e-02
4.632687e+02	-3.617065e-02
4.659445e+02	-3.658793e-02
4.686358e+02	-3.701000e-02
4.713426e+02	-3.743692e-02
4.740650e+02	-3.786874e-02
4.768032e+02	-3.830552e-02
4.795572e+02	-3.874731e-02
4.823271e+02	-3.919418e-02
4.851130e+02	-3.964617e-02
4.879150e+02	-4.010336e-02
4.907332e+02	-4.056579e-02
4.935676e+02	-4.103353e-02
4.964185e+02	-4.150664e-02
4.992858e+02	-4.198517e-02
5.021696e+02	-4.246920e-02
5.050701e+02	-4.295878e-02
5.079874e+02	-4.345397e-02
5.109215e+02	-4.395484e-02
5.138726e+02	-4.446146e-02
5.168407e+02	-4.497388e-02
5.198259e+02	-4.549218e-02
5.228284e+02	-4.601642e-02
5.258482e+02	-4.654667e-02
5.288855e+02	-4.708300e-02
5.319403e+02	-4.762547e-02
5.350128e+02	-4.817415e-02
5.381030e+02	-4.872913e-02
5.412111e+02	-4.929046e-02
5.443371e+02	-4.985822e-02
5.474812e+02	-5.043248e-02
5.506434e+02	-5.101331e-02
5.538239e+02	-5.160080e-02
5.570228e+02	-5.219501e-02
5.602401e+02	-5.279602e-02
5.634760e+02	-5.340391e-02
5.667306e+02	-5.401875e-02
5.700040e+02	-5.464063e-02
5.732964e+02	-5.526962e-02
5.766077e+02	-5.590581e-02
5.799382e+02	-5.654927e-02
5.832879e+02	-5.720009e-02
5.866569e+02	-5.785834e-02
5.900454e+02	-5.852412e-02
5.934535e+02	-5.919752e-02
5.968813e+02	-5.987860e-02
6.003288e+02	-6.056747e-02
6.037963e+02	-6.126420e-02
6.072838e+02	-6.196889e-02
6.107914e+02	-6.268163e-02
6.143194e+02	-6.340251e-02
6.178676e+02	-6.413162e-02
6.214364e+02	-6.486905e-02
6.250258e+02	-6.561489e-02
6.286359e+02	-6.636924e-02
6.322669e+02	-6.713220e-02
6.359189e+02	-6.790386e-02
6.395919e+02	-6.868432e-02
6.432862e+02	-6.947368e-02
6.470017e+02	-7.027203e-02
6.507388e+02	-7.107949e-02
6.544974e+02	-7.189615e-02
6.582778e+02	-7.272211e-02
6.620800e+02	-7.355747e-02
6.659041e+02	-7.440236e-02
6.697504e+02	-7.525686e-02
6.736188e+02	-7.612109e-02
6.775096e+02	-7.699515e-02
6.814229e+02	-7.787916e-02
6.853587e+02	-7.877323e-02
6.893173e+02	-7.967747e-02
6.932988e+02	-8.059199e-02
6.973033e+02	-8.151691e-02
7.013309e+02	-8.245235e-02
