Frequency(Hz)	Magnitude(dB)
1.000000e+01	-2.160893e+00
1.005776e+01	-2.180548e+00
1.011585e+01	-2.200260e+00
1.017428e+01	-2.220297e+00
1.023305e+01	-2.240355e+00
1.029215e+01	-2.260579e+00
1.035160e+01	-2.280907e+00
1.041139e+01	-2.301407e+00
1.047153e+01	-2.322199e+00
1.053201e+01	-2.342684e+00
1.059284e+01	-2.363883e+00
1.065403e+01	-2.385024e+00
1.071556e+01	-2.405946e+00
1.077746e+01	-2.427414e+00
1.083971e+01	-2.448666e+00
1.090232e+01	-2.470671e+00
1.096529e+01	-2.492343e+00
1.102862e+01	-2.514125e+00
1.109232e+01	-2.536483e+00
1.115639e+01	-2.558452e+00
1.122083e+01	-2.580777e+00
1.128564e+01	-2.603250e+00
1.135083e+01	-2.625903e+00
1.141639e+01	-2.648625e+00
1.148233e+01	-2.671850e+00
1.154865e+01	-2.694712e+00
1.161536e+01	-2.717947e+00
1.168245e+01	-2.741158e+00
1.174992e+01	-2.764654e+00
1.181779e+01	-2.788263e+00
1.188605e+01	-2.812029e+00
1.195470e+01	-2.836011e+00
1.202375e+01	-2.859971e+00
1.209320e+01	-2.884184e+00
1.216305e+01	-2.908618e+00
1.223330e+01	-2.933142e+00
1.230396e+01	-2.957757e+00
1.237503e+01	-2.982652e+00
1.244651e+01	-3.007804e+00
1.251840e+01	-3.032606e+00
1.259070e+01	-3.057552e+00
1.266343e+01	-3.083083e+00
1.273657e+01	-3.108520e+00
1.281014e+01	-3.134159e+00
1.288413e+01	-3.159912e+00
1.295855e+01	-3.186010e+00
1.303339e+01	-3.211907e+00
1.310867e+01	-3.238187e+00
1.318439e+01	-3.264738e+00
1.326054e+01	-3.291248e+00
1.333713e+01	-3.317857e+00
1.341417e+01	-3.344437e+00
1.349165e+01	-3.371572e+00
1.356958e+01	-3.398651e+00
1.364795e+01	-3.426099e+00
1.372678e+01	-3.453351e+00
1.380607e+01	-3.480560e+00
1.388581e+01	-3.508125e+00
1.396602e+01	-3.536060e+00
1.404668e+01	-3.564050e+00
1.412782e+01	-3.592109e+00
1.420942e+01	-3.620326e+00
1.429149e+01	-3.648791e+00
1.437404e+01	-3.677255e+00
1.445706e+01	-3.705931e+00
1.454057e+01	-3.734915e+00
1.462455e+01	-3.763702e+00
1.470902e+01	-3.792600e+00
1.479398e+01	-3.821720e+00
1.487943e+01	-3.851163e+00
1.496537e+01	-3.880566e+00
1.505181e+01	-3.910362e+00
1.513875e+01	-3.940471e+00
1.522619e+01	-3.969890e+00
1.531414e+01	-4.000071e+00
1.540259e+01	-4.030215e+00
1.549156e+01	-4.060604e+00
1.558103e+01	-4.091098e+00
1.567103e+01	-4.121451e+00
1.576155e+01	-4.152367e+00
1.585258e+01	-4.183226e+00
1.594415e+01	-4.214251e+00
1.603624e+01	-4.245367e+00
1.612886e+01	-4.276479e+00
1.622202e+01	-4.308037e+00
1.631572e+01	-4.339429e+00
1.640996e+01	-4.371260e+00
1.650474e+01	-4.402979e+00
1.660008e+01	-4.434990e+00
1.669596e+01	-4.466824e+00
1.679239e+01	-4.498904e+00
1.688938e+01	-4.531589e+00
1.698694e+01	-4.563967e+00
1.708505e+01	-4.596388e+00
1.718373e+01	-4.629658e+00
1.728299e+01	-4.662360e+00
1.738281e+01	-4.695383e+00
1.748322e+01	-4.728470e+00
1.758420e+01	-4.761739e+00
1.768576e+01	-4.794973e+00
1.778792e+01	-4.828659e+00
1.789066e+01	-4.862091e+00
1.799399e+01	-4.895817e+00
1.809793e+01	-4.929778e+00
1.820246e+01	-4.963998e+00
1.830760e+01	-4.998003e+00
1.841334e+01	-5.032092e+00
1.851969e+01	-5.066678e+00
1.862666e+01	-5.101053e+00
1.873425e+01	-5.136092e+00
1.884246e+01	-5.170721e+00
1.895129e+01	-5.205152e+00
1.906075e+01	-5.240254e+00
1.917085e+01	-5.275410e+00
1.928158e+01	-5.310571e+00
1.939295e+01	-5.345891e+00
1.950496e+01	-5.381645e+00
1.961762e+01	-5.417008e+00
1.973093e+01	-5.452864e+00
1.984490e+01	-5.488313e+00
1.995952e+01	-5.524314e+00
2.007480e+01	-5.560678e+00
2.019076e+01	-5.596993e+00
2.030738e+01	-5.633316e+00
2.042467e+01	-5.669760e+00
2.054264e+01	-5.706104e+00
2.066130e+01	-5.742321e+00
2.078064e+01	-5.779476e+00
2.090066e+01	-5.816172e+00
2.102139e+01	-5.853384e+00
2.114280e+01	-5.890343e+00
2.126492e+01	-5.927618e+00
2.138775e+01	-5.964773e+00
2.151128e+01	-6.002320e+00
2.163553e+01	-6.039848e+00
2.176050e+01	-6.077606e+00
2.188619e+01	-6.115205e+00
2.201260e+01	-6.153239e+00
2.213974e+01	-6.190939e+00
2.226762e+01	-6.228834e+00
2.239624e+01	-6.267098e+00
2.252560e+01	-6.305202e+00
2.265571e+01	-6.343731e+00
2.278656e+01	-6.382119e+00
2.291818e+01	-6.421013e+00
2.305055e+01	-6.459394e+00
2.318369e+01	-6.498100e+00
2.331760e+01	-6.537485e+00
2.345228e+01	-6.576391e+00
2.358774e+01	-6.614939e+00
2.372398e+01	-6.654438e+00
2.386101e+01	-6.693291e+00
2.399883e+01	-6.733184e+00
2.413745e+01	-6.772400e+00
2.427686e+01	-6.811795e+00
2.441709e+01	-6.851900e+00
2.455812e+01	-6.891538e+00
2.469997e+01	-6.931270e+00
2.484263e+01	-6.970969e+00
2.498612e+01	-7.011360e+00
2.513044e+01	-7.051320e+00
2.527559e+01	-7.091469e+00
2.542158e+01	-7.131740e+00
2.556842e+01	-7.172243e+00
2.571610e+01	-7.213163e+00
2.586463e+01	-7.253161e+00
2.601403e+01	-7.293626e+00
2.616428e+01	-7.334957e+00
2.631541e+01	-7.375287e+00
2.646740e+01	-7.416460e+00
2.662028e+01	-7.457654e+00
2.677404e+01	-7.498697e+00
2.692868e+01	-7.539795e+00
2.708422e+01	-7.581017e+00
2.724066e+01	-7.622327e+00
2.739800e+01	-7.663908e+00
2.755625e+01	-7.705110e+00
2.771541e+01	-7.747131e+00
2.787550e+01	-7.788182e+00
2.803650e+01	-7.829891e+00
2.819844e+01	-7.871762e+00
2.836131e+01	-7.913507e+00
2.852513e+01	-7.955894e+00
2.868989e+01	-7.997925e+00
2.885560e+01	-8.039830e+00
2.902227e+01	-8.081608e+00
2.918990e+01	-8.124781e+00
2.935850e+01	-8.166822e+00
2.952807e+01	-8.208868e+00
2.969863e+01	-8.251857e+00
2.987016e+01	-8.294072e+00
3.004269e+01	-8.336278e+00
3.021622e+01	-8.379593e+00
3.039075e+01	-8.422774e+00
3.056628e+01	-8.465653e+00
3.074283e+01	-8.508779e+00
3.092040e+01	-8.551204e+00
3.109900e+01	-8.594546e+00
3.127862e+01	-8.636980e+00
3.145929e+01	-8.680727e+00
3.164099e+01	-8.724250e+00
3.182375e+01	-8.767833e+00
3.200756e+01	-8.810516e+00
3.219244e+01	-8.854533e+00
3.237838e+01	-8.897729e+00
3.256540e+01	-8.941020e+00
3.275349e+01	-8.984547e+00
3.294268e+01	-9.029005e+00
3.313295e+01	-9.072326e+00
3.332433e+01	-9.116610e+00
3.351681e+01	-9.160475e+00
3.371040e+01	-9.204502e+00
3.390511e+01	-9.248347e+00
3.410094e+01	-9.292526e+00
3.429791e+01	-9.336346e+00
3.449601e+01	-9.381091e+00
3.469526e+01	-9.425057e+00
3.489566e+01	-9.470039e+00
3.509721e+01	-9.514042e+00
3.529993e+01	-9.558390e+00
3.550382e+01	-9.602993e+00
3.570889e+01	-9.647145e+00
3.591515e+01	-9.692368e+00
3.612259e+01	-9.737121e+00
3.633123e+01	-9.781621e+00
3.654108e+01	-9.826420e+00
3.675214e+01	-9.871253e+00
3.696442e+01	-9.916364e+00
3.717792e+01	-9.960920e+00
3.739266e+01	-1.000650e+01
3.760864e+01	-1.005079e+01
3.782587e+01	-1.009623e+01
3.804435e+01	-1.014129e+01
3.826409e+01	-1.018651e+01
3.848510e+01	-1.023175e+01
3.870739e+01	-1.027746e+01
3.893096e+01	-1.032286e+01
3.915583e+01	-1.036798e+01
3.938199e+01	-1.041315e+01
3.960946e+01	-1.045911e+01
3.983824e+01	-1.050501e+01
4.006834e+01	-1.054973e+01
4.029978e+01	-1.059615e+01
4.053255e+01	-1.064117e+01
4.076666e+01	-1.068702e+01
4.100213e+01	-1.073338e+01
4.123896e+01	-1.077829e+01
4.147715e+01	-1.082462e+01
4.171672e+01	-1.087040e+01
4.195767e+01	-1.091622e+01
4.220002e+01	-1.096282e+01
4.244377e+01	-1.100911e+01
4.268892e+01	-1.105402e+01
4.293549e+01	-1.110070e+01
4.318348e+01	-1.114698e+01
4.343291e+01	-1.119304e+01
4.368377e+01	-1.123951e+01
4.393609e+01	-1.128597e+01
4.418986e+01	-1.133202e+01
4.444510e+01	-1.137866e+01
4.470182e+01	-1.142425e+01
4.496001e+01	-1.147100e+01
4.521970e+01	-1.151770e+01
4.548089e+01	-1.156404e+01
4.574358e+01	-1.161055e+01
4.600779e+01	-1.165710e+01
4.627353e+01	-1.170476e+01
4.654081e+01	-1.175054e+01
4.680963e+01	-1.179731e+01
4.708000e+01	-1.184355e+01
4.735193e+01	-1.189024e+01
4.762543e+01	-1.193730e+01
4.790051e+01	-1.198443e+01
4.817719e+01	-1.203148e+01
4.845545e+01	-1.207814e+01
4.873533e+01	-1.212502e+01
4.901682e+01	-1.217205e+01
4.929994e+01	-1.221916e+01
4.958470e+01	-1.226634e+01
4.987110e+01	-1.231234e+01
5.015915e+01	-1.236068e+01
5.044887e+01	-1.240738e+01
5.074026e+01	-1.245485e+01
5.103333e+01	-1.250252e+01
5.132810e+01	-1.254923e+01
5.162457e+01	-1.259577e+01
5.192275e+01	-1.264384e+01
5.222265e+01	-1.269087e+01
5.252429e+01	-1.273816e+01
5.282767e+01	-1.278597e+01
5.313280e+01	-1.283376e+01
5.343969e+01	-1.288051e+01
5.374836e+01	-1.292748e+01
5.405880e+01	-1.297588e+01
5.437105e+01	-1.302287e+01
5.468509e+01	-1.307043e+01
5.500095e+01	-1.311836e+01
5.531863e+01	-1.316503e+01
5.563815e+01	-1.321364e+01
5.595951e+01	-1.326139e+01
5.628273e+01	-1.330904e+01
5.660782e+01	-1.335707e+01
5.693479e+01	-1.340421e+01
5.726364e+01	-1.345191e+01
5.759439e+01	-1.349892e+01
5.792705e+01	-1.354763e+01
5.826164e+01	-1.359543e+01
5.859815e+01	-1.364316e+01
5.893662e+01	-1.369130e+01
5.927703e+01	-1.373858e+01
5.961941e+01	-1.378770e+01
5.996377e+01	-1.383459e+01
6.031012e+01	-1.388237e+01
6.065847e+01	-1.393197e+01
6.100883e+01	-1.397931e+01
6.136121e+01	-1.402652e+01
6.171563e+01	-1.407446e+01
6.207210e+01	-1.412273e+01
6.243063e+01	-1.417079e+01
6.279122e+01	-1.421907e+01
6.315390e+01	-1.426756e+01
6.351868e+01	-1.431602e+01
6.388556e+01	-1.436373e+01
6.425456e+01	-1.441196e+01
6.462569e+01	-1.445995e+01
6.499897e+01	-1.450757e+01
6.537440e+01	-1.455717e+01
6.575200e+01	-1.460509e+01
6.613178e+01	-1.465329e+01
6.651375e+01	-1.470146e+01
6.689793e+01	-1.475057e+01
6.728433e+01	-1.479733e+01
6.767297e+01	-1.484683e+01
6.806384e+01	-1.489501e+01
6.845698e+01	-1.494330e+01
6.885238e+01	-1.499120e+01
6.925007e+01	-1.504141e+01
6.965005e+01	-1.508842e+01
7.005235e+01	-1.513677e+01
7.045697e+01	-1.518584e+01
7.086393e+01	-1.523367e+01
7.127323e+01	-1.528237e+01
7.168490e+01	-1.533051e+01
7.209895e+01	-1.537937e+01
7.251539e+01	-1.542927e+01
7.293424e+01	-1.547700e+01
7.335551e+01	-1.552560e+01
7.377920e+01	-1.557505e+01
7.420535e+01	-1.562226e+01
7.463396e+01	-1.567134e+01
7.506504e+01	-1.572042e+01
7.549861e+01	-1.576967e+01
7.593469e+01	-1.581770e+01
7.637328e+01	-1.586629e+01
7.681441e+01	-1.591514e+01
7.725809e+01	-1.596338e+01
7.770433e+01	-1.601306e+01
7.815315e+01	-1.606188e+01
7.860456e+01	-1.610961e+01
7.905857e+01	-1.615794e+01
7.951521e+01	-1.620798e+01
7.997449e+01	-1.625683e+01
8.043642e+01	-1.630590e+01
8.090102e+01	-1.635531e+01
8.136830e+01	-1.640380e+01
8.183828e+01	-1.645195e+01
8.231097e+01	-1.650176e+01
8.278640e+01	-1.655019e+01
8.326457e+01	-1.659940e+01
8.374550e+01	-1.664784e+01
8.422921e+01	-1.669729e+01
8.471572e+01	-1.674638e+01
8.520503e+01	-1.679544e+01
8.569717e+01	-1.684402e+01
8.619215e+01	-1.689286e+01
8.669000e+01	-1.694196e+01
8.719071e+01	-1.699077e+01
8.769432e+01	-1.704145e+01
8.820084e+01	-1.708811e+01
8.871029e+01	-1.713892e+01
8.922267e+01	-1.718686e+01
8.973802e+01	-1.723608e+01
9.025634e+01	-1.728583e+01
9.077766e+01	-1.733513e+01
9.130199e+01	-1.738287e+01
9.182935e+01	-1.743174e+01
9.235975e+01	-1.748169e+01
9.289321e+01	-1.753092e+01
9.342976e+01	-1.758023e+01
9.396941e+01	-1.763017e+01
9.451217e+01	-1.767862e+01
9.505807e+01	-1.772783e+01
9.560712e+01	-1.777664e+01
9.615934e+01	-1.782583e+01
9.671476e+01	-1.787543e+01
9.727338e+01	-1.792386e+01
9.783522e+01	-1.797342e+01
9.840032e+01	-1.802336e+01
9.896867e+01	-1.807268e+01
9.954031e+01	-1.812211e+01
1.001153e+02	-1.817159e+01
1.006935e+02	-1.822086e+01
1.012751e+02	-1.826952e+01
1.018601e+02	-1.831879e+01
1.024484e+02	-1.836791e+01
1.030402e+02	-1.841575e+01
1.036353e+02	-1.846719e+01
1.042339e+02	-1.851644e+01
1.048360e+02	-1.856436e+01
1.054415e+02	-1.861371e+01
1.060505e+02	-1.866272e+01
1.066631e+02	-1.871261e+01
1.072791e+02	-1.876262e+01
1.078988e+02	-1.881176e+01
1.085220e+02	-1.886072e+01
1.091488e+02	-1.891197e+01
1.097793e+02	-1.896065e+01
1.104133e+02	-1.900871e+01
1.110511e+02	-1.905891e+01
1.116925e+02	-1.910968e+01
1.123376e+02	-1.915816e+01
1.129865e+02	-1.920753e+01
1.136391e+02	-1.925629e+01
1.142955e+02	-1.930690e+01
1.149556e+02	-1.935609e+01
1.156196e+02	-1.940541e+01
1.162874e+02	-1.945524e+01
1.169591e+02	-1.950395e+01
1.176347e+02	-1.955206e+01
1.183141e+02	-1.960279e+01
1.189975e+02	-1.965322e+01
1.196848e+02	-1.970258e+01
1.203761e+02	-1.975050e+01
1.210714e+02	-1.980110e+01
1.217707e+02	-1.984840e+01
1.224740e+02	-1.990146e+01
1.231814e+02	-1.994858e+01
1.238929e+02	-1.999783e+01
1.246085e+02	-2.004902e+01
1.253283e+02	-2.009745e+01
1.260522e+02	-2.014805e+01
1.267802e+02	-2.019684e+01
1.275125e+02	-2.024678e+01
1.282490e+02	-2.029680e+01
1.289898e+02	-2.034582e+01
1.297348e+02	-2.039733e+01
1.304842e+02	-2.044494e+01
1.312378e+02	-2.049555e+01
1.319959e+02	-2.054427e+01
1.327583e+02	-2.059229e+01
1.335251e+02	-2.064227e+01
1.342963e+02	-2.069424e+01
1.350720e+02	-2.074293e+01
1.358522e+02	-2.079390e+01
1.366368e+02	-2.084136e+01
1.374260e+02	-2.089047e+01
1.382198e+02	-2.094198e+01
1.390182e+02	-2.099048e+01
1.398211e+02	-2.103985e+01
1.406287e+02	-2.109033e+01
1.414410e+02	-2.114093e+01
1.422579e+02	-2.119017e+01
1.430796e+02	-2.123888e+01
1.439060e+02	-2.128826e+01
1.447372e+02	-2.133828e+01
1.455732e+02	-2.138596e+01
1.464141e+02	-2.143635e+01
1.472597e+02	-2.148596e+01
1.481103e+02	-2.153763e+01
1.489658e+02	-2.158571e+01
1.498262e+02	-2.163594e+01
1.506916e+02	-2.168661e+01
1.515620e+02	-2.173588e+01
1.524374e+02	-2.178460e+01
1.533179e+02	-2.183630e+01
1.542034e+02	-2.188376e+01
1.550941e+02	-2.193455e+01
1.559899e+02	-2.198574e+01
1.568909e+02	-2.203465e+01
1.577971e+02	-2.208445e+01
1.587085e+02	-2.213290e+01
1.596252e+02	-2.218378e+01
1.605472e+02	-2.223434e+01
1.614745e+02	-2.228271e+01
1.624072e+02	-2.233267e+01
1.633453e+02	-2.238288e+01
1.642887e+02	-2.243136e+01
1.652377e+02	-2.248208e+01
1.661921e+02	-2.253308e+01
1.671520e+02	-2.258242e+01
1.681175e+02	-2.263088e+01
1.690885e+02	-2.268189e+01
1.700651e+02	-2.273079e+01
1.710474e+02	-2.278188e+01
1.720354e+02	-2.282860e+01
1.730291e+02	-2.288128e+01
1.740285e+02	-2.293221e+01
1.750337e+02	-2.298108e+01
1.760446e+02	-2.303091e+01
1.770615e+02	-2.307861e+01
1.780842e+02	-2.312865e+01
1.791128e+02	-2.317934e+01
1.801473e+02	-2.322878e+01
1.811878e+02	-2.327803e+01
1.822344e+02	-2.332964e+01
1.832870e+02	-2.337812e+01
1.843456e+02	-2.342912e+01
1.854104e+02	-2.347786e+01
1.864813e+02	-2.352891e+01
1.875584e+02	-2.357880e+01
1.886418e+02	-2.362955e+01
1.897313e+02	-2.367806e+01
1.908272e+02	-2.372645e+01
1.919294e+02	-2.377802e+01
1.930380e+02	-2.382533e+01
1.941530e+02	-2.387657e+01
1.952744e+02	-2.392636e+01
1.964023e+02	-2.397689e+01
1.975367e+02	-2.402500e+01
1.986777e+02	-2.407379e+01
1.998252e+02	-2.412532e+01
2.009794e+02	-2.417726e+01
2.021403e+02	-2.422646e+01
2.033078e+02	-2.427836e+01
2.044821e+02	-2.432741e+01
2.056632e+02	-2.437518e+01
2.068511e+02	-2.442513e+01
2.080459e+02	-2.447552e+01
2.092475e+02	-2.452280e+01
2.104561e+02	-2.457420e+01
2.116717e+02	-2.462635e+01
2.128943e+02	-2.467373e+01
2.141240e+02	-2.472592e+01
2.153608e+02	-2.477681e+01
2.166047e+02	-2.482517e+01
2.178558e+02	-2.487640e+01
2.191141e+02	-2.492567e+01
2.203797e+02	-2.497676e+01
2.216526e+02	-2.502522e+01
2.229329e+02	-2.507277e+01
2.242205e+02	-2.512426e+01
2.255156e+02	-2.517245e+01
2.268182e+02	-2.522322e+01
2.281283e+02	-2.527232e+01
2.294459e+02	-2.532078e+01
2.307712e+02	-2.537269e+01
2.321041e+02	-2.542158e+01
2.334447e+02	-2.547012e+01
2.347931e+02	-2.552402e+01
2.361493e+02	-2.557042e+01
2.375133e+02	-2.562432e+01
2.388851e+02	-2.567462e+01
2.402649e+02	-2.572343e+01
2.416527e+02	-2.577352e+01
2.430484e+02	-2.582535e+01
2.444523e+02	-2.587258e+01
2.458642e+02	-2.592146e+01
2.472843e+02	-2.597238e+01
2.487126e+02	-2.601984e+01
2.501492e+02	-2.606849e+01
2.515940e+02	-2.612303e+01
2.530472e+02	-2.617363e+01
2.545088e+02	-2.621989e+01
2.559789e+02	-2.627222e+01
2.574574e+02	-2.632221e+01
2.589444e+02	-2.637164e+01
2.604401e+02	-2.642516e+01
2.619444e+02	-2.647398e+01
2.634574e+02	-2.652018e+01
2.649791e+02	-2.657129e+01
2.665096e+02	-2.662440e+01
2.680489e+02	-2.667394e+01
2.695972e+02	-2.672319e+01
2.711544e+02	-2.677116e+01
2.727205e+02	-2.682267e+01
2.742958e+02	-2.687393e+01
2.758801e+02	-2.692290e+01
2.774736e+02	-2.696965e+01
2.790762e+02	-2.702455e+01
2.806882e+02	-2.707152e+01
2.823094e+02	-2.712153e+01
2.839400e+02	-2.717202e+01
2.855800e+02	-2.721956e+01
2.872295e+02	-2.727490e+01
2.888886e+02	-2.732011e+01
2.905572e+02	-2.736942e+01
2.922354e+02	-2.742003e+01
2.939234e+02	-2.747070e+01
2.956211e+02	-2.752053e+01
2.973286e+02	-2.757283e+01
2.990459e+02	-2.761793e+01
3.007732e+02	-2.767479e+01
3.025104e+02	-2.772234e+01
3.042577e+02	-2.777204e+01
3.060151e+02	-2.782258e+01
3.077826e+02	-2.787513e+01
3.095604e+02	-2.792499e+01
3.113484e+02	-2.797108e+01
3.131467e+02	-2.802319e+01
3.149554e+02	-2.807282e+01
3.167746e+02	-2.812273e+01
3.186043e+02	-2.817257e+01
3.204445e+02	-2.822109e+01
3.222954e+02	-2.827469e+01
3.241570e+02	-2.832051e+01
3.260293e+02	-2.837207e+01
3.279124e+02	-2.842409e+01
3.298064e+02	-2.847118e+01
3.317114e+02	-2.852154e+01
3.336273e+02	-2.857281e+01
3.355544e+02	-2.862355e+01
3.374925e+02	-2.867247e+01
3.394418e+02	-2.872315e+01
3.414024e+02	-2.877469e+01
3.433744e+02	-2.882668e+01
3.453577e+02	-2.887366e+01
3.473525e+02	-2.892734e+01
3.493588e+02	-2.897260e+01
3.513766e+02	-2.902273e+01
3.534062e+02	-2.907189e+01
3.554474e+02	-2.912206e+01
3.575005e+02	-2.917527e+01
3.595654e+02	-2.922509e+01
3.616422e+02	-2.927218e+01
3.637311e+02	-2.932628e+01
3.658320e+02	-2.937501e+01
3.679450e+02	-2.942219e+01
3.700702e+02	-2.947057e+01
3.722077e+02	-2.952354e+01
3.743576e+02	-2.957115e+01
3.765199e+02	-2.962656e+01
3.786946e+02	-2.967288e+01
3.808820e+02	-2.972543e+01
3.830819e+02	-2.977736e+01
3.852946e+02	-2.982319e+01
3.875200e+02	-2.987692e+01
3.897583e+02	-2.992813e+01
3.920096e+02	-2.997467e+01
3.942738e+02	-3.002682e+01
3.965511e+02	-3.007603e+01
3.988416e+02	-3.012241e+01
4.011452e+02	-3.017833e+01
4.034622e+02	-3.022834e+01
4.057926e+02	-3.027766e+01
4.081365e+02	-3.032815e+01
4.104938e+02	-3.036979e+01
4.128648e+02	-3.041854e+01
4.152495e+02	-3.048080e+01
4.176480e+02	-3.052738e+01
4.200603e+02	-3.057384e+01
4.224866e+02	-3.062948e+01
4.249268e+02	-3.068004e+01
4.273812e+02	-3.072946e+01
4.298497e+02	-3.077489e+01
4.323325e+02	-3.081792e+01
4.348297e+02	-3.088421e+01
4.373412e+02	-3.092816e+01
4.398673e+02	-3.097356e+01
4.424079e+02	-3.102624e+01
4.449633e+02	-3.107640e+01
4.475334e+02	-3.112928e+01
4.501183e+02	-3.117553e+01
4.527182e+02	-3.122177e+01
4.553330e+02	-3.128141e+01
4.579630e+02	-3.132762e+01
4.606082e+02	-3.137591e+01
4.632687e+02	-3.142876e+01
4.659445e+02	-3.147874e+01
4.686358e+02	-3.152822e+01
4.713426e+02	-3.157770e+01
4.740650e+02	-3.162738e+01
4.768032e+02	-3.168321e+01
4.795572e+02	-3.172601e+01
4.823271e+02	-3.177719e+01
4.851130e+02	-3.183654e+01
4.879150e+02	-3.188124e+01
4.907332e+02	-3.193011e+01
4.935676e+02	-3.198115e+01
4.964185e+02	-3.202561e+01
4.992858e+02	-3.208224e+01
5.021696e+02	-3.213503e+01
5.050701e+02	-3.218022e+01
5.079874e+02	-3.223359e+01
5.109215e+02	-3.227638e+01
5.138726e+02	-3.233109e+01
5.168407e+02	-3.239024e+01
5.198259e+02	-3.243667e+01
5.228284e+02	-3.247820e+01
5.258482e+02	-3.253601e+01
5.288855e+02	-3.258869e+01
5.319403e+02	-3.263087e+01
5.350128e+02	-3.268278e+01
5.381030e+02	-3.273479e+01
5.412111e+02	-3.278200e+01
5.443371e+02	-3.283458e+01
5.474812e+02	-3.288982e+01
5.506434e+02	-3.293424e+01
5.538239e+02	-3.298381e+01
5.570228e+02	-3.303969e+01
5.602401e+02	-3.309050e+01
5.634760e+02	-3.313407e+01
5.667306e+02	-3.317874e+01
5.700040e+02	-3.323142e+01
5.732964e+02	-3.328848e+01
5.766077e+02	-3.333779e+01
5.799382e+02	-3.338640e+01
5.832879e+02	-3.343898e+01
5.866569e+02	-3.349060e+01
5.900454e+02	-3.353821e+01
5.934535e+02	-3.359118e+01
5.968813e+02	-3.364164e+01
6.003288e+02	-3.369000e+01
6.037963e+02	-3.372909e+01
6.072838e+02	-3.379595e+01
6.107914e+02	-3.384519e+01
6.143194e+02	-3.388904e+01
6.178676e+02	-3.394286e+01
6.214364e+02	-3.399167e+01
6.250258e+02	-3.404483e+01
6.286359e+02	-3.409830e+01
6.322669e+02	-3.414589e+01
6.359189e+02	-3.419026e+01
6.395919e+02	-3.424047e+01
6.432862e+02	-3.429413e+01
6.470017e+02	-3.434118e+01
6.507388e+02	-3.439823e+01
6.544974e+02	-3.445268e+01
6.582778e+02	-3.449316e+01
6.620800e+02	-3.454650e+01
6.659041e+02	-3.460008e+01
6.697504e+02	-3.464584e+01
6.736188e+02	-3.469056e+01
6.775096e+02	-3.474972e+01
6.814229e+02	-3.478996e+01
6.853587e+02	-3.485655e+01
6.893173e+02	-3.488872e+01
6.932988e+02	-3.494335e+01
6.973033e+02	-3.500146e+01
7.013309e+02	-3.505559e+01
