Frequency(Hz)	Magnitude(dB)
1.000000e+01	-2.046472e+00
1.005776e+01	-2.065313e+00
1.011585e+01	-2.084346e+00
1.017428e+01	-2.103323e+00
1.023305e+01	-2.122722e+00
1.029215e+01	-2.142094e+00
1.035160e+01	-2.161566e+00
1.041139e+01	-2.181228e+00
1.047153e+01	-2.201144e+00
1.053201e+01	-2.221138e+00
1.059284e+01	-2.241227e+00
1.065403e+01	-2.261530e+00
1.071556e+01	-2.281907e+00
1.077746e+01	-2.302369e+00
1.083971e+01	-2.322816e+00
1.090232e+01	-2.343579e+00
1.096529e+01	-2.364590e+00
1.102862e+01	-2.385730e+00
1.109232e+01	-2.406753e+00
1.115639e+01	-2.428242e+00
1.122083e+01	-2.449789e+00
1.128564e+01	-2.471541e+00
1.135083e+01	-2.493277e+00
1.141639e+01	-2.515011e+00
1.148233e+01	-2.537189e+00
1.154865e+01	-2.559382e+00
1.161536e+01	-2.581780e+00
1.168245e+01	-2.604215e+00
1.174992e+01	-2.626888e+00
1.181779e+01	-2.649777e+00
1.188605e+01	-2.672504e+00
1.195470e+01	-2.695512e+00
1.202375e+01	-2.719077e+00
1.209320e+01	-2.742430e+00
1.216305e+01	-2.765584e+00
1.223330e+01	-2.789243e+00
1.230396e+01	-2.813084e+00
1.237503e+01	-2.837138e+00
1.244651e+01	-2.861150e+00
1.251840e+01	-2.885112e+00
1.259070e+01	-2.909626e+00
1.266343e+01	-2.934262e+00
1.273657e+01	-2.958794e+00
1.281014e+01	-2.983435e+00
1.288413e+01	-3.008532e+00
1.295855e+01	-3.033617e+00
1.303339e+01	-3.058820e+00
1.310867e+01	-3.084142e+00
1.318439e+01	-3.109620e+00
1.326054e+01	-3.135279e+00
1.333713e+01	-3.161146e+00
1.341417e+01	-3.187120e+00
1.349165e+01	-3.213164e+00
1.356958e+01	-3.239630e+00
1.364795e+01	-3.265623e+00
1.372678e+01	-3.292217e+00
1.380607e+01	-3.318881e+00
1.388581e+01	-3.345812e+00
1.396602e+01	-3.372667e+00
1.404668e+01	-3.399610e+00
1.412782e+01	-3.426958e+00
1.420942e+01	-3.454315e+00
1.429149e+01	-3.481916e+00
1.437404e+01	-3.509515e+00
1.445706e+01	-3.537228e+00
1.454057e+01	-3.565319e+00
1.462455e+01	-3.593360e+00
1.470902e+01	-3.621654e+00
1.479398e+01	-3.650077e+00
1.487943e+01	-3.678791e+00
1.496537e+01	-3.707082e+00
1.505181e+01	-3.735712e+00
1.513875e+01	-3.764685e+00
1.522619e+01	-3.793774e+00
1.531414e+01	-3.823328e+00
1.540259e+01	-3.852404e+00
1.549156e+01	-3.881573e+00
1.558103e+01	-3.911705e+00
1.567103e+01	-3.941195e+00
1.576155e+01	-3.971085e+00
1.585258e+01	-4.001133e+00
1.594415e+01	-4.031276e+00
1.603624e+01	-4.061780e+00
1.612886e+01	-4.092134e+00
1.622202e+01	-4.122881e+00
1.631572e+01	-4.153618e+00
1.640996e+01	-4.184684e+00
1.650474e+01	-4.215747e+00
1.660008e+01	-4.246513e+00
1.669596e+01	-4.278026e+00
1.679239e+01	-4.309321e+00
1.688938e+01	-4.340817e+00
1.698694e+01	-4.372545e+00
1.708505e+01	-4.404332e+00
1.718373e+01	-4.436182e+00
1.728299e+01	-4.468151e+00
1.738281e+01	-4.500697e+00
1.748322e+01	-4.533074e+00
1.758420e+01	-4.565489e+00
1.768576e+01	-4.598205e+00
1.778792e+01	-4.630742e+00
1.789066e+01	-4.663600e+00
1.799399e+01	-4.696750e+00
1.809793e+01	-4.729588e+00
1.820246e+01	-4.762872e+00
1.830760e+01	-4.796005e+00
1.841334e+01	-4.830058e+00
1.851969e+01	-4.863486e+00
1.862666e+01	-4.897138e+00
1.873425e+01	-4.931172e+00
1.884246e+01	-4.965131e+00
1.895129e+01	-4.999577e+00
1.906075e+01	-5.033500e+00
1.917085e+01	-5.067775e+00
1.928158e+01	-5.102465e+00
1.939295e+01	-5.137163e+00
1.950496e+01	-5.172124e+00
1.961762e+01	-5.206712e+00
1.973093e+01	-5.241720e+00
1.984490e+01	-5.276873e+00
1.995952e+01	-5.312193e+00
2.007480e+01	-5.347549e+00
2.019076e+01	-5.382945e+00
2.030738e+01	-5.418321e+00
2.042467e+01	-5.454552e+00
2.054264e+01	-5.490176e+00
2.066130e+01	-5.526027e+00
2.078064e+01	-5.562103e+00
2.090066e+01	-5.598434e+00
2.102139e+01	-5.634482e+00
2.114280e+01	-5.670919e+00
2.126492e+01	-5.707493e+00
2.138775e+01	-5.744162e+00
2.151128e+01	-5.780915e+00
2.163553e+01	-5.817695e+00
2.176050e+01	-5.854745e+00
2.188619e+01	-5.892027e+00
2.201260e+01	-5.929082e+00
2.213974e+01	-5.966451e+00
2.226762e+01	-6.003656e+00
2.239624e+01	-6.041438e+00
2.252560e+01	-6.078916e+00
2.265571e+01	-6.116554e+00
2.278656e+01	-6.154781e+00
2.291818e+01	-6.192225e+00
2.305055e+01	-6.230542e+00
2.318369e+01	-6.268664e+00
2.331760e+01	-6.307097e+00
2.345228e+01	-6.345548e+00
2.358774e+01	-6.383723e+00
2.372398e+01	-6.422412e+00
2.386101e+01	-6.461073e+00
2.399883e+01	-6.499913e+00
2.413745e+01	-6.538948e+00
2.427686e+01	-6.577879e+00
2.441709e+01	-6.616762e+00
2.455812e+01	-6.655711e+00
2.469997e+01	-6.695065e+00
2.484263e+01	-6.734424e+00
2.498612e+01	-6.773819e+00
2.513044e+01	-6.813307e+00
2.527559e+01	-6.853400e+00
2.542158e+01	-6.893052e+00
2.556842e+01	-6.932809e+00
2.571610e+01	-6.972632e+00
2.586463e+01	-7.012472e+00
2.601403e+01	-7.053006e+00
2.616428e+01	-7.093287e+00
2.631541e+01	-7.133512e+00
2.646740e+01	-7.174106e+00
2.662028e+01	-7.214589e+00
2.677404e+01	-7.254742e+00
2.692868e+01	-7.295368e+00
2.708422e+01	-7.336240e+00
2.724066e+01	-7.376992e+00
2.739800e+01	-7.418045e+00
2.755625e+01	-7.458768e+00
2.771541e+01	-7.499923e+00
2.787550e+01	-7.541740e+00
2.803650e+01	-7.582518e+00
2.819844e+01	-7.624486e+00
2.836131e+01	-7.665147e+00
2.852513e+01	-7.706667e+00
2.868989e+01	-7.748259e+00
2.885560e+01	-7.789959e+00
2.902227e+01	-7.831853e+00
2.918990e+01	-7.873663e+00
2.935850e+01	-7.915574e+00
2.952807e+01	-7.957811e+00
2.969863e+01	-7.999623e+00
2.987016e+01	-8.041993e+00
3.004269e+01	-8.083895e+00
3.021622e+01	-8.126159e+00
3.039075e+01	-8.168417e+00
3.056628e+01	-8.211149e+00
3.074283e+01	-8.253447e+00
3.092040e+01	-8.295746e+00
3.109900e+01	-8.338371e+00
3.127862e+01	-8.381063e+00
3.145929e+01	-8.424149e+00
3.164099e+01	-8.467231e+00
3.182375e+01	-8.510733e+00
3.200756e+01	-8.552931e+00
3.219244e+01	-8.596169e+00
3.237838e+01	-8.639429e+00
3.256540e+01	-8.682879e+00
3.275349e+01	-8.726197e+00
3.294268e+01	-8.769192e+00
3.313295e+01	-8.812780e+00
3.332433e+01	-8.856152e+00
3.351681e+01	-8.899616e+00
3.371040e+01	-8.943210e+00
3.390511e+01	-8.987178e+00
3.410094e+01	-9.030634e+00
3.429791e+01	-9.074423e+00
3.449601e+01	-9.118658e+00
3.469526e+01	-9.162217e+00
3.489566e+01	-9.206081e+00
3.509721e+01	-9.249855e+00
3.529993e+01	-9.294255e+00
3.550382e+01	-9.338428e+00
3.570889e+01	-9.383215e+00
3.591515e+01	-9.427637e+00
3.612259e+01	-9.471593e+00
3.633123e+01	-9.515509e+00
3.654108e+01	-9.560721e+00
3.675214e+01	-9.604726e+00
3.696442e+01	-9.649735e+00
3.717792e+01	-9.693980e+00
3.739266e+01	-9.738830e+00
3.760864e+01	-9.784058e+00
3.782587e+01	-9.828348e+00
3.804435e+01	-9.873278e+00
3.826409e+01	-9.917853e+00
3.848510e+01	-9.963064e+00
3.870739e+01	-1.000802e+01
3.893096e+01	-1.005300e+01
3.915583e+01	-1.009819e+01
3.938199e+01	-1.014280e+01
3.960946e+01	-1.018799e+01
3.983824e+01	-1.023428e+01
4.006834e+01	-1.027893e+01
4.029978e+01	-1.032462e+01
4.053255e+01	-1.036995e+01
4.076666e+01	-1.041549e+01
4.100213e+01	-1.046069e+01
4.123896e+01	-1.050624e+01
4.147715e+01	-1.055201e+01
4.171672e+01	-1.059778e+01
4.195767e+01	-1.064295e+01
4.220002e+01	-1.068883e+01
4.244377e+01	-1.073541e+01
4.268892e+01	-1.078025e+01
4.293549e+01	-1.082621e+01
4.318348e+01	-1.087249e+01
4.343291e+01	-1.091852e+01
4.368377e+01	-1.096429e+01
4.393609e+01	-1.101034e+01
4.418986e+01	-1.105690e+01
4.444510e+01	-1.110188e+01
4.470182e+01	-1.114870e+01
4.496001e+01	-1.119486e+01
4.521970e+01	-1.124105e+01
4.548089e+01	-1.128771e+01
4.574358e+01	-1.133458e+01
4.600779e+01	-1.138061e+01
4.627353e+01	-1.142666e+01
4.654081e+01	-1.147319e+01
4.680963e+01	-1.151923e+01
4.708000e+01	-1.156573e+01
4.735193e+01	-1.161264e+01
4.762543e+01	-1.165893e+01
4.790051e+01	-1.170561e+01
4.817719e+01	-1.175216e+01
4.845545e+01	-1.179961e+01
4.873533e+01	-1.184601e+01
4.901682e+01	-1.189312e+01
4.929994e+01	-1.193995e+01
4.958470e+01	-1.198580e+01
4.987110e+01	-1.203299e+01
5.015915e+01	-1.207960e+01
5.044887e+01	-1.212705e+01
5.074026e+01	-1.217359e+01
5.103333e+01	-1.222132e+01
5.132810e+01	-1.226804e+01
5.162457e+01	-1.231500e+01
5.192275e+01	-1.236251e+01
5.222265e+01	-1.240938e+01
5.252429e+01	-1.245737e+01
5.282767e+01	-1.250376e+01
5.313280e+01	-1.255126e+01
5.343969e+01	-1.259836e+01
5.374836e+01	-1.264543e+01
5.405880e+01	-1.269323e+01
5.437105e+01	-1.274008e+01
5.468509e+01	-1.278811e+01
5.500095e+01	-1.283529e+01
5.531863e+01	-1.288192e+01
5.563815e+01	-1.292992e+01
5.595951e+01	-1.297732e+01
5.628273e+01	-1.302497e+01
5.660782e+01	-1.307217e+01
5.693479e+01	-1.312091e+01
5.726364e+01	-1.316763e+01
5.759439e+01	-1.321518e+01
5.792705e+01	-1.326317e+01
5.826164e+01	-1.331091e+01
5.859815e+01	-1.335853e+01
5.893662e+01	-1.340626e+01
5.927703e+01	-1.345416e+01
5.961941e+01	-1.350142e+01
5.996377e+01	-1.354994e+01
6.031012e+01	-1.359736e+01
6.065847e+01	-1.364401e+01
6.100883e+01	-1.369321e+01
6.136121e+01	-1.374129e+01
6.171563e+01	-1.378901e+01
6.207210e+01	-1.383643e+01
6.243063e+01	-1.388430e+01
6.279122e+01	-1.393280e+01
6.315390e+01	-1.398103e+01
6.351868e+01	-1.402934e+01
6.388556e+01	-1.407689e+01
6.425456e+01	-1.412497e+01
6.462569e+01	-1.417303e+01
6.499897e+01	-1.422074e+01
6.537440e+01	-1.426951e+01
6.575200e+01	-1.431799e+01
6.613178e+01	-1.436563e+01
6.651375e+01	-1.441400e+01
6.689793e+01	-1.446214e+01
6.728433e+01	-1.450983e+01
6.767297e+01	-1.455878e+01
6.806384e+01	-1.460711e+01
6.845698e+01	-1.465565e+01
6.885238e+01	-1.470380e+01
6.925007e+01	-1.475210e+01
6.965005e+01	-1.480036e+01
7.005235e+01	-1.484870e+01
7.045697e+01	-1.489689e+01
7.086393e+01	-1.494543e+01
7.127323e+01	-1.499441e+01
7.168490e+01	-1.504286e+01
7.209895e+01	-1.509095e+01
7.251539e+01	-1.513909e+01
7.293424e+01	-1.518761e+01
7.335551e+01	-1.523681e+01
7.377920e+01	-1.528489e+01
7.420535e+01	-1.533365e+01
7.463396e+01	-1.538208e+01
7.506504e+01	-1.543085e+01
7.549861e+01	-1.547866e+01
7.593469e+01	-1.552731e+01
7.637328e+01	-1.557635e+01
7.681441e+01	-1.562506e+01
7.725809e+01	-1.567321e+01
7.770433e+01	-1.572204e+01
7.815315e+01	-1.577121e+01
7.860456e+01	-1.581920e+01
7.905857e+01	-1.586809e+01
7.951521e+01	-1.591822e+01
7.997449e+01	-1.596720e+01
8.043642e+01	-1.601496e+01
8.090102e+01	-1.606262e+01
8.136830e+01	-1.611205e+01
8.183828e+01	-1.616183e+01
8.231097e+01	-1.621092e+01
8.278640e+01	-1.625918e+01
8.326457e+01	-1.630766e+01
8.374550e+01	-1.635752e+01
8.422921e+01	-1.640570e+01
8.471572e+01	-1.645421e+01
8.520503e+01	-1.650324e+01
8.569717e+01	-1.655346e+01
8.619215e+01	-1.660094e+01
8.669000e+01	-1.665051e+01
8.719071e+01	-1.669940e+01
8.769432e+01	-1.674887e+01
8.820084e+01	-1.679711e+01
8.871029e+01	-1.684585e+01
8.922267e+01	-1.689582e+01
8.973802e+01	-1.694405e+01
9.025634e+01	-1.699131e+01
9.077766e+01	-1.704155e+01
9.130199e+01	-1.708992e+01
9.182935e+01	-1.714094e+01
9.235975e+01	-1.718983e+01
9.289321e+01	-1.723882e+01
9.342976e+01	-1.728848e+01
9.396941e+01	-1.733704e+01
9.451217e+01	-1.738617e+01
9.505807e+01	-1.743484e+01
9.560712e+01	-1.748423e+01
9.615934e+01	-1.753321e+01
9.671476e+01	-1.758278e+01
9.727338e+01	-1.763072e+01
9.783522e+01	-1.767960e+01
9.840032e+01	-1.772955e+01
9.896867e+01	-1.777841e+01
9.954031e+01	-1.782830e+01
1.001153e+02	-1.787841e+01
1.006935e+02	-1.792743e+01
1.012751e+02	-1.797623e+01
1.018601e+02	-1.802605e+01
1.024484e+02	-1.807524e+01
1.030402e+02	-1.812251e+01
1.036353e+02	-1.817272e+01
1.042339e+02	-1.822195e+01
1.048360e+02	-1.827140e+01
1.054415e+02	-1.832134e+01
1.060505e+02	-1.836987e+01
1.066631e+02	-1.841871e+01
1.072791e+02	-1.846801e+01
1.078988e+02	-1.851856e+01
1.085220e+02	-1.856685e+01
1.091488e+02	-1.861717e+01
1.097793e+02	-1.866602e+01
1.104133e+02	-1.871608e+01
1.110511e+02	-1.876447e+01
1.116925e+02	-1.881357e+01
1.123376e+02	-1.886380e+01
1.129865e+02	-1.891329e+01
1.136391e+02	-1.896130e+01
1.142955e+02	-1.901146e+01
1.149556e+02	-1.906183e+01
1.156196e+02	-1.911142e+01
1.162874e+02	-1.916219e+01
1.169591e+02	-1.920936e+01
1.176347e+02	-1.925957e+01
1.183141e+02	-1.930896e+01
1.189975e+02	-1.935860e+01
1.196848e+02	-1.940818e+01
1.203761e+02	-1.945624e+01
1.210714e+02	-1.950669e+01
1.217707e+02	-1.955503e+01
1.224740e+02	-1.960453e+01
1.231814e+02	-1.965485e+01
1.238929e+02	-1.970281e+01
1.246085e+02	-1.975492e+01
1.253283e+02	-1.980246e+01
1.260522e+02	-1.985236e+01
1.267802e+02	-1.990096e+01
1.275125e+02	-1.995116e+01
1.282490e+02	-2.000157e+01
1.289898e+02	-2.005224e+01
1.297348e+02	-2.010089e+01
1.304842e+02	-2.015081e+01
1.312378e+02	-2.020008e+01
1.319959e+02	-2.024862e+01
1.327583e+02	-2.029886e+01
1.335251e+02	-2.034928e+01
1.342963e+02	-2.039845e+01
1.350720e+02	-2.044888e+01
1.358522e+02	-2.049720e+01
1.366368e+02	-2.054655e+01
1.374260e+02	-2.059696e+01
1.382198e+02	-2.064603e+01
1.390182e+02	-2.069466e+01
1.398211e+02	-2.074476e+01
1.406287e+02	-2.079660e+01
1.414410e+02	-2.084536e+01
1.422579e+02	-2.089432e+01
1.430796e+02	-2.094415e+01
1.439060e+02	-2.099185e+01
1.447372e+02	-2.104098e+01
1.455732e+02	-2.109221e+01
1.464141e+02	-2.114131e+01
1.472597e+02	-2.119362e+01
1.481103e+02	-2.124117e+01
1.489658e+02	-2.129109e+01
1.498262e+02	-2.134119e+01
1.506916e+02	-2.138965e+01
1.515620e+02	-2.144285e+01
1.524374e+02	-2.148857e+01
1.533179e+02	-2.153986e+01
1.542034e+02	-2.158769e+01
1.550941e+02	-2.163834e+01
1.559899e+02	-2.168751e+01
1.568909e+02	-2.173733e+01
1.577971e+02	-2.178674e+01
1.587085e+02	-2.183855e+01
1.596252e+02	-2.188723e+01
1.605472e+02	-2.193903e+01
1.614745e+02	-2.198681e+01
1.624072e+02	-2.203657e+01
1.633453e+02	-2.208592e+01
1.642887e+02	-2.213647e+01
1.652377e+02	-2.218528e+01
1.661921e+02	-2.223495e+01
1.671520e+02	-2.228376e+01
1.681175e+02	-2.233401e+01
1.690885e+02	-2.238456e+01
1.700651e+02	-2.243421e+01
1.710474e+02	-2.248605e+01
1.720354e+02	-2.253432e+01
1.730291e+02	-2.258428e+01
1.740285e+02	-2.263264e+01
1.750337e+02	-2.268361e+01
1.760446e+02	-2.273221e+01
1.770615e+02	-2.278337e+01
1.780842e+02	-2.283297e+01
1.791128e+02	-2.288050e+01
1.801473e+02	-2.293256e+01
1.811878e+02	-2.298132e+01
1.822344e+02	-2.303125e+01
1.832870e+02	-2.308304e+01
1.843456e+02	-2.313144e+01
1.854104e+02	-2.318261e+01
1.864813e+02	-2.323195e+01
1.875584e+02	-2.328266e+01
1.886418e+02	-2.333288e+01
1.897313e+02	-2.338196e+01
1.908272e+02	-2.342933e+01
1.919294e+02	-2.348024e+01
1.930380e+02	-2.353153e+01
1.941530e+02	-2.358121e+01
1.952744e+02	-2.363230e+01
1.964023e+02	-2.368056e+01
1.975367e+02	-2.373095e+01
1.986777e+02	-2.377993e+01
1.998252e+02	-2.383016e+01
2.009794e+02	-2.387779e+01
2.021403e+02	-2.392755e+01
2.033078e+02	-2.397598e+01
2.044821e+02	-2.402750e+01
2.056632e+02	-2.408059e+01
2.068511e+02	-2.412743e+01
2.080459e+02	-2.417951e+01
2.092475e+02	-2.422791e+01
2.104561e+02	-2.427767e+01
2.116717e+02	-2.432848e+01
2.128943e+02	-2.437701e+01
2.141240e+02	-2.442846e+01
2.153608e+02	-2.447893e+01
2.166047e+02	-2.452487e+01
2.178558e+02	-2.457652e+01
2.191141e+02	-2.462860e+01
2.203797e+02	-2.467637e+01
2.216526e+02	-2.472618e+01
2.229329e+02	-2.478021e+01
2.242205e+02	-2.482514e+01
2.255156e+02	-2.487969e+01
2.268182e+02	-2.492679e+01
2.281283e+02	-2.497513e+01
2.294459e+02	-2.502390e+01
2.307712e+02	-2.507958e+01
2.321041e+02	-2.512903e+01
2.334447e+02	-2.517599e+01
2.347931e+02	-2.522842e+01
2.361493e+02	-2.527717e+01
2.375133e+02	-2.532529e+01
2.388851e+02	-2.537673e+01
2.402649e+02	-2.542668e+01
2.416527e+02	-2.547508e+01
2.430484e+02	-2.552434e+01
2.444523e+02	-2.557752e+01
2.458642e+02	-2.562486e+01
2.472843e+02	-2.567812e+01
2.487126e+02	-2.572574e+01
2.501492e+02	-2.577455e+01
2.515940e+02	-2.582561e+01
2.530472e+02	-2.587742e+01
2.545088e+02	-2.592458e+01
2.559789e+02	-2.597480e+01
2.574574e+02	-2.602620e+01
2.589444e+02	-2.607802e+01
2.604401e+02	-2.612441e+01
2.619444e+02	-2.617431e+01
2.634574e+02	-2.622695e+01
2.649791e+02	-2.627693e+01
2.665096e+02	-2.632218e+01
2.680489e+02	-2.637543e+01
2.695972e+02	-2.642378e+01
2.711544e+02	-2.647518e+01
2.727205e+02	-2.652632e+01
2.742958e+02	-2.657578e+01
2.758801e+02	-2.662452e+01
2.774736e+02	-2.667290e+01
2.790762e+02	-2.672379e+01
2.806882e+02	-2.677306e+01
2.823094e+02	-2.682312e+01
2.839400e+02	-2.687398e+01
2.855800e+02	-2.692414e+01
2.872295e+02	-2.697275e+01
2.888886e+02	-2.702596e+01
2.905572e+02	-2.707083e+01
2.922354e+02	-2.712567e+01
2.939234e+02	-2.717379e+01
2.956211e+02	-2.722398e+01
2.973286e+02	-2.727485e+01
2.990459e+02	-2.732282e+01
3.007732e+02	-2.737593e+01
3.025104e+02	-2.742326e+01
3.042577e+02	-2.747467e+01
3.060151e+02	-2.752356e+01
3.077826e+02	-2.757505e+01
3.095604e+02	-2.762759e+01
3.113484e+02	-2.767213e+01
3.131467e+02	-2.772620e+01
3.149554e+02	-2.777466e+01
3.167746e+02	-2.782526e+01
3.186043e+02	-2.787791e+01
3.204445e+02	-2.792227e+01
3.222954e+02	-2.797693e+01
3.241570e+02	-2.802753e+01
3.260293e+02	-2.807257e+01
3.279124e+02	-2.812439e+01
3.298064e+02	-2.817728e+01
3.317114e+02	-2.822224e+01
3.336273e+02	-2.827660e+01
3.355544e+02	-2.832673e+01
3.374925e+02	-2.837282e+01
3.394418e+02	-2.842647e+01
3.414024e+02	-2.847948e+01
3.433744e+02	-2.852755e+01
3.453577e+02	-2.857531e+01
3.473525e+02	-2.862610e+01
3.493588e+02	-2.867472e+01
3.513766e+02	-2.872460e+01
3.534062e+02	-2.877531e+01
3.554474e+02	-2.882843e+01
3.575005e+02	-2.887549e+01
3.595654e+02	-2.892244e+01
3.616422e+02	-2.897866e+01
3.637311e+02	-2.902542e+01
3.658320e+02	-2.907873e+01
3.679450e+02	-2.912641e+01
3.700702e+02	-2.917108e+01
3.722077e+02	-2.922586e+01
3.743576e+02	-2.928044e+01
3.765199e+02	-2.932404e+01
3.786946e+02	-2.937315e+01
3.808820e+02	-2.942651e+01
3.830819e+02	-2.948057e+01
3.852946e+02	-2.952664e+01
3.875200e+02	-2.957809e+01
3.897583e+02	-2.962525e+01
3.920096e+02	-2.967905e+01
3.942738e+02	-2.972577e+01
3.965511e+02	-2.978048e+01
3.988416e+02	-2.982450e+01
4.011452e+02	-2.987728e+01
4.034622e+02	-2.992643e+01
4.057926e+02	-2.997439e+01
4.081365e+02	-3.002555e+01
4.104938e+02	-3.007839e+01
4.128648e+02	-3.012733e+01
4.152495e+02	-3.017691e+01
4.176480e+02	-3.022935e+01
4.200603e+02	-3.027823e+01
4.224866e+02	-3.033123e+01
4.249268e+02	-3.037312e+01
4.273812e+02	-3.043263e+01
4.298497e+02	-3.047733e+01
4.323325e+02	-3.052456e+01
4.348297e+02	-3.058551e+01
4.373412e+02	-3.062837e+01
4.398673e+02	-3.068026e+01
4.424079e+02	-3.072645e+01
4.449633e+02	-3.077676e+01
4.475334e+02	-3.082996e+01
4.501183e+02	-3.087576e+01
4.527182e+02	-3.093169e+01
4.553330e+02	-3.098402e+01
4.579630e+02	-3.102999e+01
4.606082e+02	-3.108150e+01
4.632687e+02	-3.112675e+01
4.659445e+02	-3.117748e+01
4.686358e+02	-3.122531e+01
4.713426e+02	-3.127771e+01
4.740650e+02	-3.132978e+01
4.768032e+02	-3.137903e+01
4.795572e+02	-3.142921e+01
4.823271e+02	-3.148030e+01
4.851130e+02	-3.153208e+01
4.879150e+02	-3.158472e+01
4.907332e+02	-3.163465e+01
4.935676e+02	-3.168916e+01
4.964185e+02	-3.173171e+01
4.992858e+02	-3.178215e+01
5.021696e+02	-3.183596e+01
5.050701e+02	-3.189140e+01
5.079874e+02	-3.193588e+01
5.109215e+02	-3.198528e+01
5.138726e+02	-3.203353e+01
5.168407e+02	-3.207964e+01
5.198259e+02	-3.213297e+01
5.228284e+02	-3.218560e+01
5.258482e+02	-3.223649e+01
5.288855e+02	-3.228349e+01
5.319403e+02	-3.233409e+01
5.350128e+02	-3.238964e+01
5.381030e+02	-3.243503e+01
5.412111e+02	-3.248553e+01
5.443371e+02	-3.254466e+01
5.474812e+02	-3.258904e+01
5.506434e+02	-3.263932e+01
5.538239e+02	-3.268208e+01
5.570228e+02	-3.273986e+01
5.602401e+02	-3.279034e+01
5.634760e+02	-3.283663e+01
5.667306e+02	-3.288584e+01
5.700040e+02	-3.293329e+01
5.732964e+02	-3.299140e+01
5.766077e+02	-3.303886e+01
5.799382e+02	-3.308793e+01
5.832879e+02	-3.314693e+01
5.866569e+02	-3.319013e+01
5.900454e+02	-3.323935e+01
5.934535e+02	-3.329238e+01
5.968813e+02	-3.334070e+01
6.003288e+02	-3.339068e+01
6.037963e+02	-3.344451e+01
6.072838e+02	-3.349079e+01
6.107914e+02	-3.354020e+01
6.143194e+02	-3.358768e+01
6.178676e+02	-3.364227e+01
6.214364e+02	-3.369108e+01
6.250258e+02	-3.374157e+01
6.286359e+02	-3.378494e+01
6.322669e+02	-3.384404e+01
6.359189e+02	-3.388934e+01
6.395919e+02	-3.394231e+01
6.432862e+02	-3.399669e+01
6.470017e+02	-3.404797e+01
6.507388e+02	-3.410274e+01
6.544974e+02	-3.415002e+01
6.582778e+02	-3.418867e+01
6.620800e+02	-3.424965e+01
6.659041e+02	-3.429028e+01
6.697504e+02	-3.434497e+01
6.736188e+02	-3.440263e+01
6.775096e+02	-3.444104e+01
6.814229e+02	-3.449776e+01
6.853587e+02	-3.454674e+01
6.893173e+02	-3.460569e+01
6.932988e+02	-3.464746e+01
6.973033e+02	-3.470489e+01
7.013309e+02	-3.475758e+01
