Frequency(Hz)	Magnitude(dB)
1.000000e+01	-1.720898e-05
1.005776e+01	-1.740835e-05
1.011585e+01	-1.761003e-05
1.017428e+01	-1.781405e-05
1.023305e+01	-1.802043e-05
1.029215e+01	-1.822920e-05
1.035160e+01	-1.844039e-05
1.041139e+01	-1.865402e-05
1.047153e+01	-1.887013e-05
1.053201e+01	-1.908875e-05
1.059284e+01	-1.930990e-05
1.065403e+01	-1.953361e-05
1.071556e+01	-1.975991e-05
1.077746e+01	-1.998883e-05
1.083971e+01	-2.022041e-05
1.090232e+01	-2.045467e-05
1.096529e+01	-2.069164e-05
1.102862e+01	-2.093136e-05
1.109232e+01	-2.117385e-05
1.115639e+01	-2.141916e-05
1.122083e+01	-2.166730e-05
1.128564e+01	-2.191833e-05
1.135083e+01	-2.217225e-05
1.141639e+01	-2.242913e-05
1.148233e+01	-2.268897e-05
1.154865e+01	-2.295183e-05
1.161536e+01	-2.321773e-05
1.168245e+01	-2.348672e-05
1.174992e+01	-2.375882e-05
1.181779e+01	-2.403407e-05
1.188605e+01	-2.431251e-05
1.195470e+01	-2.459417e-05
1.202375e+01	-2.487910e-05
1.209320e+01	-2.516733e-05
1.216305e+01	-2.545890e-05
1.223330e+01	-2.575385e-05
1.230396e+01	-2.605222e-05
1.237503e+01	-2.635404e-05
1.244651e+01	-2.665936e-05
1.251840e+01	-2.696821e-05
1.259070e+01	-2.728064e-05
1.266343e+01	-2.759670e-05
1.273657e+01	-2.791641e-05
1.281014e+01	-2.823983e-05
1.288413e+01	-2.856700e-05
1.295855e+01	-2.889795e-05
1.303339e+01	-2.923274e-05
1.310867e+01	-2.957141e-05
1.318439e+01	-2.991400e-05
1.326054e+01	-3.026056e-05
1.333713e+01	-3.061114e-05
1.341417e+01	-3.096577e-05
1.349165e+01	-3.132452e-05
1.356958e+01	-3.168742e-05
1.364795e+01	-3.205453e-05
1.372678e+01	-3.242589e-05
1.380607e+01	-3.280155e-05
1.388581e+01	-3.318156e-05
1.396602e+01	-3.356598e-05
1.404668e+01	-3.395485e-05
1.412782e+01	-3.434822e-05
1.420942e+01	-3.474616e-05
1.429149e+01	-3.514870e-05
1.437404e+01	-3.555590e-05
1.445706e+01	-3.596783e-05
1.454057e+01	-3.638452e-05
1.462455e+01	-3.680605e-05
1.470902e+01	-3.723245e-05
1.479398e+01	-3.766380e-05
1.487943e+01	-3.810014e-05
1.496537e+01	-3.854154e-05
1.505181e+01	-3.898805e-05
1.513875e+01	-3.943974e-05
1.522619e+01	-3.989666e-05
1.531414e+01	-4.035887e-05
1.540259e+01	-4.082644e-05
1.549156e+01	-4.129942e-05
1.558103e+01	-4.177788e-05
1.567103e+01	-4.226189e-05
1.576155e+01	-4.275150e-05
1.585258e+01	-4.324679e-05
1.594415e+01	-4.374781e-05
1.603624e+01	-4.425464e-05
1.612886e+01	-4.476734e-05
1.622202e+01	-4.528598e-05
1.631572e+01	-4.581063e-05
1.640996e+01	-4.634135e-05
1.650474e+01	-4.687823e-05
1.660008e+01	-4.742132e-05
1.669596e+01	-4.797071e-05
1.679239e+01	-4.852646e-05
1.688938e+01	-4.908865e-05
1.698694e+01	-4.965735e-05
1.708505e+01	-5.023264e-05
1.718373e+01	-5.081460e-05
1.728299e+01	-5.140330e-05
1.738281e+01	-5.199882e-05
1.748322e+01	-5.260123e-05
1.758420e+01	-5.321063e-05
1.768576e+01	-5.382708e-05
1.778792e+01	-5.445068e-05
1.789066e+01	-5.508151e-05
1.799399e+01	-5.571964e-05
1.809793e+01	-5.636516e-05
1.820246e+01	-5.701816e-05
1.830760e+01	-5.767873e-05
1.841334e+01	-5.834695e-05
1.851969e+01	-5.902291e-05
1.862666e+01	-5.970670e-05
1.873425e+01	-6.039841e-05
1.884246e+01	-6.109814e-05
1.895129e+01	-6.180598e-05
1.906075e+01	-6.252201e-05
1.917085e+01	-6.324634e-05
1.928158e+01	-6.397906e-05
1.939295e+01	-6.472027e-05
1.950496e+01	-6.547007e-05
1.961762e+01	-6.622855e-05
1.973093e+01	-6.699582e-05
1.984490e+01	-6.777198e-05
1.995952e+01	-6.855713e-05
2.007480e+01	-6.935138e-05
2.019076e+01	-7.015483e-05
2.030738e+01	-7.096759e-05
2.042467e+01	-7.178976e-05
2.054264e+01	-7.262145e-05
2.066130e+01	-7.346279e-05
2.078064e+01	-7.431387e-05
2.090066e+01	-7.517481e-05
2.102139e+01	-7.604572e-05
2.114280e+01	-7.692672e-05
2.126492e+01	-7.781793e-05
2.138775e+01	-7.871947e-05
2.151128e+01	-7.963145e-05
2.163553e+01	-8.055399e-05
2.176050e+01	-8.148722e-05
2.188619e+01	-8.243127e-05
2.201260e+01	-8.338625e-05
2.213974e+01	-8.435229e-05
2.226762e+01	-8.532952e-05
2.239624e+01	-8.631808e-05
2.252560e+01	-8.731809e-05
2.265571e+01	-8.832968e-05
2.278656e+01	-8.935300e-05
2.291818e+01	-9.038817e-05
2.305055e+01	-9.143533e-05
2.318369e+01	-9.249462e-05
2.331760e+01	-9.356618e-05
2.345228e+01	-9.465016e-05
2.358774e+01	-9.574670e-05
2.372398e+01	-9.685594e-05
2.386101e+01	-9.797803e-05
2.399883e+01	-9.911312e-05
2.413745e+01	-1.002614e-04
2.427686e+01	-1.014229e-04
2.441709e+01	-1.025979e-04
2.455812e+01	-1.037865e-04
2.469997e+01	-1.049889e-04
2.484263e+01	-1.062052e-04
2.498612e+01	-1.074356e-04
2.513044e+01	-1.086803e-04
2.527559e+01	-1.099393e-04
2.542158e+01	-1.112130e-04
2.556842e+01	-1.125014e-04
2.571610e+01	-1.138048e-04
2.586463e+01	-1.151232e-04
2.601403e+01	-1.164569e-04
2.616428e+01	-1.178061e-04
2.631541e+01	-1.191709e-04
2.646740e+01	-1.205515e-04
2.662028e+01	-1.219481e-04
2.677404e+01	-1.233609e-04
2.692868e+01	-1.247900e-04
2.708422e+01	-1.262357e-04
2.724066e+01	-1.276982e-04
2.739800e+01	-1.291776e-04
2.755625e+01	-1.306741e-04
2.771541e+01	-1.321880e-04
2.787550e+01	-1.337194e-04
2.803650e+01	-1.352686e-04
2.819844e+01	-1.368357e-04
2.836131e+01	-1.384209e-04
2.852513e+01	-1.400245e-04
2.868989e+01	-1.416467e-04
2.885560e+01	-1.432877e-04
2.902227e+01	-1.449477e-04
2.918990e+01	-1.466269e-04
2.935850e+01	-1.483256e-04
2.952807e+01	-1.500440e-04
2.969863e+01	-1.517823e-04
2.987016e+01	-1.535407e-04
3.004269e+01	-1.553195e-04
3.021622e+01	-1.571188e-04
3.039075e+01	-1.589391e-04
3.056628e+01	-1.607804e-04
3.074283e+01	-1.626430e-04
3.092040e+01	-1.645273e-04
3.109900e+01	-1.664333e-04
3.127862e+01	-1.683615e-04
3.145929e+01	-1.703120e-04
3.164099e+01	-1.722850e-04
3.182375e+01	-1.742810e-04
3.200756e+01	-1.763000e-04
3.219244e+01	-1.783424e-04
3.237838e+01	-1.804086e-04
3.256540e+01	-1.824986e-04
3.275349e+01	-1.846128e-04
3.294268e+01	-1.867516e-04
3.313295e+01	-1.889151e-04
3.332433e+01	-1.911037e-04
3.351681e+01	-1.933176e-04
3.371040e+01	-1.955572e-04
3.390511e+01	-1.978228e-04
3.410094e+01	-2.001145e-04
3.429791e+01	-2.024329e-04
3.449601e+01	-2.047781e-04
3.469526e+01	-2.071504e-04
3.489566e+01	-2.095502e-04
3.509721e+01	-2.119779e-04
3.529993e+01	-2.144336e-04
3.550382e+01	-2.169179e-04
3.570889e+01	-2.194308e-04
3.591515e+01	-2.219730e-04
3.612259e+01	-2.245445e-04
3.633123e+01	-2.271458e-04
3.654108e+01	-2.297773e-04
3.675214e+01	-2.324393e-04
3.696442e+01	-2.351321e-04
3.717792e+01	-2.378561e-04
3.739266e+01	-2.406116e-04
3.760864e+01	-2.433991e-04
3.782587e+01	-2.462189e-04
3.804435e+01	-2.490713e-04
3.826409e+01	-2.519568e-04
3.848510e+01	-2.548757e-04
3.870739e+01	-2.578284e-04
3.893096e+01	-2.608153e-04
3.915583e+01	-2.638369e-04
3.938199e+01	-2.668934e-04
3.960946e+01	-2.699853e-04
3.983824e+01	-2.731131e-04
4.006834e+01	-2.762771e-04
4.029978e+01	-2.794777e-04
4.053255e+01	-2.827154e-04
4.076666e+01	-2.859907e-04
4.100213e+01	-2.893038e-04
4.123896e+01	-2.926554e-04
4.147715e+01	-2.960458e-04
4.171672e+01	-2.994754e-04
4.195767e+01	-3.029448e-04
4.220002e+01	-3.064544e-04
4.244377e+01	-3.100046e-04
4.268892e+01	-3.135960e-04
4.293549e+01	-3.172289e-04
4.318348e+01	-3.209040e-04
4.343291e+01	-3.246216e-04
4.368377e+01	-3.283823e-04
4.393609e+01	-3.321866e-04
4.418986e+01	-3.360349e-04
4.444510e+01	-3.399278e-04
4.470182e+01	-3.438658e-04
4.496001e+01	-3.478494e-04
4.521970e+01	-3.518792e-04
4.548089e+01	-3.559556e-04
4.574358e+01	-3.600793e-04
4.600779e+01	-3.642507e-04
4.627353e+01	-3.684705e-04
4.654081e+01	-3.727392e-04
4.680963e+01	-3.770573e-04
4.708000e+01	-3.814254e-04
4.735193e+01	-3.858441e-04
4.762543e+01	-3.903140e-04
4.790051e+01	-3.948357e-04
4.817719e+01	-3.994098e-04
4.845545e+01	-4.040368e-04
4.873533e+01	-4.087175e-04
4.901682e+01	-4.134524e-04
4.929994e+01	-4.182421e-04
4.958470e+01	-4.230873e-04
4.987110e+01	-4.279887e-04
5.015915e+01	-4.329468e-04
5.044887e+01	-4.379623e-04
5.074026e+01	-4.430360e-04
5.103333e+01	-4.481684e-04
5.132810e+01	-4.533603e-04
5.162457e+01	-4.586123e-04
5.192275e+01	-4.639252e-04
5.222265e+01	-4.692996e-04
5.252429e+01	-4.747363e-04
5.282767e+01	-4.802359e-04
5.313280e+01	-4.857993e-04
5.343969e+01	-4.914271e-04
5.374836e+01	-4.971201e-04
5.405880e+01	-5.028790e-04
5.437105e+01	-5.087047e-04
5.468509e+01	-5.145978e-04
5.500095e+01	-5.205592e-04
5.531863e+01	-5.265897e-04
5.563815e+01	-5.326900e-04
5.595951e+01	-5.388609e-04
5.628273e+01	-5.451034e-04
5.660782e+01	-5.514182e-04
5.693479e+01	-5.578061e-04
5.726364e+01	-5.642680e-04
5.759439e+01	-5.708048e-04
5.792705e+01	-5.774173e-04
5.826164e+01	-5.841064e-04
5.859815e+01	-5.908729e-04
5.893662e+01	-5.977179e-04
5.927703e+01	-6.046421e-04
5.961941e+01	-6.116466e-04
5.996377e+01	-6.187322e-04
6.031012e+01	-6.258999e-04
6.065847e+01	-6.331505e-04
6.100883e+01	-6.404852e-04
6.136121e+01	-6.479049e-04
6.171563e+01	-6.554105e-04
6.207210e+01	-6.630030e-04
6.243063e+01	-6.706835e-04
6.279122e+01	-6.784529e-04
6.315390e+01	-6.863124e-04
6.351868e+01	-6.942628e-04
6.388556e+01	-7.023054e-04
6.425456e+01	-7.104412e-04
6.462569e+01	-7.186711e-04
6.499897e+01	-7.269964e-04
6.537440e+01	-7.354182e-04
6.575200e+01	-7.439375e-04
6.613178e+01	-7.525554e-04
6.651375e+01	-7.612732e-04
6.689793e+01	-7.700920e-04
6.728433e+01	-7.790129e-04
6.767297e+01	-7.880372e-04
6.806384e+01	-7.971660e-04
6.845698e+01	-8.064005e-04
6.885238e+01	-8.157420e-04
6.925007e+01	-8.251917e-04
6.965005e+01	-8.347509e-04
7.005235e+01	-8.444207e-04
7.045697e+01	-8.542026e-04
7.086393e+01	-8.640978e-04
7.127323e+01	-8.741076e-04
7.168490e+01	-8.842334e-04
7.209895e+01	-8.944764e-04
7.251539e+01	-9.048381e-04
7.293424e+01	-9.153197e-04
7.335551e+01	-9.259228e-04
7.377920e+01	-9.366488e-04
7.420535e+01	-9.474989e-04
7.463396e+01	-9.584747e-04
7.506504e+01	-9.695777e-04
7.549861e+01	-9.808092e-04
7.593469e+01	-9.921709e-04
7.637328e+01	-1.003664e-03
7.681441e+01	-1.015290e-03
7.725809e+01	-1.027052e-03
7.770433e+01	-1.038949e-03
7.815315e+01	-1.050984e-03
7.860456e+01	-1.063158e-03
7.905857e+01	-1.075474e-03
7.951521e+01	-1.087932e-03
7.997449e+01	-1.100534e-03
8.043642e+01	-1.113283e-03
8.090102e+01	-1.126179e-03
8.136830e+01	-1.139224e-03
8.183828e+01	-1.152420e-03
8.231097e+01	-1.165770e-03
8.278640e+01	-1.179274e-03
8.326457e+01	-1.192934e-03
8.374550e+01	-1.206752e-03
8.422921e+01	-1.220731e-03
8.471572e+01	-1.234872e-03
8.520503e+01	-1.249176e-03
8.569717e+01	-1.263646e-03
8.619215e+01	-1.278283e-03
8.669000e+01	-1.293090e-03
8.719071e+01	-1.308069e-03
8.769432e+01	-1.323221e-03
8.820084e+01	-1.338548e-03
8.871029e+01	-1.354053e-03
8.922267e+01	-1.369738e-03
8.973802e+01	-1.385604e-03
9.025634e+01	-1.401654e-03
9.077766e+01	-1.417890e-03
9.130199e+01	-1.434314e-03
9.182935e+01	-1.450928e-03
9.235975e+01	-1.467735e-03
9.289321e+01	-1.484736e-03
9.342976e+01	-1.501934e-03
9.396941e+01	-1.519331e-03
9.451217e+01	-1.536930e-03
9.505807e+01	-1.554733e-03
9.560712e+01	-1.572741e-03
9.615934e+01	-1.590959e-03
9.671476e+01	-1.609387e-03
9.727338e+01	-1.628029e-03
9.783522e+01	-1.646886e-03
9.840032e+01	-1.665962e-03
9.896867e+01	-1.685259e-03
9.954031e+01	-1.704779e-03
1.001153e+02	-1.724526e-03
1.006935e+02	-1.744501e-03
1.012751e+02	-1.764707e-03
1.018601e+02	-1.785148e-03
1.024484e+02	-1.805825e-03
1.030402e+02	-1.826741e-03
1.036353e+02	-1.847900e-03
1.042339e+02	-1.869304e-03
1.048360e+02	-1.890956e-03
1.054415e+02	-1.912858e-03
1.060505e+02	-1.935014e-03
1.066631e+02	-1.957427e-03
1.072791e+02	-1.980099e-03
1.078988e+02	-2.003033e-03
1.085220e+02	-2.026234e-03
1.091488e+02	-2.049703e-03
1.097793e+02	-2.073443e-03
1.104133e+02	-2.097459e-03
1.110511e+02	-2.121753e-03
1.116925e+02	-2.146328e-03
1.123376e+02	-2.171187e-03
1.129865e+02	-2.196335e-03
1.136391e+02	-2.221773e-03
1.142955e+02	-2.247506e-03
1.149556e+02	-2.273537e-03
1.156196e+02	-2.299870e-03
1.162874e+02	-2.326507e-03
1.169591e+02	-2.353453e-03
1.176347e+02	-2.380711e-03
1.183141e+02	-2.408285e-03
1.189975e+02	-2.436178e-03
1.196848e+02	-2.464393e-03
1.203761e+02	-2.492936e-03
1.210714e+02	-2.521809e-03
1.217707e+02	-2.551016e-03
1.224740e+02	-2.580561e-03
1.231814e+02	-2.610449e-03
1.238929e+02	-2.640682e-03
1.246085e+02	-2.671266e-03
1.253283e+02	-2.702204e-03
1.260522e+02	-2.733499e-03
1.267802e+02	-2.765158e-03
1.275125e+02	-2.797182e-03
1.282490e+02	-2.829578e-03
1.289898e+02	-2.862349e-03
1.297348e+02	-2.895498e-03
1.304842e+02	-2.929032e-03
1.312378e+02	-2.962954e-03
1.319959e+02	-2.997269e-03
1.327583e+02	-3.031981e-03
1.335251e+02	-3.067095e-03
1.342963e+02	-3.102615e-03
1.350720e+02	-3.138547e-03
1.358522e+02	-3.174894e-03
1.366368e+02	-3.211663e-03
1.374260e+02	-3.248857e-03
1.382198e+02	-3.286481e-03
1.390182e+02	-3.324542e-03
1.398211e+02	-3.363042e-03
1.406287e+02	-3.401989e-03
1.414410e+02	-3.441386e-03
1.422579e+02	-3.481239e-03
1.430796e+02	-3.521554e-03
1.439060e+02	-3.562335e-03
1.447372e+02	-3.603589e-03
1.455732e+02	-3.645320e-03
1.464141e+02	-3.687534e-03
1.472597e+02	-3.730237e-03
1.481103e+02	-3.773434e-03
1.489658e+02	-3.817130e-03
1.498262e+02	-3.861333e-03
1.506916e+02	-3.906048e-03
1.515620e+02	-3.951280e-03
1.524374e+02	-3.997035e-03
1.533179e+02	-4.043320e-03
1.542034e+02	-4.090141e-03
1.550941e+02	-4.137504e-03
1.559899e+02	-4.185415e-03
1.568909e+02	-4.233880e-03
1.577971e+02	-4.282906e-03
1.587085e+02	-4.332500e-03
1.596252e+02	-4.382668e-03
1.605472e+02	-4.433416e-03
1.614745e+02	-4.484752e-03
1.624072e+02	-4.536682e-03
1.633453e+02	-4.589213e-03
1.642887e+02	-4.642351e-03
1.652377e+02	-4.696105e-03
1.661921e+02	-4.750481e-03
1.671520e+02	-4.805486e-03
1.681175e+02	-4.861127e-03
1.690885e+02	-4.917413e-03
1.700651e+02	-4.974350e-03
1.710474e+02	-5.031945e-03
1.720354e+02	-5.090208e-03
1.730291e+02	-5.149144e-03
1.740285e+02	-5.208762e-03
1.750337e+02	-5.269070e-03
1.760446e+02	-5.330076e-03
1.770615e+02	-5.391788e-03
1.780842e+02	-5.454214e-03
1.791128e+02	-5.517362e-03
1.801473e+02	-5.581241e-03
1.811878e+02	-5.645859e-03
1.822344e+02	-5.711225e-03
1.832870e+02	-5.777347e-03
1.843456e+02	-5.844234e-03
1.854104e+02	-5.911894e-03
1.864813e+02	-5.980338e-03
1.875584e+02	-6.049573e-03
1.886418e+02	-6.119610e-03
1.897313e+02	-6.190456e-03
1.908272e+02	-6.262122e-03
1.919294e+02	-6.334618e-03
1.930380e+02	-6.407951e-03
1.941530e+02	-6.482134e-03
1.952744e+02	-6.557174e-03
1.964023e+02	-6.633082e-03
1.975367e+02	-6.709869e-03
1.986777e+02	-6.787543e-03
1.998252e+02	-6.866117e-03
2.009794e+02	-6.945598e-03
2.021403e+02	-7.026000e-03
2.033078e+02	-7.107331e-03
2.044821e+02	-7.189603e-03
2.056632e+02	-7.272826e-03
2.068511e+02	-7.357012e-03
2.080459e+02	-7.442172e-03
2.092475e+02	-7.528316e-03
2.104561e+02	-7.615457e-03
2.116717e+02	-7.703606e-03
2.128943e+02	-7.792774e-03
2.141240e+02	-7.882973e-03
2.153608e+02	-7.974215e-03
2.166047e+02	-8.066512e-03
2.178558e+02	-8.159877e-03
2.191141e+02	-8.254321e-03
2.203797e+02	-8.349857e-03
2.216526e+02	-8.446498e-03
2.229329e+02	-8.544256e-03
2.242205e+02	-8.643145e-03
2.255156e+02	-8.743177e-03
2.268182e+02	-8.844365e-03
2.281283e+02	-8.946723e-03
2.294459e+02	-9.050265e-03
2.307712e+02	-9.155004e-03
2.321041e+02	-9.260953e-03
2.334447e+02	-9.368128e-03
2.347931e+02	-9.476541e-03
2.361493e+02	-9.586208e-03
2.375133e+02	-9.697142e-03
2.388851e+02	-9.809359e-03
2.402649e+02	-9.922872e-03
2.416527e+02	-1.003770e-02
2.430484e+02	-1.015385e-02
2.444523e+02	-1.027135e-02
2.458642e+02	-1.039020e-02
2.472843e+02	-1.051043e-02
2.487126e+02	-1.063204e-02
2.501492e+02	-1.075506e-02
2.515940e+02	-1.087951e-02
2.530472e+02	-1.100539e-02
2.545088e+02	-1.113273e-02
2.559789e+02	-1.126153e-02
2.574574e+02	-1.139183e-02
2.589444e+02	-1.152363e-02
2.604401e+02	-1.165696e-02
2.619444e+02	-1.179182e-02
2.634574e+02	-1.192824e-02
2.649791e+02	-1.206624e-02
2.665096e+02	-1.220584e-02
2.680489e+02	-1.234704e-02
2.695972e+02	-1.248988e-02
2.711544e+02	-1.263437e-02
2.727205e+02	-1.278052e-02
2.742958e+02	-1.292837e-02
2.758801e+02	-1.307792e-02
2.774736e+02	-1.322920e-02
2.790762e+02	-1.338223e-02
2.806882e+02	-1.353702e-02
2.823094e+02	-1.369360e-02
2.839400e+02	-1.385199e-02
2.855800e+02	-1.401221e-02
2.872295e+02	-1.417428e-02
2.888886e+02	-1.433822e-02
2.905572e+02	-1.450405e-02
2.922354e+02	-1.467180e-02
2.939234e+02	-1.484149e-02
2.956211e+02	-1.501313e-02
2.973286e+02	-1.518676e-02
2.990459e+02	-1.536239e-02
3.007732e+02	-1.554004e-02
3.025104e+02	-1.571975e-02
3.042577e+02	-1.590154e-02
3.060151e+02	-1.608542e-02
3.077826e+02	-1.627142e-02
3.095604e+02	-1.645957e-02
3.113484e+02	-1.664989e-02
3.131467e+02	-1.684241e-02
3.149554e+02	-1.703715e-02
3.167746e+02	-1.723414e-02
3.186043e+02	-1.743339e-02
3.204445e+02	-1.763495e-02
3.222954e+02	-1.783884e-02
3.241570e+02	-1.804507e-02
3.260293e+02	-1.825369e-02
3.279124e+02	-1.846471e-02
3.298064e+02	-1.867817e-02
3.317114e+02	-1.889409e-02
3.336273e+02	-1.911250e-02
3.355544e+02	-1.933343e-02
3.374925e+02	-1.955690e-02
3.394418e+02	-1.978296e-02
3.414024e+02	-2.001162e-02
3.433744e+02	-2.024292e-02
3.453577e+02	-2.047688e-02
3.473525e+02	-2.071354e-02
3.493588e+02	-2.095293e-02
3.513766e+02	-2.119508e-02
3.534062e+02	-2.144003e-02
3.554474e+02	-2.168779e-02
3.575005e+02	-2.193841e-02
3.595654e+02	-2.219192e-02
3.616422e+02	-2.244836e-02
3.637311e+02	-2.270774e-02
3.658320e+02	-2.297012e-02
3.679450e+02	-2.323552e-02
3.700702e+02	-2.350398e-02
3.722077e+02	-2.377553e-02
3.743576e+02	-2.405021e-02
3.765199e+02	-2.432806e-02
3.786946e+02	-2.460910e-02
3.808820e+02	-2.489338e-02
3.830819e+02	-2.518094e-02
3.852946e+02	-2.547181e-02
3.875200e+02	-2.576603e-02
3.897583e+02	-2.606364e-02
3.920096e+02	-2.636467e-02
3.942738e+02	-2.666917e-02
3.965511e+02	-2.697718e-02
3.988416e+02	-2.728873e-02
4.011452e+02	-2.760387e-02
4.034622e+02	-2.792264e-02
4.057926e+02	-2.824507e-02
4.081365e+02	-2.857122e-02
4.104938e+02	-2.890112e-02
4.128648e+02	-2.923482e-02
4.152495e+02	-2.957235e-02
4.176480e+02	-2.991377e-02
4.200603e+02	-3.025912e-02
4.224866e+02	-3.060844e-02
4.249268e+02	-3.096178e-02
4.273812e+02	-3.131918e-02
4.298497e+02	-3.168069e-02
4.323325e+02	-3.204636e-02
4.348297e+02	-3.241624e-02
4.373412e+02	-3.279037e-02
4.398673e+02	-3.316880e-02
4.424079e+02	-3.355158e-02
4.449633e+02	-3.393876e-02
4.475334e+02	-3.433039e-02
4.501183e+02	-3.472652e-02
4.527182e+02	-3.512721e-02
4.553330e+02	-3.553249e-02
4.579630e+02	-3.594244e-02
4.606082e+02	-3.635709e-02
4.632687e+02	-3.677651e-02
4.659445e+02	-3.720075e-02
4.686358e+02	-3.762985e-02
4.713426e+02	-3.806389e-02
4.740650e+02	-3.850291e-02
4.768032e+02	-3.894697e-02
4.795572e+02	-3.939613e-02
4.823271e+02	-3.985044e-02
4.851130e+02	-4.030997e-02
4.879150e+02	-4.077478e-02
4.907332e+02	-4.124492e-02
4.935676e+02	-4.172045e-02
4.964185e+02	-4.220144e-02
4.992858e+02	-4.268794e-02
5.021696e+02	-4.318003e-02
5.050701e+02	-4.367776e-02
5.079874e+02	-4.418120e-02
5.109215e+02	-4.469041e-02
5.138726e+02	-4.520546e-02
5.168407e+02	-4.572641e-02
5.198259e+02	-4.625334e-02
5.228284e+02	-4.678630e-02
5.258482e+02	-4.732537e-02
5.288855e+02	-4.787062e-02
5.319403e+02	-4.842212e-02
5.350128e+02	-4.897993e-02
5.381030e+02	-4.954413e-02
5.412111e+02	-5.011480e-02
5.443371e+02	-5.069199e-02
5.474812e+02	-5.127580e-02
5.506434e+02	-5.186629e-02
5.538239e+02	-5.246354e-02
5.570228e+02	-5.306762e-02
5.602401e+02	-5.367862e-02
5.634760e+02	-5.429661e-02
5.667306e+02	-5.492166e-02
5.700040e+02	-5.555387e-02
5.732964e+02	-5.619331e-02
5.766077e+02	-5.684005e-02
5.799382e+02	-5.749420e-02
5.832879e+02	-5.815582e-02
5.866569e+02	-5.882500e-02
5.900454e+02	-5.950182e-02
5.934535e+02	-6.018639e-02
5.968813e+02	-6.087877e-02
6.003288e+02	-6.157906e-02
6.037963e+02	-6.228735e-02
6.072838e+02	-6.300372e-02
6.107914e+02	-6.372828e-02
6.143194e+02	-6.446110e-02
6.178676e+02	-6.520229e-02
6.214364e+02	-6.595194e-02
6.250258e+02	-6.671013e-02
6.286359e+02	-6.747698e-02
6.322669e+02	-6.825257e-02
6.359189e+02	-6.903701e-02
6.395919e+02	-6.983038e-02
6.432862e+02	-7.063281e-02
6.470017e+02	-7.144437e-02
6.507388e+02	-7.226519e-02
6.544974e+02	-7.309535e-02
6.582778e+02	-7.393497e-02
6.620800e+02	-7.478415e-02
6.659041e+02	-7.564300e-02
6.697504e+02	-7.651162e-02
6.736188e+02	-7.739013e-02
6.775096e+02	-7.827864e-02
6.814229e+02	-7.917725e-02
6.853587e+02	-8.008608e-02
6.893173e+02	-8.100525e-02
6.932988e+02	-8.193487e-02
6.973033e+02	-8.287505e-02
7.013309e+02	-8.382592e-02
