Frequency(Hz)	Magnitude(dB)
1.000000e+01	-2.123267e+00
1.005776e+01	-2.142873e+00
1.011585e+01	-2.162391e+00
1.017428e+01	-2.182249e+00
1.023305e+01	-2.201762e+00
1.029215e+01	-2.221927e+00
1.035160e+01	-2.242080e+00
1.041139e+01	-2.262035e+00
1.047153e+01	-2.282595e+00
1.053201e+01	-2.303032e+00
1.059284e+01	-2.323891e+00
1.065403e+01	-2.344479e+00
1.071556e+01	-2.365304e+00
1.077746e+01	-2.386540e+00
1.083971e+01	-2.407821e+00
1.090232e+01	-2.429086e+00
1.096529e+01	-2.450667e+00
1.102862e+01	-2.472133e+00
1.109232e+01	-2.494052e+00
1.115639e+01	-2.516085e+00
1.122083e+01	-2.538095e+00
1.128564e+01	-2.560169e+00
1.135083e+01	-2.582651e+00
1.141639e+01	-2.604997e+00
1.148233e+01	-2.627700e+00
1.154865e+01	-2.650452e+00
1.161536e+01	-2.673507e+00
1.168245e+01	-2.696425e+00
1.174992e+01	-2.719678e+00
1.181779e+01	-2.742997e+00
1.188605e+01	-2.766667e+00
1.195470e+01	-2.790272e+00
1.202375e+01	-2.813903e+00
1.209320e+01	-2.838071e+00
1.216305e+01	-2.862065e+00
1.223330e+01	-2.886057e+00
1.230396e+01	-2.910546e+00
1.237503e+01	-2.935187e+00
1.244651e+01	-2.959960e+00
1.251840e+01	-2.984753e+00
1.259070e+01	-3.009328e+00
1.266343e+01	-3.034253e+00
1.273657e+01	-3.059771e+00
1.281014e+01	-3.085222e+00
1.288413e+01	-3.110868e+00
1.295855e+01	-3.136452e+00
1.303339e+01	-3.161969e+00
1.310867e+01	-3.188358e+00
1.318439e+01	-3.214304e+00
1.326054e+01	-3.240118e+00
1.333713e+01	-3.266425e+00
1.341417e+01	-3.293492e+00
1.349165e+01	-3.320102e+00
1.356958e+01	-3.346798e+00
1.364795e+01	-3.373801e+00
1.372678e+01	-3.400878e+00
1.380607e+01	-3.428045e+00
1.388581e+01	-3.455524e+00
1.396602e+01	-3.483145e+00
1.404668e+01	-3.510569e+00
1.412782e+01	-3.538282e+00
1.420942e+01	-3.566251e+00
1.429149e+01	-3.594539e+00
1.437404e+01	-3.622645e+00
1.445706e+01	-3.651001e+00
1.454057e+01	-3.679648e+00
1.462455e+01	-3.708016e+00
1.470902e+01	-3.736849e+00
1.479398e+01	-3.765787e+00
1.487943e+01	-3.794646e+00
1.496537e+01	-3.824156e+00
1.505181e+01	-3.853712e+00
1.513875e+01	-3.882800e+00
1.522619e+01	-3.912706e+00
1.531414e+01	-3.942409e+00
1.540259e+01	-3.972483e+00
1.549156e+01	-4.002455e+00
1.558103e+01	-4.032517e+00
1.567103e+01	-4.063049e+00
1.576155e+01	-4.093595e+00
1.585258e+01	-4.123808e+00
1.594415e+01	-4.154728e+00
1.603624e+01	-4.185781e+00
1.612886e+01	-4.216499e+00
1.622202e+01	-4.247716e+00
1.631572e+01	-4.278907e+00
1.640996e+01	-4.310587e+00
1.650474e+01	-4.341895e+00
1.660008e+01	-4.373450e+00
1.669596e+01	-4.405415e+00
1.679239e+01	-4.437561e+00
1.688938e+01	-4.469504e+00
1.698694e+01	-4.501846e+00
1.708505e+01	-4.534162e+00
1.718373e+01	-4.566788e+00
1.728299e+01	-4.599420e+00
1.738281e+01	-4.632248e+00
1.748322e+01	-4.664708e+00
1.758420e+01	-4.697664e+00
1.768576e+01	-4.730814e+00
1.778792e+01	-4.764230e+00
1.789066e+01	-4.797813e+00
1.799399e+01	-4.831007e+00
1.809793e+01	-4.864433e+00
1.820246e+01	-4.898518e+00
1.830760e+01	-4.932688e+00
1.841334e+01	-4.966658e+00
1.851969e+01	-5.000400e+00
1.862666e+01	-5.034755e+00
1.873425e+01	-5.069466e+00
1.884246e+01	-5.103842e+00
1.895129e+01	-5.138180e+00
1.906075e+01	-5.172938e+00
1.917085e+01	-5.207988e+00
1.928158e+01	-5.242935e+00
1.939295e+01	-5.278327e+00
1.950496e+01	-5.313700e+00
1.961762e+01	-5.348637e+00
1.973093e+01	-5.384325e+00
1.984490e+01	-5.420001e+00
1.995952e+01	-5.455657e+00
2.007480e+01	-5.491670e+00
2.019076e+01	-5.527582e+00
2.030738e+01	-5.563642e+00
2.042467e+01	-5.599595e+00
2.054264e+01	-5.635874e+00
2.066130e+01	-5.672492e+00
2.078064e+01	-5.708805e+00
2.090066e+01	-5.745686e+00
2.102139e+01	-5.782248e+00
2.114280e+01	-5.819084e+00
2.126492e+01	-5.856351e+00
2.138775e+01	-5.893429e+00
2.151128e+01	-5.930359e+00
2.163553e+01	-5.968108e+00
2.176050e+01	-6.004819e+00
2.188619e+01	-6.042591e+00
2.201260e+01	-6.080522e+00
2.213974e+01	-6.117809e+00
2.226762e+01	-6.156173e+00
2.239624e+01	-6.193832e+00
2.252560e+01	-6.231785e+00
2.265571e+01	-6.269874e+00
2.278656e+01	-6.308735e+00
2.291818e+01	-6.346560e+00
2.305055e+01	-6.385367e+00
2.318369e+01	-6.423693e+00
2.331760e+01	-6.462277e+00
2.345228e+01	-6.501231e+00
2.358774e+01	-6.540195e+00
2.372398e+01	-6.579206e+00
2.386101e+01	-6.618051e+00
2.399883e+01	-6.657218e+00
2.413745e+01	-6.696945e+00
2.427686e+01	-6.736239e+00
2.441709e+01	-6.775658e+00
2.455812e+01	-6.815305e+00
2.469997e+01	-6.854998e+00
2.484263e+01	-6.894546e+00
2.498612e+01	-6.934506e+00
2.513044e+01	-6.974454e+00
2.527559e+01	-7.014601e+00
2.542158e+01	-7.054930e+00
2.556842e+01	-7.095016e+00
2.571610e+01	-7.134911e+00
2.586463e+01	-7.175060e+00
2.601403e+01	-7.215944e+00
2.616428e+01	-7.256555e+00
2.631541e+01	-7.297334e+00
2.646740e+01	-7.337928e+00
2.662028e+01	-7.378795e+00
2.677404e+01	-7.419447e+00
2.692868e+01	-7.460796e+00
2.708422e+01	-7.501700e+00
2.724066e+01	-7.542642e+00
2.739800e+01	-7.583925e+00
2.755625e+01	-7.625760e+00
2.771541e+01	-7.666773e+00
2.787550e+01	-7.708553e+00
2.803650e+01	-7.749665e+00
2.819844e+01	-7.791802e+00
2.836131e+01	-7.833623e+00
2.852513e+01	-7.875025e+00
2.868989e+01	-7.917067e+00
2.885560e+01	-7.959442e+00
2.902227e+01	-8.001385e+00
2.918990e+01	-8.043220e+00
2.935850e+01	-8.085499e+00
2.952807e+01	-8.127781e+00
2.969863e+01	-8.170121e+00
2.987016e+01	-8.212474e+00
3.004269e+01	-8.255282e+00
3.021622e+01	-8.297675e+00
3.039075e+01	-8.340528e+00
3.056628e+01	-8.383156e+00
3.074283e+01	-8.425704e+00
3.092040e+01	-8.468674e+00
3.109900e+01	-8.511860e+00
3.127862e+01	-8.555062e+00
3.145929e+01	-8.597831e+00
3.164099e+01	-8.640814e+00
3.182375e+01	-8.684036e+00
3.200756e+01	-8.727178e+00
3.219244e+01	-8.770849e+00
3.237838e+01	-8.814236e+00
3.256540e+01	-8.857156e+00
3.275349e+01	-8.901138e+00
3.294268e+01	-8.944715e+00
3.313295e+01	-8.988402e+00
3.332433e+01	-9.032386e+00
3.351681e+01	-9.076056e+00
3.371040e+01	-9.120098e+00
3.390511e+01	-9.163588e+00
3.410094e+01	-9.207973e+00
3.429791e+01	-9.251877e+00
3.449601e+01	-9.295759e+00
3.469526e+01	-9.340251e+00
3.489566e+01	-9.385010e+00
3.509721e+01	-9.428506e+00
3.529993e+01	-9.472972e+00
3.550382e+01	-9.517773e+00
3.570889e+01	-9.562032e+00
3.591515e+01	-9.606419e+00
3.612259e+01	-9.650870e+00
3.633123e+01	-9.695565e+00
3.654108e+01	-9.740107e+00
3.675214e+01	-9.784790e+00
3.696442e+01	-9.830138e+00
3.717792e+01	-9.874971e+00
3.739266e+01	-9.920100e+00
3.760864e+01	-9.964849e+00
3.782587e+01	-1.001000e+01
3.804435e+01	-1.005520e+01
3.826409e+01	-1.009984e+01
3.848510e+01	-1.014558e+01
3.870739e+01	-1.018992e+01
3.893096e+01	-1.023535e+01
3.915583e+01	-1.028136e+01
3.938199e+01	-1.032632e+01
3.960946e+01	-1.037185e+01
3.983824e+01	-1.041692e+01
4.006834e+01	-1.046241e+01
4.029978e+01	-1.050836e+01
4.053255e+01	-1.055384e+01
4.076666e+01	-1.059920e+01
4.100213e+01	-1.064479e+01
4.123896e+01	-1.069079e+01
4.147715e+01	-1.073695e+01
4.171672e+01	-1.078229e+01
4.195767e+01	-1.082773e+01
4.220002e+01	-1.087390e+01
4.244377e+01	-1.092017e+01
4.268892e+01	-1.096646e+01
4.293549e+01	-1.101220e+01
4.318348e+01	-1.105843e+01
4.343291e+01	-1.110437e+01
4.368377e+01	-1.115088e+01
4.393609e+01	-1.119703e+01
4.418986e+01	-1.124358e+01
4.444510e+01	-1.128894e+01
4.470182e+01	-1.133632e+01
4.496001e+01	-1.138224e+01
4.521970e+01	-1.142845e+01
4.548089e+01	-1.147466e+01
4.574358e+01	-1.152124e+01
4.600779e+01	-1.156796e+01
4.627353e+01	-1.161396e+01
4.654081e+01	-1.166109e+01
4.680963e+01	-1.170757e+01
4.708000e+01	-1.175448e+01
4.735193e+01	-1.180113e+01
4.762543e+01	-1.184721e+01
4.790051e+01	-1.189498e+01
4.817719e+01	-1.194114e+01
4.845545e+01	-1.198824e+01
4.873533e+01	-1.203450e+01
4.901682e+01	-1.208189e+01
4.929994e+01	-1.212853e+01
4.958470e+01	-1.217537e+01
4.987110e+01	-1.222232e+01
5.015915e+01	-1.226938e+01
5.044887e+01	-1.231686e+01
5.074026e+01	-1.236328e+01
5.103333e+01	-1.241100e+01
5.132810e+01	-1.245805e+01
5.162457e+01	-1.250579e+01
5.192275e+01	-1.255272e+01
5.222265e+01	-1.260026e+01
5.252429e+01	-1.264763e+01
5.282767e+01	-1.269529e+01
5.313280e+01	-1.274192e+01
5.343969e+01	-1.279044e+01
5.374836e+01	-1.283719e+01
5.405880e+01	-1.288405e+01
5.437105e+01	-1.293237e+01
5.468509e+01	-1.297911e+01
5.500095e+01	-1.302682e+01
5.531863e+01	-1.307425e+01
5.563815e+01	-1.312215e+01
5.595951e+01	-1.316994e+01
5.628273e+01	-1.321703e+01
5.660782e+01	-1.326479e+01
5.693479e+01	-1.331249e+01
5.726364e+01	-1.335995e+01
5.759439e+01	-1.340759e+01
5.792705e+01	-1.345552e+01
5.826164e+01	-1.350373e+01
5.859815e+01	-1.355102e+01
5.893662e+01	-1.359865e+01
5.927703e+01	-1.364628e+01
5.961941e+01	-1.369436e+01
5.996377e+01	-1.374273e+01
6.031012e+01	-1.379072e+01
6.065847e+01	-1.383900e+01
6.100883e+01	-1.388631e+01
6.136121e+01	-1.393438e+01
6.171563e+01	-1.398260e+01
6.207210e+01	-1.403065e+01
6.243063e+01	-1.407834e+01
6.279122e+01	-1.412669e+01
6.315390e+01	-1.417442e+01
6.351868e+01	-1.422298e+01
6.388556e+01	-1.427152e+01
6.425456e+01	-1.431943e+01
6.462569e+01	-1.436668e+01
6.499897e+01	-1.441583e+01
6.537440e+01	-1.446412e+01
6.575200e+01	-1.451280e+01
6.613178e+01	-1.455980e+01
6.651375e+01	-1.460859e+01
6.689793e+01	-1.465712e+01
6.728433e+01	-1.470605e+01
6.767297e+01	-1.475315e+01
6.806384e+01	-1.480157e+01
6.845698e+01	-1.485033e+01
6.885238e+01	-1.490001e+01
6.925007e+01	-1.494723e+01
6.965005e+01	-1.499600e+01
7.005235e+01	-1.504446e+01
7.045697e+01	-1.509344e+01
7.086393e+01	-1.514127e+01
7.127323e+01	-1.518984e+01
7.168490e+01	-1.523816e+01
7.209895e+01	-1.528646e+01
7.251539e+01	-1.533586e+01
7.293424e+01	-1.538361e+01
7.335551e+01	-1.543272e+01
7.377920e+01	-1.548185e+01
7.420535e+01	-1.552951e+01
7.463396e+01	-1.557897e+01
7.506504e+01	-1.562746e+01
7.549861e+01	-1.567484e+01
7.593469e+01	-1.572393e+01
7.637328e+01	-1.577286e+01
7.681441e+01	-1.582149e+01
7.725809e+01	-1.586952e+01
7.770433e+01	-1.591913e+01
7.815315e+01	-1.596760e+01
7.860456e+01	-1.601679e+01
7.905857e+01	-1.606554e+01
7.951521e+01	-1.611474e+01
7.997449e+01	-1.616409e+01
8.043642e+01	-1.621328e+01
8.090102e+01	-1.626087e+01
8.136830e+01	-1.630988e+01
8.183828e+01	-1.635925e+01
8.231097e+01	-1.640705e+01
8.278640e+01	-1.645647e+01
8.326457e+01	-1.650467e+01
8.374550e+01	-1.655383e+01
8.422921e+01	-1.660380e+01
8.471572e+01	-1.665230e+01
8.520503e+01	-1.670089e+01
8.569717e+01	-1.675003e+01
8.619215e+01	-1.679791e+01
8.669000e+01	-1.684753e+01
8.719071e+01	-1.689681e+01
8.769432e+01	-1.694609e+01
8.820084e+01	-1.699454e+01
8.871029e+01	-1.704322e+01
8.922267e+01	-1.709273e+01
8.973802e+01	-1.714351e+01
9.025634e+01	-1.719204e+01
9.077766e+01	-1.724007e+01
9.130199e+01	-1.728943e+01
9.182935e+01	-1.733780e+01
9.235975e+01	-1.738754e+01
9.289321e+01	-1.743581e+01
9.342976e+01	-1.748637e+01
9.396941e+01	-1.753477e+01
9.451217e+01	-1.758465e+01
9.505807e+01	-1.763360e+01
9.560712e+01	-1.768266e+01
9.615934e+01	-1.773278e+01
9.671476e+01	-1.778094e+01
9.727338e+01	-1.783095e+01
9.783522e+01	-1.787956e+01
9.840032e+01	-1.792881e+01
9.896867e+01	-1.797816e+01
9.954031e+01	-1.802736e+01
1.001153e+02	-1.807540e+01
1.006935e+02	-1.812522e+01
1.012751e+02	-1.817432e+01
1.018601e+02	-1.822329e+01
1.024484e+02	-1.827349e+01
1.030402e+02	-1.832249e+01
1.036353e+02	-1.837048e+01
1.042339e+02	-1.842071e+01
1.048360e+02	-1.847162e+01
1.054415e+02	-1.852026e+01
1.060505e+02	-1.856817e+01
1.066631e+02	-1.861852e+01
1.072791e+02	-1.866870e+01
1.078988e+02	-1.871810e+01
1.085220e+02	-1.876664e+01
1.091488e+02	-1.881486e+01
1.097793e+02	-1.886445e+01
1.104133e+02	-1.891581e+01
1.110511e+02	-1.896508e+01
1.116925e+02	-1.901420e+01
1.123376e+02	-1.906132e+01
1.129865e+02	-1.911237e+01
1.136391e+02	-1.916219e+01
1.142955e+02	-1.921182e+01
1.149556e+02	-1.926000e+01
1.156196e+02	-1.931032e+01
1.162874e+02	-1.935891e+01
1.169591e+02	-1.940997e+01
1.176347e+02	-1.945733e+01
1.183141e+02	-1.950861e+01
1.189975e+02	-1.955827e+01
1.196848e+02	-1.960586e+01
1.203761e+02	-1.965533e+01
1.210714e+02	-1.970583e+01
1.217707e+02	-1.975583e+01
1.224740e+02	-1.980451e+01
1.231814e+02	-1.985480e+01
1.238929e+02	-1.990500e+01
1.246085e+02	-1.995299e+01
1.253283e+02	-2.000335e+01
1.260522e+02	-2.005131e+01
1.267802e+02	-2.010361e+01
1.275125e+02	-2.015226e+01
1.282490e+02	-2.020094e+01
1.289898e+02	-2.025182e+01
1.297348e+02	-2.030002e+01
1.304842e+02	-2.034952e+01
1.312378e+02	-2.040042e+01
1.319959e+02	-2.044973e+01
1.327583e+02	-2.049828e+01
1.335251e+02	-2.054928e+01
1.342963e+02	-2.059714e+01
1.350720e+02	-2.064631e+01
1.358522e+02	-2.069759e+01
1.366368e+02	-2.074509e+01
1.374260e+02	-2.079783e+01
1.382198e+02	-2.084640e+01
1.390182e+02	-2.089677e+01
1.398211e+02	-2.094615e+01
1.406287e+02	-2.099457e+01
1.414410e+02	-2.104499e+01
1.422579e+02	-2.109387e+01
1.430796e+02	-2.114437e+01
1.439060e+02	-2.119456e+01
1.447372e+02	-2.124371e+01
1.455732e+02	-2.129263e+01
1.464141e+02	-2.134360e+01
1.472597e+02	-2.139224e+01
1.481103e+02	-2.144214e+01
1.489658e+02	-2.149246e+01
1.498262e+02	-2.154122e+01
1.506916e+02	-2.159025e+01
1.515620e+02	-2.163988e+01
1.524374e+02	-2.169086e+01
1.533179e+02	-2.174081e+01
1.542034e+02	-2.178832e+01
1.550941e+02	-2.184115e+01
1.559899e+02	-2.188817e+01
1.568909e+02	-2.193847e+01
1.577971e+02	-2.198844e+01
1.587085e+02	-2.203888e+01
1.596252e+02	-2.208726e+01
1.605472e+02	-2.213878e+01
1.614745e+02	-2.218718e+01
1.624072e+02	-2.223699e+01
1.633453e+02	-2.228503e+01
1.642887e+02	-2.233688e+01
1.652377e+02	-2.238605e+01
1.661921e+02	-2.243673e+01
1.671520e+02	-2.248603e+01
1.681175e+02	-2.253538e+01
1.690885e+02	-2.258436e+01
1.700651e+02	-2.263694e+01
1.710474e+02	-2.268544e+01
1.720354e+02	-2.273360e+01
1.730291e+02	-2.278358e+01
1.740285e+02	-2.283567e+01
1.750337e+02	-2.288476e+01
1.760446e+02	-2.293596e+01
1.770615e+02	-2.298430e+01
1.780842e+02	-2.303284e+01
1.791128e+02	-2.308176e+01
1.801473e+02	-2.313383e+01
1.811878e+02	-2.318376e+01
1.822344e+02	-2.323345e+01
1.832870e+02	-2.328064e+01
1.843456e+02	-2.333411e+01
1.854104e+02	-2.338411e+01
1.864813e+02	-2.343192e+01
1.875584e+02	-2.348203e+01
1.886418e+02	-2.353181e+01
1.897313e+02	-2.358137e+01
1.908272e+02	-2.363075e+01
1.919294e+02	-2.368289e+01
1.930380e+02	-2.372823e+01
1.941530e+02	-2.377958e+01
1.952744e+02	-2.383062e+01
1.964023e+02	-2.388084e+01
1.975367e+02	-2.393228e+01
1.986777e+02	-2.397942e+01
1.998252e+02	-2.402804e+01
2.009794e+02	-2.408256e+01
2.021403e+02	-2.412931e+01
2.033078e+02	-2.418159e+01
2.044821e+02	-2.422970e+01
2.056632e+02	-2.427977e+01
2.068511e+02	-2.432912e+01
2.080459e+02	-2.437913e+01
2.092475e+02	-2.442680e+01
2.104561e+02	-2.447985e+01
2.116717e+02	-2.453097e+01
2.128943e+02	-2.457981e+01
2.141240e+02	-2.462870e+01
2.153608e+02	-2.467851e+01
2.166047e+02	-2.473079e+01
2.178558e+02	-2.477859e+01
2.191141e+02	-2.482814e+01
2.203797e+02	-2.487874e+01
2.216526e+02	-2.492810e+01
2.229329e+02	-2.497671e+01
2.242205e+02	-2.502563e+01
2.255156e+02	-2.507809e+01
2.268182e+02	-2.512538e+01
2.281283e+02	-2.517879e+01
2.294459e+02	-2.522853e+01
2.307712e+02	-2.527572e+01
2.321041e+02	-2.532973e+01
2.334447e+02	-2.537659e+01
2.347931e+02	-2.542797e+01
2.361493e+02	-2.547548e+01
2.375133e+02	-2.552647e+01
2.388851e+02	-2.557948e+01
2.402649e+02	-2.563059e+01
2.416527e+02	-2.567756e+01
2.430484e+02	-2.572813e+01
2.444523e+02	-2.577663e+01
2.458642e+02	-2.582740e+01
2.472843e+02	-2.587529e+01
2.487126e+02	-2.592545e+01
2.501492e+02	-2.597460e+01
2.515940e+02	-2.603068e+01
2.530472e+02	-2.607651e+01
2.545088e+02	-2.612520e+01
2.559789e+02	-2.617730e+01
2.574574e+02	-2.622490e+01
2.589444e+02	-2.627409e+01
2.604401e+02	-2.632608e+01
2.619444e+02	-2.637661e+01
2.634574e+02	-2.643016e+01
2.649791e+02	-2.647832e+01
2.665096e+02	-2.652855e+01
2.680489e+02	-2.657631e+01
2.695972e+02	-2.662839e+01
2.711544e+02	-2.667826e+01
2.727205e+02	-2.672740e+01
2.742958e+02	-2.677643e+01
2.758801e+02	-2.682790e+01
2.774736e+02	-2.687555e+01
2.790762e+02	-2.692248e+01
2.806882e+02	-2.697760e+01
2.823094e+02	-2.702694e+01
2.839400e+02	-2.707755e+01
2.855800e+02	-2.712500e+01
2.872295e+02	-2.717747e+01
2.888886e+02	-2.722658e+01
2.905572e+02	-2.727680e+01
2.922354e+02	-2.732244e+01
2.939234e+02	-2.737364e+01
2.956211e+02	-2.742596e+01
2.973286e+02	-2.747789e+01
2.990459e+02	-2.752892e+01
3.007732e+02	-2.757639e+01
3.025104e+02	-2.762545e+01
3.042577e+02	-2.767699e+01
3.060151e+02	-2.772591e+01
3.077826e+02	-2.777847e+01
3.095604e+02	-2.782823e+01
3.113484e+02	-2.787655e+01
3.131467e+02	-2.792886e+01
3.149554e+02	-2.797718e+01
3.167746e+02	-2.802690e+01
3.186043e+02	-2.807576e+01
3.204445e+02	-2.812343e+01
3.222954e+02	-2.817596e+01
3.241570e+02	-2.822975e+01
3.260293e+02	-2.827802e+01
3.279124e+02	-2.832671e+01
3.298064e+02	-2.837519e+01
3.317114e+02	-2.842340e+01
3.336273e+02	-2.847640e+01
3.355544e+02	-2.852391e+01
3.374925e+02	-2.857723e+01
3.394418e+02	-2.863112e+01
3.414024e+02	-2.867469e+01
3.433744e+02	-2.873029e+01
3.453577e+02	-2.877857e+01
3.473525e+02	-2.883033e+01
3.493588e+02	-2.886962e+01
3.513766e+02	-2.892722e+01
3.534062e+02	-2.897765e+01
3.554474e+02	-2.902764e+01
3.575005e+02	-2.907866e+01
3.595654e+02	-2.912644e+01
3.616422e+02	-2.917552e+01
3.637311e+02	-2.922716e+01
3.658320e+02	-2.927794e+01
3.679450e+02	-2.932359e+01
3.700702e+02	-2.937654e+01
3.722077e+02	-2.942929e+01
3.743576e+02	-2.947644e+01
3.765199e+02	-2.952441e+01
3.786946e+02	-2.957394e+01
3.808820e+02	-2.962726e+01
3.830819e+02	-2.967635e+01
3.852946e+02	-2.972954e+01
3.875200e+02	-2.977933e+01
3.897583e+02	-2.983139e+01
3.920096e+02	-2.987911e+01
3.942738e+02	-2.992822e+01
3.965511e+02	-2.998122e+01
3.988416e+02	-3.002914e+01
4.011452e+02	-3.008170e+01
4.034622e+02	-3.012980e+01
4.057926e+02	-3.017878e+01
4.081365e+02	-3.023196e+01
4.104938e+02	-3.028624e+01
4.128648e+02	-3.033241e+01
4.152495e+02	-3.038515e+01
4.176480e+02	-3.042949e+01
4.200603e+02	-3.048078e+01
4.224866e+02	-3.052810e+01
4.249268e+02	-3.058003e+01
4.273812e+02	-3.062891e+01
4.298497e+02	-3.067944e+01
4.323325e+02	-3.073685e+01
4.348297e+02	-3.078505e+01
4.373412e+02	-3.082628e+01
4.398673e+02	-3.087633e+01
4.424079e+02	-3.093636e+01
4.449633e+02	-3.098013e+01
4.475334e+02	-3.103223e+01
4.501183e+02	-3.107994e+01
4.527182e+02	-3.112782e+01
4.553330e+02	-3.117844e+01
4.579630e+02	-3.123269e+01
4.606082e+02	-3.127795e+01
4.632687e+02	-3.133175e+01
4.659445e+02	-3.137902e+01
4.686358e+02	-3.143408e+01
4.713426e+02	-3.148818e+01
4.740650e+02	-3.153120e+01
4.768032e+02	-3.157911e+01
4.795572e+02	-3.163268e+01
4.823271e+02	-3.167724e+01
4.851130e+02	-3.174025e+01
4.879150e+02	-3.178303e+01
4.907332e+02	-3.183554e+01
4.935676e+02	-3.188130e+01
4.964185e+02	-3.193744e+01
4.992858e+02	-3.198774e+01
5.021696e+02	-3.203449e+01
5.050701e+02	-3.208552e+01
5.079874e+02	-3.213251e+01
5.109215e+02	-3.218454e+01
5.138726e+02	-3.223286e+01
5.168407e+02	-3.228945e+01
5.198259e+02	-3.233670e+01
5.228284e+02	-3.237837e+01
5.258482e+02	-3.243655e+01
5.288855e+02	-3.248908e+01
5.319403e+02	-3.254003e+01
5.350128e+02	-3.258182e+01
5.381030e+02	-3.264149e+01
5.412111e+02	-3.268609e+01
5.443371e+02	-3.273690e+01
5.474812e+02	-3.278745e+01
5.506434e+02	-3.283919e+01
5.538239e+02	-3.288759e+01
5.570228e+02	-3.293845e+01
5.602401e+02	-3.298836e+01
5.634760e+02	-3.304352e+01
5.667306e+02	-3.309528e+01
5.700040e+02	-3.314124e+01
5.732964e+02	-3.318726e+01
5.766077e+02	-3.324546e+01
5.799382e+02	-3.328652e+01
5.832879e+02	-3.334061e+01
5.866569e+02	-3.338424e+01
5.900454e+02	-3.345064e+01
5.934535e+02	-3.349402e+01
5.968813e+02	-3.353846e+01
6.003288e+02	-3.359338e+01
6.037963e+02	-3.364601e+01
6.072838e+02	-3.368953e+01
6.107914e+02	-3.374310e+01
6.143194e+02	-3.379681e+01
6.178676e+02	-3.384632e+01
6.214364e+02	-3.389726e+01
6.250258e+02	-3.393621e+01
6.286359e+02	-3.399612e+01
6.322669e+02	-3.405181e+01
6.359189e+02	-3.410222e+01
6.395919e+02	-3.414803e+01
6.432862e+02	-3.420209e+01
6.470017e+02	-3.425296e+01
6.507388e+02	-3.429045e+01
6.544974e+02	-3.434720e+01
6.582778e+02	-3.438940e+01
6.620800e+02	-3.444476e+01
6.659041e+02	-3.449719e+01
6.697504e+02	-3.454442e+01
6.736188e+02	-3.460425e+01
6.775096e+02	-3.465181e+01
6.814229e+02	-3.470140e+01
6.853587e+02	-3.475205e+01
6.893173e+02	-3.481186e+01
6.932988e+02	-3.485200e+01
6.973033e+02	-3.490814e+01
7.013309e+02	-3.495428e+01
