Frequency(Hz)	Magnitude(dB)
1.000000e+01	-1.792142e-05
1.005776e+01	-1.812905e-05
1.011585e+01	-1.833908e-05
1.017428e+01	-1.855154e-05
1.023305e+01	-1.876647e-05
1.029215e+01	-1.898388e-05
1.035160e+01	-1.920381e-05
1.041139e+01	-1.942629e-05
1.047153e+01	-1.965135e-05
1.053201e+01	-1.987902e-05
1.059284e+01	-2.010932e-05
1.065403e+01	-2.034229e-05
1.071556e+01	-2.057796e-05
1.077746e+01	-2.081636e-05
1.083971e+01	-2.105753e-05
1.090232e+01	-2.130148e-05
1.096529e+01	-2.154827e-05
1.102862e+01	-2.179791e-05
1.109232e+01	-2.205044e-05
1.115639e+01	-2.230590e-05
1.122083e+01	-2.256432e-05
1.128564e+01	-2.282574e-05
1.135083e+01	-2.309018e-05
1.141639e+01	-2.335768e-05
1.148233e+01	-2.362829e-05
1.154865e+01	-2.390203e-05
1.161536e+01	-2.417894e-05
1.168245e+01	-2.445906e-05
1.174992e+01	-2.474242e-05
1.181779e+01	-2.502907e-05
1.188605e+01	-2.531904e-05
1.195470e+01	-2.561236e-05
1.202375e+01	-2.590909e-05
1.209320e+01	-2.620925e-05
1.216305e+01	-2.651289e-05
1.223330e+01	-2.682005e-05
1.230396e+01	-2.713077e-05
1.237503e+01	-2.744508e-05
1.244651e+01	-2.776304e-05
1.251840e+01	-2.808468e-05
1.259070e+01	-2.841005e-05
1.266343e+01	-2.873919e-05
1.273657e+01	-2.907214e-05
1.281014e+01	-2.940895e-05
1.288413e+01	-2.974966e-05
1.295855e+01	-3.009431e-05
1.303339e+01	-3.044296e-05
1.310867e+01	-3.079565e-05
1.318439e+01	-3.115243e-05
1.326054e+01	-3.151334e-05
1.333713e+01	-3.187843e-05
1.341417e+01	-3.224775e-05
1.349165e+01	-3.262134e-05
1.356958e+01	-3.299927e-05
1.364795e+01	-3.338157e-05
1.372678e+01	-3.376831e-05
1.380607e+01	-3.415952e-05
1.388581e+01	-3.455527e-05
1.396602e+01	-3.495560e-05
1.404668e+01	-3.536057e-05
1.412782e+01	-3.577023e-05
1.420942e+01	-3.618463e-05
1.429149e+01	-3.660384e-05
1.437404e+01	-3.702790e-05
1.445706e+01	-3.745688e-05
1.454057e+01	-3.789083e-05
1.462455e+01	-3.832980e-05
1.470902e+01	-3.877386e-05
1.479398e+01	-3.922306e-05
1.487943e+01	-3.967747e-05
1.496537e+01	-4.013715e-05
1.505181e+01	-4.060214e-05
1.513875e+01	-4.107253e-05
1.522619e+01	-4.154836e-05
1.531414e+01	-4.202971e-05
1.540259e+01	-4.251663e-05
1.549156e+01	-4.300920e-05
1.558103e+01	-4.350747e-05
1.567103e+01	-4.401151e-05
1.576155e+01	-4.452140e-05
1.585258e+01	-4.503719e-05
1.594415e+01	-4.555895e-05
1.603624e+01	-4.608676e-05
1.612886e+01	-4.662069e-05
1.622202e+01	-4.716080e-05
1.631572e+01	-4.770717e-05
1.640996e+01	-4.825986e-05
1.650474e+01	-4.881896e-05
1.660008e+01	-4.938454e-05
1.669596e+01	-4.995667e-05
1.679239e+01	-5.053543e-05
1.688938e+01	-5.112090e-05
1.698694e+01	-5.171314e-05
1.708505e+01	-5.231225e-05
1.718373e+01	-5.291830e-05
1.728299e+01	-5.353137e-05
1.738281e+01	-5.415154e-05
1.748322e+01	-5.477890e-05
1.758420e+01	-5.541352e-05
1.768576e+01	-5.605550e-05
1.778792e+01	-5.670491e-05
1.789066e+01	-5.736185e-05
1.799399e+01	-5.802640e-05
1.809793e+01	-5.869865e-05
1.820246e+01	-5.937868e-05
1.830760e+01	-6.006660e-05
1.841334e+01	-6.076248e-05
1.851969e+01	-6.146643e-05
1.862666e+01	-6.217853e-05
1.873425e+01	-6.289888e-05
1.884246e+01	-6.362757e-05
1.895129e+01	-6.436471e-05
1.906075e+01	-6.511039e-05
1.917085e+01	-6.586470e-05
1.928158e+01	-6.662776e-05
1.939295e+01	-6.739965e-05
1.950496e+01	-6.818049e-05
1.961762e+01	-6.897038e-05
1.973093e+01	-6.976941e-05
1.984490e+01	-7.057770e-05
1.995952e+01	-7.139536e-05
2.007480e+01	-7.222249e-05
2.019076e+01	-7.305920e-05
2.030738e+01	-7.390560e-05
2.042467e+01	-7.476181e-05
2.054264e+01	-7.562794e-05
2.066130e+01	-7.650410e-05
2.078064e+01	-7.739042e-05
2.090066e+01	-7.828700e-05
2.102139e+01	-7.919397e-05
2.114280e+01	-8.011144e-05
2.126492e+01	-8.103955e-05
2.138775e+01	-8.197840e-05
2.151128e+01	-8.292814e-05
2.163553e+01	-8.388887e-05
2.176050e+01	-8.486074e-05
2.188619e+01	-8.584387e-05
2.201260e+01	-8.683838e-05
2.213974e+01	-8.784442e-05
2.226762e+01	-8.886211e-05
2.239624e+01	-8.989159e-05
2.252560e+01	-9.093300e-05
2.265571e+01	-9.198647e-05
2.278656e+01	-9.305215e-05
2.291818e+01	-9.413017e-05
2.305055e+01	-9.522069e-05
2.318369e+01	-9.632383e-05
2.331760e+01	-9.743976e-05
2.345228e+01	-9.856861e-05
2.358774e+01	-9.971054e-05
2.372398e+01	-1.008657e-04
2.386101e+01	-1.020342e-04
2.399883e+01	-1.032163e-04
2.413745e+01	-1.044121e-04
2.427686e+01	-1.056217e-04
2.441709e+01	-1.068454e-04
2.455812e+01	-1.080832e-04
2.469997e+01	-1.093354e-04
2.484263e+01	-1.106020e-04
2.498612e+01	-1.118834e-04
2.513044e+01	-1.131795e-04
2.527559e+01	-1.144907e-04
2.542158e+01	-1.158171e-04
2.556842e+01	-1.171589e-04
2.571610e+01	-1.185162e-04
2.586463e+01	-1.198892e-04
2.601403e+01	-1.212781e-04
2.616428e+01	-1.226832e-04
2.631541e+01	-1.241045e-04
2.646740e+01	-1.255422e-04
2.662028e+01	-1.269966e-04
2.677404e+01	-1.284679e-04
2.692868e+01	-1.299562e-04
2.708422e+01	-1.314618e-04
2.724066e+01	-1.329848e-04
2.739800e+01	-1.345254e-04
2.755625e+01	-1.360839e-04
2.771541e+01	-1.376605e-04
2.787550e+01	-1.392553e-04
2.803650e+01	-1.408686e-04
2.819844e+01	-1.425005e-04
2.836131e+01	-1.441514e-04
2.852513e+01	-1.458214e-04
2.868989e+01	-1.475108e-04
2.885560e+01	-1.492197e-04
2.902227e+01	-1.509484e-04
2.918990e+01	-1.526972e-04
2.935850e+01	-1.544662e-04
2.952807e+01	-1.562557e-04
2.969863e+01	-1.580659e-04
2.987016e+01	-1.598971e-04
3.004269e+01	-1.617495e-04
3.021622e+01	-1.636234e-04
3.039075e+01	-1.655190e-04
3.056628e+01	-1.674365e-04
3.074283e+01	-1.693763e-04
3.092040e+01	-1.713385e-04
3.109900e+01	-1.733235e-04
3.127862e+01	-1.753315e-04
3.145929e+01	-1.773627e-04
3.164099e+01	-1.794174e-04
3.182375e+01	-1.814960e-04
3.200756e+01	-1.835986e-04
3.219244e+01	-1.857256e-04
3.237838e+01	-1.878773e-04
3.256540e+01	-1.900538e-04
3.275349e+01	-1.922556e-04
3.294268e+01	-1.944829e-04
3.313295e+01	-1.967360e-04
3.332433e+01	-1.990152e-04
3.351681e+01	-2.013208e-04
3.371040e+01	-2.036531e-04
3.390511e+01	-2.060124e-04
3.410094e+01	-2.083990e-04
3.429791e+01	-2.108133e-04
3.449601e+01	-2.132556e-04
3.469526e+01	-2.157262e-04
3.489566e+01	-2.182254e-04
3.509721e+01	-2.207535e-04
3.529993e+01	-2.233109e-04
3.550382e+01	-2.258980e-04
3.570889e+01	-2.285150e-04
3.591515e+01	-2.311623e-04
3.612259e+01	-2.338403e-04
3.633123e+01	-2.365494e-04
3.654108e+01	-2.392898e-04
3.675214e+01	-2.420619e-04
3.696442e+01	-2.448662e-04
3.717792e+01	-2.477030e-04
3.739266e+01	-2.505726e-04
3.760864e+01	-2.534755e-04
3.782587e+01	-2.564120e-04
3.804435e+01	-2.593825e-04
3.826409e+01	-2.623874e-04
3.848510e+01	-2.654272e-04
3.870739e+01	-2.685021e-04
3.893096e+01	-2.716127e-04
3.915583e+01	-2.747593e-04
3.938199e+01	-2.779424e-04
3.960946e+01	-2.811623e-04
3.983824e+01	-2.844195e-04
4.006834e+01	-2.877145e-04
4.029978e+01	-2.910476e-04
4.053255e+01	-2.944194e-04
4.076666e+01	-2.978302e-04
4.100213e+01	-3.012805e-04
4.123896e+01	-3.047708e-04
4.147715e+01	-3.083016e-04
4.171672e+01	-3.118732e-04
4.195767e+01	-3.154862e-04
4.220002e+01	-3.191411e-04
4.244377e+01	-3.228383e-04
4.268892e+01	-3.265783e-04
4.293549e+01	-3.303616e-04
4.318348e+01	-3.341888e-04
4.343291e+01	-3.380603e-04
4.368377e+01	-3.419767e-04
4.393609e+01	-3.459384e-04
4.418986e+01	-3.499461e-04
4.444510e+01	-3.540001e-04
4.470182e+01	-3.581012e-04
4.496001e+01	-3.622497e-04
4.521970e+01	-3.664463e-04
4.548089e+01	-3.706915e-04
4.574358e+01	-3.749858e-04
4.600779e+01	-3.793300e-04
4.627353e+01	-3.837244e-04
4.654081e+01	-3.881698e-04
4.680963e+01	-3.926666e-04
4.708000e+01	-3.972156e-04
4.735193e+01	-4.018172e-04
4.762543e+01	-4.064722e-04
4.790051e+01	-4.111810e-04
4.817719e+01	-4.159444e-04
4.845545e+01	-4.207630e-04
4.873533e+01	-4.256375e-04
4.901682e+01	-4.305683e-04
4.929994e+01	-4.355563e-04
4.958470e+01	-4.406021e-04
4.987110e+01	-4.457064e-04
5.015915e+01	-4.508697e-04
5.044887e+01	-4.560929e-04
5.074026e+01	-4.613766e-04
5.103333e+01	-4.667215e-04
5.132810e+01	-4.721283e-04
5.162457e+01	-4.775977e-04
5.192275e+01	-4.831305e-04
5.222265e+01	-4.887274e-04
5.252429e+01	-4.943891e-04
5.282767e+01	-5.001164e-04
5.313280e+01	-5.059101e-04
5.343969e+01	-5.117708e-04
5.374836e+01	-5.176995e-04
5.405880e+01	-5.236968e-04
5.437105e+01	-5.297636e-04
5.468509e+01	-5.359007e-04
5.500095e+01	-5.421089e-04
5.531863e+01	-5.483889e-04
5.563815e+01	-5.547418e-04
5.595951e+01	-5.611682e-04
5.628273e+01	-5.676691e-04
5.660782e+01	-5.742452e-04
5.693479e+01	-5.808976e-04
5.726364e+01	-5.876270e-04
5.759439e+01	-5.944343e-04
5.792705e+01	-6.013205e-04
5.826164e+01	-6.082865e-04
5.859815e+01	-6.153332e-04
5.893662e+01	-6.224615e-04
5.927703e+01	-6.296723e-04
5.961941e+01	-6.369667e-04
5.996377e+01	-6.443456e-04
6.031012e+01	-6.518100e-04
6.065847e+01	-6.593608e-04
6.100883e+01	-6.669991e-04
6.136121e+01	-6.747259e-04
6.171563e+01	-6.825421e-04
6.207210e+01	-6.904489e-04
6.243063e+01	-6.984473e-04
6.279122e+01	-7.065384e-04
6.315390e+01	-7.147232e-04
6.351868e+01	-7.230027e-04
6.388556e+01	-7.313782e-04
6.425456e+01	-7.398507e-04
6.462569e+01	-7.484213e-04
6.499897e+01	-7.570913e-04
6.537440e+01	-7.658616e-04
6.575200e+01	-7.747335e-04
6.613178e+01	-7.837082e-04
6.651375e+01	-7.927869e-04
6.689793e+01	-8.019707e-04
6.728433e+01	-8.112608e-04
6.767297e+01	-8.206586e-04
6.806384e+01	-8.301653e-04
6.845698e+01	-8.397820e-04
6.885238e+01	-8.495102e-04
6.925007e+01	-8.593510e-04
6.965005e+01	-8.693058e-04
7.005235e+01	-8.793760e-04
7.045697e+01	-8.895627e-04
7.086393e+01	-8.998675e-04
7.127323e+01	-9.102916e-04
7.168490e+01	-9.208365e-04
7.209895e+01	-9.315035e-04
7.251539e+01	-9.422940e-04
7.293424e+01	-9.532096e-04
7.335551e+01	-9.642515e-04
7.377920e+01	-9.754214e-04
7.420535e+01	-9.867206e-04
7.463396e+01	-9.981507e-04
7.506504e+01	-1.009713e-03
7.549861e+01	-1.021410e-03
7.593469e+01	-1.033242e-03
7.637328e+01	-1.045211e-03
7.681441e+01	-1.057318e-03
7.725809e+01	-1.069566e-03
7.770433e+01	-1.081956e-03
7.815315e+01	-1.094489e-03
7.860456e+01	-1.107167e-03
7.905857e+01	-1.119992e-03
7.951521e+01	-1.132966e-03
7.997449e+01	-1.146090e-03
8.043642e+01	-1.159366e-03
8.090102e+01	-1.172796e-03
8.136830e+01	-1.186381e-03
8.183828e+01	-1.200124e-03
8.231097e+01	-1.214025e-03
8.278640e+01	-1.228088e-03
8.326457e+01	-1.242314e-03
8.374550e+01	-1.256704e-03
8.422921e+01	-1.271262e-03
8.471572e+01	-1.285987e-03
8.520503e+01	-1.300884e-03
8.569717e+01	-1.315952e-03
8.619215e+01	-1.331196e-03
8.669000e+01	-1.346616e-03
8.719071e+01	-1.362214e-03
8.769432e+01	-1.377993e-03
8.820084e+01	-1.393955e-03
8.871029e+01	-1.410102e-03
8.922267e+01	-1.426435e-03
8.973802e+01	-1.442958e-03
9.025634e+01	-1.459673e-03
9.077766e+01	-1.476580e-03
9.130199e+01	-1.493684e-03
9.182935e+01	-1.510986e-03
9.235975e+01	-1.528488e-03
9.289321e+01	-1.546193e-03
9.342976e+01	-1.564102e-03
9.396941e+01	-1.582220e-03
9.451217e+01	-1.600547e-03
9.505807e+01	-1.619086e-03
9.560712e+01	-1.637840e-03
9.615934e+01	-1.656811e-03
9.671476e+01	-1.676002e-03
9.727338e+01	-1.695415e-03
9.783522e+01	-1.715053e-03
9.840032e+01	-1.734919e-03
9.896867e+01	-1.755014e-03
9.954031e+01	-1.775342e-03
1.001153e+02	-1.795906e-03
1.006935e+02	-1.816708e-03
1.012751e+02	-1.837750e-03
1.018601e+02	-1.859036e-03
1.024484e+02	-1.880569e-03
1.030402e+02	-1.902351e-03
1.036353e+02	-1.924386e-03
1.042339e+02	-1.946675e-03
1.048360e+02	-1.969223e-03
1.054415e+02	-1.992032e-03
1.060505e+02	-2.015104e-03
1.066631e+02	-2.038444e-03
1.072791e+02	-2.062055e-03
1.078988e+02	-2.085938e-03
1.085220e+02	-2.110099e-03
1.091488e+02	-2.134539e-03
1.097793e+02	-2.159262e-03
1.104133e+02	-2.184271e-03
1.110511e+02	-2.209570e-03
1.116925e+02	-2.235162e-03
1.123376e+02	-2.261050e-03
1.129865e+02	-2.287238e-03
1.136391e+02	-2.313729e-03
1.142955e+02	-2.340527e-03
1.149556e+02	-2.367635e-03
1.156196e+02	-2.395057e-03
1.162874e+02	-2.422797e-03
1.169591e+02	-2.450858e-03
1.176347e+02	-2.479244e-03
1.183141e+02	-2.507958e-03
1.189975e+02	-2.537005e-03
1.196848e+02	-2.566388e-03
1.203761e+02	-2.596111e-03
1.210714e+02	-2.626179e-03
1.217707e+02	-2.656595e-03
1.224740e+02	-2.687362e-03
1.231814e+02	-2.718487e-03
1.238929e+02	-2.749971e-03
1.246085e+02	-2.781820e-03
1.253283e+02	-2.814038e-03
1.260522e+02	-2.846628e-03
1.267802e+02	-2.879596e-03
1.275125e+02	-2.912946e-03
1.282490e+02	-2.946682e-03
1.289898e+02	-2.980808e-03
1.297348e+02	-3.015329e-03
1.304842e+02	-3.050250e-03
1.312378e+02	-3.085576e-03
1.319959e+02	-3.121310e-03
1.327583e+02	-3.157458e-03
1.335251e+02	-3.194025e-03
1.342963e+02	-3.231015e-03
1.350720e+02	-3.268433e-03
1.358522e+02	-3.306284e-03
1.366368e+02	-3.344573e-03
1.374260e+02	-3.383306e-03
1.382198e+02	-3.422487e-03
1.390182e+02	-3.462121e-03
1.398211e+02	-3.502215e-03
1.406287e+02	-3.542772e-03
1.414410e+02	-3.583799e-03
1.422579e+02	-3.625301e-03
1.430796e+02	-3.667283e-03
1.439060e+02	-3.709752e-03
1.447372e+02	-3.752712e-03
1.455732e+02	-3.796169e-03
1.464141e+02	-3.840129e-03
1.472597e+02	-3.884598e-03
1.481103e+02	-3.929581e-03
1.489658e+02	-3.975086e-03
1.498262e+02	-4.021117e-03
1.506916e+02	-4.067681e-03
1.515620e+02	-4.114783e-03
1.524374e+02	-4.162431e-03
1.533179e+02	-4.210631e-03
1.542034e+02	-4.259388e-03
1.550941e+02	-4.308710e-03
1.559899e+02	-4.358602e-03
1.568909e+02	-4.409072e-03
1.577971e+02	-4.460126e-03
1.587085e+02	-4.511771e-03
1.596252e+02	-4.564013e-03
1.605472e+02	-4.616860e-03
1.614745e+02	-4.670319e-03
1.624072e+02	-4.724396e-03
1.633453e+02	-4.779099e-03
1.642887e+02	-4.834436e-03
1.652377e+02	-4.890412e-03
1.661921e+02	-4.947036e-03
1.671520e+02	-5.004316e-03
1.681175e+02	-5.062259e-03
1.690885e+02	-5.120871e-03
1.700651e+02	-5.180163e-03
1.710474e+02	-5.240140e-03
1.720354e+02	-5.300811e-03
1.730291e+02	-5.362184e-03
1.740285e+02	-5.424268e-03
1.750337e+02	-5.487069e-03
1.760446e+02	-5.550598e-03
1.770615e+02	-5.614861e-03
1.780842e+02	-5.679868e-03
1.791128e+02	-5.745627e-03
1.801473e+02	-5.812147e-03
1.811878e+02	-5.879437e-03
1.822344e+02	-5.947505e-03
1.832870e+02	-6.016360e-03
1.843456e+02	-6.086012e-03
1.854104e+02	-6.156470e-03
1.864813e+02	-6.227743e-03
1.875584e+02	-6.299841e-03
1.886418e+02	-6.372772e-03
1.897313e+02	-6.446547e-03
1.908272e+02	-6.521176e-03
1.919294e+02	-6.596668e-03
1.930380e+02	-6.673033e-03
1.941530e+02	-6.750282e-03
1.952744e+02	-6.828424e-03
1.964023e+02	-6.907470e-03
1.975367e+02	-6.987430e-03
1.986777e+02	-7.068315e-03
1.998252e+02	-7.150136e-03
2.009794e+02	-7.232903e-03
2.021403e+02	-7.316627e-03
2.033078e+02	-7.401320e-03
2.044821e+02	-7.486992e-03
2.056632e+02	-7.573654e-03
2.068511e+02	-7.661319e-03
2.080459e+02	-7.749998e-03
2.092475e+02	-7.839703e-03
2.104561e+02	-7.930445e-03
2.116717e+02	-8.022236e-03
2.128943e+02	-8.115088e-03
2.141240e+02	-8.209014e-03
2.153608e+02	-8.304027e-03
2.166047e+02	-8.400138e-03
2.178558e+02	-8.497360e-03
2.191141e+02	-8.595706e-03
2.203797e+02	-8.695190e-03
2.216526e+02	-8.795823e-03
2.229329e+02	-8.897620e-03
2.242205e+02	-9.000594e-03
2.255156e+02	-9.104759e-03
2.268182e+02	-9.210128e-03
2.281283e+02	-9.316714e-03
2.294459e+02	-9.424533e-03
2.307712e+02	-9.533599e-03
2.321041e+02	-9.643925e-03
2.334447e+02	-9.755526e-03
2.347931e+02	-9.868418e-03
2.361493e+02	-9.982614e-03
2.375133e+02	-1.009813e-02
2.388851e+02	-1.021498e-02
2.402649e+02	-1.033318e-02
2.416527e+02	-1.045275e-02
2.430484e+02	-1.057370e-02
2.444523e+02	-1.069605e-02
2.458642e+02	-1.081981e-02
2.472843e+02	-1.094500e-02
2.487126e+02	-1.107164e-02
2.501492e+02	-1.119974e-02
2.515940e+02	-1.132932e-02
2.530472e+02	-1.146040e-02
2.545088e+02	-1.159300e-02
2.559789e+02	-1.172712e-02
2.574574e+02	-1.186280e-02
2.589444e+02	-1.200004e-02
2.604401e+02	-1.213887e-02
2.619444e+02	-1.227930e-02
2.634574e+02	-1.242136e-02
2.649791e+02	-1.256505e-02
2.665096e+02	-1.271041e-02
2.680489e+02	-1.285744e-02
2.695972e+02	-1.300618e-02
2.711544e+02	-1.315663e-02
2.727205e+02	-1.330882e-02
2.742958e+02	-1.346276e-02
2.758801e+02	-1.361849e-02
2.774736e+02	-1.377601e-02
2.790762e+02	-1.393535e-02
2.806882e+02	-1.409653e-02
2.823094e+02	-1.425957e-02
2.839400e+02	-1.442450e-02
2.855800e+02	-1.459133e-02
2.872295e+02	-1.476008e-02
2.888886e+02	-1.493079e-02
2.905572e+02	-1.510346e-02
2.922354e+02	-1.527813e-02
2.939234e+02	-1.545482e-02
2.956211e+02	-1.563354e-02
2.973286e+02	-1.581433e-02
2.990459e+02	-1.599720e-02
3.007732e+02	-1.618219e-02
3.025104e+02	-1.636931e-02
3.042577e+02	-1.655859e-02
3.060151e+02	-1.675005e-02
3.077826e+02	-1.694373e-02
3.095604e+02	-1.713964e-02
3.113484e+02	-1.733780e-02
3.131467e+02	-1.753826e-02
3.149554e+02	-1.774103e-02
3.167746e+02	-1.794614e-02
3.186043e+02	-1.815361e-02
3.204445e+02	-1.836348e-02
3.222954e+02	-1.857577e-02
3.241570e+02	-1.879051e-02
3.260293e+02	-1.900772e-02
3.279124e+02	-1.922744e-02
3.298064e+02	-1.944969e-02
3.317114e+02	-1.967451e-02
3.336273e+02	-1.990192e-02
3.355544e+02	-2.013195e-02
3.374925e+02	-2.036464e-02
3.394418e+02	-2.060001e-02
3.414024e+02	-2.083809e-02
3.433744e+02	-2.107892e-02
3.453577e+02	-2.132252e-02
3.473525e+02	-2.156893e-02
3.493588e+02	-2.181818e-02
3.513766e+02	-2.207031e-02
3.534062e+02	-2.232534e-02
3.554474e+02	-2.258331e-02
3.575005e+02	-2.284425e-02
3.595654e+02	-2.310820e-02
3.616422e+02	-2.337519e-02
3.637311e+02	-2.364526e-02
3.658320e+02	-2.391844e-02
3.679450e+02	-2.419476e-02
3.700702e+02	-2.447427e-02
3.722077e+02	-2.475700e-02
3.743576e+02	-2.504299e-02
3.765199e+02	-2.533227e-02
3.786946e+02	-2.562488e-02
3.808820e+02	-2.592086e-02
3.830819e+02	-2.622025e-02
3.852946e+02	-2.652309e-02
3.875200e+02	-2.682942e-02
3.897583e+02	-2.713927e-02
3.920096e+02	-2.745268e-02
3.942738e+02	-2.776971e-02
3.965511e+02	-2.809039e-02
3.988416e+02	-2.841475e-02
4.011452e+02	-2.874285e-02
4.034622e+02	-2.907473e-02
4.057926e+02	-2.941042e-02
4.081365e+02	-2.974998e-02
4.104938e+02	-3.009344e-02
4.128648e+02	-3.044085e-02
4.152495e+02	-3.079226e-02
4.176480e+02	-3.114772e-02
4.200603e+02	-3.150726e-02
4.224866e+02	-3.187093e-02
4.249268e+02	-3.223879e-02
4.273812e+02	-3.261088e-02
4.298497e+02	-3.298725e-02
4.323325e+02	-3.336794e-02
4.348297e+02	-3.375301e-02
4.373412e+02	-3.414250e-02
4.398673e+02	-3.453648e-02
4.424079e+02	-3.493498e-02
4.449633e+02	-3.533805e-02
4.475334e+02	-3.574577e-02
4.501183e+02	-3.615816e-02
4.527182e+02	-3.657529e-02
4.553330e+02	-3.699722e-02
4.579630e+02	-3.742399e-02
4.606082e+02	-3.785566e-02
4.632687e+02	-3.829229e-02
4.659445e+02	-3.873393e-02
4.686358e+02	-3.918064e-02
4.713426e+02	-3.963248e-02
4.740650e+02	-4.008951e-02
4.768032e+02	-4.055178e-02
4.795572e+02	-4.101936e-02
4.823271e+02	-4.149231e-02
4.851130e+02	-4.197068e-02
4.879150e+02	-4.245453e-02
4.907332e+02	-4.294394e-02
4.935676e+02	-4.343897e-02
4.964185e+02	-4.393966e-02
4.992858e+02	-4.444611e-02
5.021696e+02	-4.495835e-02
5.050701e+02	-4.547647e-02
5.079874e+02	-4.600053e-02
5.109215e+02	-4.653060e-02
5.138726e+02	-4.706674e-02
5.168407e+02	-4.760903e-02
5.198259e+02	-4.815753e-02
5.228284e+02	-4.871231e-02
5.258482e+02	-4.927344e-02
5.288855e+02	-4.984101e-02
5.319403e+02	-5.041507e-02
5.350128e+02	-5.099570e-02
5.381030e+02	-5.158299e-02
5.412111e+02	-5.217699e-02
5.443371e+02	-5.277780e-02
5.474812e+02	-5.338548e-02
5.506434e+02	-5.400011e-02
5.538239e+02	-5.462177e-02
5.570228e+02	-5.525055e-02
5.602401e+02	-5.588652e-02
5.634760e+02	-5.652975e-02
5.667306e+02	-5.718035e-02
5.700040e+02	-5.783838e-02
5.732964e+02	-5.850393e-02
5.766077e+02	-5.917709e-02
5.799382e+02	-5.985794e-02
5.832879e+02	-6.054657e-02
5.866569e+02	-6.124307e-02
5.900454e+02	-6.194752e-02
5.934535e+02	-6.266001e-02
5.968813e+02	-6.338064e-02
6.003288e+02	-6.410950e-02
6.037963e+02	-6.484667e-02
6.072838e+02	-6.559226e-02
6.107914e+02	-6.634635e-02
6.143194e+02	-6.710905e-02
6.178676e+02	-6.788044e-02
6.214364e+02	-6.866063e-02
6.250258e+02	-6.944972e-02
6.286359e+02	-7.024780e-02
6.322669e+02	-7.105498e-02
6.359189e+02	-7.187135e-02
6.395919e+02	-7.269703e-02
6.432862e+02	-7.353211e-02
6.470017e+02	-7.437670e-02
6.507388e+02	-7.523091e-02
6.544974e+02	-7.609484e-02
6.582778e+02	-7.696861e-02
6.620800e+02	-7.785232e-02
6.659041e+02	-7.874608e-02
6.697504e+02	-7.965001e-02
6.736188e+02	-8.056422e-02
6.775096e+02	-8.148882e-02
6.814229e+02	-8.242393e-02
6.853587e+02	-8.336967e-02
6.893173e+02	-8.432616e-02
6.932988e+02	-8.529351e-02
6.973033e+02	-8.627185e-02
7.013309e+02	-8.726129e-02
