Frequency(Hz)	Magnitude(dB)
1.000000e+01	-1.781983e-05
1.005776e+01	-1.802628e-05
1.011585e+01	-1.823512e-05
1.017428e+01	-1.844638e-05
1.023305e+01	-1.866009e-05
1.029215e+01	-1.887627e-05
1.035160e+01	-1.909495e-05
1.041139e+01	-1.931617e-05
1.047153e+01	-1.953996e-05
1.053201e+01	-1.976633e-05
1.059284e+01	-1.999533e-05
1.065403e+01	-2.022698e-05
1.071556e+01	-2.046132e-05
1.077746e+01	-2.069837e-05
1.083971e+01	-2.093816e-05
1.090232e+01	-2.118074e-05
1.096529e+01	-2.142612e-05
1.102862e+01	-2.167435e-05
1.109232e+01	-2.192545e-05
1.115639e+01	-2.217946e-05
1.122083e+01	-2.243642e-05
1.128564e+01	-2.269635e-05
1.135083e+01	-2.295929e-05
1.141639e+01	-2.322528e-05
1.148233e+01	-2.349435e-05
1.154865e+01	-2.376654e-05
1.161536e+01	-2.404188e-05
1.168245e+01	-2.432041e-05
1.174992e+01	-2.460217e-05
1.181779e+01	-2.488719e-05
1.188605e+01	-2.517551e-05
1.195470e+01	-2.546718e-05
1.202375e+01	-2.576222e-05
1.209320e+01	-2.606068e-05
1.216305e+01	-2.636260e-05
1.223330e+01	-2.666802e-05
1.230396e+01	-2.697698e-05
1.237503e+01	-2.728951e-05
1.244651e+01	-2.760567e-05
1.251840e+01	-2.792548e-05
1.259070e+01	-2.824901e-05
1.266343e+01	-2.857628e-05
1.273657e+01	-2.890734e-05
1.281014e+01	-2.924224e-05
1.288413e+01	-2.958102e-05
1.295855e+01	-2.992372e-05
1.303339e+01	-3.027040e-05
1.310867e+01	-3.062109e-05
1.318439e+01	-3.097584e-05
1.326054e+01	-3.133470e-05
1.333713e+01	-3.169772e-05
1.341417e+01	-3.206495e-05
1.349165e+01	-3.243643e-05
1.356958e+01	-3.281221e-05
1.364795e+01	-3.319235e-05
1.372678e+01	-3.357689e-05
1.380607e+01	-3.396589e-05
1.388581e+01	-3.435939e-05
1.396602e+01	-3.475745e-05
1.404668e+01	-3.516012e-05
1.412782e+01	-3.556746e-05
1.420942e+01	-3.597952e-05
1.429149e+01	-3.639635e-05
1.437404e+01	-3.681801e-05
1.445706e+01	-3.724455e-05
1.454057e+01	-3.767604e-05
1.462455e+01	-3.811253e-05
1.470902e+01	-3.855407e-05
1.479398e+01	-3.900073e-05
1.487943e+01	-3.945256e-05
1.496537e+01	-3.990963e-05
1.505181e+01	-4.037199e-05
1.513875e+01	-4.083971e-05
1.522619e+01	-4.131284e-05
1.531414e+01	-4.179146e-05
1.540259e+01	-4.227563e-05
1.549156e+01	-4.276540e-05
1.558103e+01	-4.326084e-05
1.567103e+01	-4.376203e-05
1.576155e+01	-4.426902e-05
1.585258e+01	-4.478189e-05
1.594415e+01	-4.530070e-05
1.603624e+01	-4.582552e-05
1.612886e+01	-4.635642e-05
1.622202e+01	-4.689346e-05
1.631572e+01	-4.743674e-05
1.640996e+01	-4.798630e-05
1.650474e+01	-4.854223e-05
1.660008e+01	-4.910460e-05
1.669596e+01	-4.967349e-05
1.679239e+01	-5.024897e-05
1.688938e+01	-5.083111e-05
1.698694e+01	-5.142000e-05
1.708505e+01	-5.201572e-05
1.718373e+01	-5.261833e-05
1.728299e+01	-5.322792e-05
1.738281e+01	-5.384458e-05
1.748322e+01	-5.446838e-05
1.758420e+01	-5.509941e-05
1.768576e+01	-5.573775e-05
1.778792e+01	-5.638348e-05
1.789066e+01	-5.703669e-05
1.799399e+01	-5.769747e-05
1.809793e+01	-5.836591e-05
1.820246e+01	-5.904209e-05
1.830760e+01	-5.972611e-05
1.841334e+01	-6.041805e-05
1.851969e+01	-6.111800e-05
1.862666e+01	-6.182606e-05
1.873425e+01	-6.254233e-05
1.884246e+01	-6.326690e-05
1.895129e+01	-6.399986e-05
1.906075e+01	-6.474131e-05
1.917085e+01	-6.549135e-05
1.928158e+01	-6.625008e-05
1.939295e+01	-6.701760e-05
1.950496e+01	-6.779401e-05
1.961762e+01	-6.857941e-05
1.973093e+01	-6.937392e-05
1.984490e+01	-7.017763e-05
1.995952e+01	-7.099065e-05
2.007480e+01	-7.181309e-05
2.019076e+01	-7.264506e-05
2.030738e+01	-7.348666e-05
2.042467e+01	-7.433802e-05
2.054264e+01	-7.519924e-05
2.066130e+01	-7.607044e-05
2.078064e+01	-7.695173e-05
2.090066e+01	-7.784323e-05
2.102139e+01	-7.874505e-05
2.114280e+01	-7.965733e-05
2.126492e+01	-8.058017e-05
2.138775e+01	-8.151371e-05
2.151128e+01	-8.245806e-05
2.163553e+01	-8.341335e-05
2.176050e+01	-8.437970e-05
2.188619e+01	-8.535726e-05
2.201260e+01	-8.634614e-05
2.213974e+01	-8.734647e-05
2.226762e+01	-8.835839e-05
2.239624e+01	-8.938204e-05
2.252560e+01	-9.041754e-05
2.265571e+01	-9.146505e-05
2.278656e+01	-9.252468e-05
2.291818e+01	-9.359659e-05
2.305055e+01	-9.468093e-05
2.318369e+01	-9.577782e-05
2.331760e+01	-9.688742e-05
2.345228e+01	-9.800987e-05
2.358774e+01	-9.914533e-05
2.372398e+01	-1.002939e-04
2.386101e+01	-1.014559e-04
2.399883e+01	-1.026312e-04
2.413745e+01	-1.038202e-04
2.427686e+01	-1.050230e-04
2.441709e+01	-1.062397e-04
2.455812e+01	-1.074705e-04
2.469997e+01	-1.087156e-04
2.484263e+01	-1.099751e-04
2.498612e+01	-1.112491e-04
2.513044e+01	-1.125380e-04
2.527559e+01	-1.138417e-04
2.542158e+01	-1.151606e-04
2.556842e+01	-1.164948e-04
2.571610e+01	-1.178444e-04
2.586463e+01	-1.192096e-04
2.601403e+01	-1.205907e-04
2.616428e+01	-1.219877e-04
2.631541e+01	-1.234010e-04
2.646740e+01	-1.248306e-04
2.662028e+01	-1.262768e-04
2.677404e+01	-1.277397e-04
2.692868e+01	-1.292196e-04
2.708422e+01	-1.307166e-04
2.724066e+01	-1.322310e-04
2.739800e+01	-1.337629e-04
2.755625e+01	-1.353125e-04
2.771541e+01	-1.368801e-04
2.787550e+01	-1.384659e-04
2.803650e+01	-1.400700e-04
2.819844e+01	-1.416928e-04
2.836131e+01	-1.433343e-04
2.852513e+01	-1.449948e-04
2.868989e+01	-1.466746e-04
2.885560e+01	-1.483738e-04
2.902227e+01	-1.500928e-04
2.918990e+01	-1.518316e-04
2.935850e+01	-1.535906e-04
2.952807e+01	-1.553699e-04
2.969863e+01	-1.571699e-04
2.987016e+01	-1.589907e-04
3.004269e+01	-1.608327e-04
3.021622e+01	-1.626959e-04
3.039075e+01	-1.645808e-04
3.056628e+01	-1.664874e-04
3.074283e+01	-1.684162e-04
3.092040e+01	-1.703673e-04
3.109900e+01	-1.723410e-04
3.127862e+01	-1.743376e-04
3.145929e+01	-1.763573e-04
3.164099e+01	-1.784004e-04
3.182375e+01	-1.804672e-04
3.200756e+01	-1.825579e-04
3.219244e+01	-1.846728e-04
3.237838e+01	-1.868123e-04
3.256540e+01	-1.889765e-04
3.275349e+01	-1.911658e-04
3.294268e+01	-1.933805e-04
3.313295e+01	-1.956208e-04
3.332433e+01	-1.978871e-04
3.351681e+01	-2.001796e-04
3.371040e+01	-2.024987e-04
3.390511e+01	-2.048446e-04
3.410094e+01	-2.072177e-04
3.429791e+01	-2.096184e-04
3.449601e+01	-2.120468e-04
3.469526e+01	-2.145033e-04
3.489566e+01	-2.169884e-04
3.509721e+01	-2.195022e-04
3.529993e+01	-2.220451e-04
3.550382e+01	-2.246175e-04
3.570889e+01	-2.272197e-04
3.591515e+01	-2.298520e-04
3.612259e+01	-2.325148e-04
3.633123e+01	-2.352085e-04
3.654108e+01	-2.379334e-04
3.675214e+01	-2.406898e-04
3.696442e+01	-2.434782e-04
3.717792e+01	-2.462989e-04
3.739266e+01	-2.491523e-04
3.760864e+01	-2.520387e-04
3.782587e+01	-2.549585e-04
3.804435e+01	-2.579122e-04
3.826409e+01	-2.609001e-04
3.848510e+01	-2.639226e-04
3.870739e+01	-2.669801e-04
3.893096e+01	-2.700731e-04
3.915583e+01	-2.732018e-04
3.938199e+01	-2.763669e-04
3.960946e+01	-2.795686e-04
3.983824e+01	-2.828073e-04
4.006834e+01	-2.860836e-04
4.029978e+01	-2.893979e-04
4.053255e+01	-2.927505e-04
4.076666e+01	-2.961420e-04
4.100213e+01	-2.995728e-04
4.123896e+01	-3.030433e-04
4.147715e+01	-3.065540e-04
4.171672e+01	-3.101054e-04
4.195767e+01	-3.136979e-04
4.220002e+01	-3.173320e-04
4.244377e+01	-3.210083e-04
4.268892e+01	-3.247271e-04
4.293549e+01	-3.284890e-04
4.318348e+01	-3.322945e-04
4.343291e+01	-3.361441e-04
4.368377e+01	-3.400383e-04
4.393609e+01	-3.439776e-04
4.418986e+01	-3.479625e-04
4.444510e+01	-3.519935e-04
4.470182e+01	-3.560713e-04
4.496001e+01	-3.601963e-04
4.521970e+01	-3.643691e-04
4.548089e+01	-3.685903e-04
4.574358e+01	-3.728603e-04
4.600779e+01	-3.771798e-04
4.627353e+01	-3.815494e-04
4.654081e+01	-3.859695e-04
4.680963e+01	-3.904409e-04
4.708000e+01	-3.949640e-04
4.735193e+01	-3.995396e-04
4.762543e+01	-4.041682e-04
4.790051e+01	-4.088503e-04
4.817719e+01	-4.135868e-04
4.845545e+01	-4.183780e-04
4.873533e+01	-4.232248e-04
4.901682e+01	-4.281278e-04
4.929994e+01	-4.330875e-04
4.958470e+01	-4.381047e-04
4.987110e+01	-4.431800e-04
5.015915e+01	-4.483141e-04
5.044887e+01	-4.535077e-04
5.074026e+01	-4.587614e-04
5.103333e+01	-4.640760e-04
5.132810e+01	-4.694521e-04
5.162457e+01	-4.748906e-04
5.192275e+01	-4.803920e-04
5.222265e+01	-4.859572e-04
5.252429e+01	-4.915868e-04
5.282767e+01	-4.972816e-04
5.313280e+01	-5.030425e-04
5.343969e+01	-5.088700e-04
5.374836e+01	-5.147651e-04
5.405880e+01	-5.207284e-04
5.437105e+01	-5.267608e-04
5.468509e+01	-5.328631e-04
5.500095e+01	-5.390361e-04
5.531863e+01	-5.452806e-04
5.563815e+01	-5.515974e-04
5.595951e+01	-5.579874e-04
5.628273e+01	-5.644514e-04
5.660782e+01	-5.709903e-04
5.693479e+01	-5.776050e-04
5.726364e+01	-5.842962e-04
5.759439e+01	-5.910650e-04
5.792705e+01	-5.979122e-04
5.826164e+01	-6.048387e-04
5.859815e+01	-6.118454e-04
5.893662e+01	-6.189333e-04
5.927703e+01	-6.261033e-04
5.961941e+01	-6.333563e-04
5.996377e+01	-6.406934e-04
6.031012e+01	-6.481154e-04
6.065847e+01	-6.556235e-04
6.100883e+01	-6.632185e-04
6.136121e+01	-6.709015e-04
6.171563e+01	-6.786734e-04
6.207210e+01	-6.865354e-04
6.243063e+01	-6.944885e-04
6.279122e+01	-7.025337e-04
6.315390e+01	-7.106721e-04
6.351868e+01	-7.189047e-04
6.388556e+01	-7.272327e-04
6.425456e+01	-7.356572e-04
6.462569e+01	-7.441793e-04
6.499897e+01	-7.528000e-04
6.537440e+01	-7.615207e-04
6.575200e+01	-7.703423e-04
6.613178e+01	-7.792661e-04
6.651375e+01	-7.882933e-04
6.689793e+01	-7.974251e-04
6.728433e+01	-8.066626e-04
6.767297e+01	-8.160071e-04
6.806384e+01	-8.254599e-04
6.845698e+01	-8.350222e-04
6.885238e+01	-8.446952e-04
6.925007e+01	-8.544802e-04
6.965005e+01	-8.643786e-04
7.005235e+01	-8.743917e-04
7.045697e+01	-8.845207e-04
7.086393e+01	-8.947671e-04
7.127323e+01	-9.051321e-04
7.168490e+01	-9.156172e-04
7.209895e+01	-9.262238e-04
7.251539e+01	-9.369532e-04
7.293424e+01	-9.478068e-04
7.335551e+01	-9.587862e-04
7.377920e+01	-9.698928e-04
7.420535e+01	-9.811280e-04
7.463396e+01	-9.924933e-04
7.506504e+01	-1.003990e-03
7.549861e+01	-1.015620e-03
7.593469e+01	-1.027385e-03
7.637328e+01	-1.039286e-03
7.681441e+01	-1.051325e-03
7.725809e+01	-1.063504e-03
7.770433e+01	-1.075823e-03
7.815315e+01	-1.088285e-03
7.860456e+01	-1.100892e-03
7.905857e+01	-1.113644e-03
7.951521e+01	-1.126545e-03
7.997449e+01	-1.139594e-03
8.043642e+01	-1.152795e-03
8.090102e+01	-1.166149e-03
8.136830e+01	-1.179657e-03
8.183828e+01	-1.193322e-03
8.231097e+01	-1.207145e-03
8.278640e+01	-1.221128e-03
8.326457e+01	-1.235273e-03
8.374550e+01	-1.249582e-03
8.422921e+01	-1.264056e-03
8.471572e+01	-1.278699e-03
8.520503e+01	-1.293511e-03
8.569717e+01	-1.308494e-03
8.619215e+01	-1.323651e-03
8.669000e+01	-1.338983e-03
8.719071e+01	-1.354494e-03
8.769432e+01	-1.370183e-03
8.820084e+01	-1.386055e-03
8.871029e+01	-1.402110e-03
8.922267e+01	-1.418351e-03
8.973802e+01	-1.434780e-03
9.025634e+01	-1.451400e-03
9.077766e+01	-1.468212e-03
9.130199e+01	-1.485219e-03
9.182935e+01	-1.502422e-03
9.235975e+01	-1.519825e-03
9.289321e+01	-1.537430e-03
9.342976e+01	-1.555238e-03
9.396941e+01	-1.573253e-03
9.451217e+01	-1.591476e-03
9.505807e+01	-1.609910e-03
9.560712e+01	-1.628558e-03
9.615934e+01	-1.647421e-03
9.671476e+01	-1.666504e-03
9.727338e+01	-1.685807e-03
9.783522e+01	-1.705333e-03
9.840032e+01	-1.725086e-03
9.896867e+01	-1.745068e-03
9.954031e+01	-1.765281e-03
1.001153e+02	-1.785728e-03
1.006935e+02	-1.806412e-03
1.012751e+02	-1.827335e-03
1.018601e+02	-1.848501e-03
1.024484e+02	-1.869911e-03
1.030402e+02	-1.891570e-03
1.036353e+02	-1.913480e-03
1.042339e+02	-1.935643e-03
1.048360e+02	-1.958063e-03
1.054415e+02	-1.980742e-03
1.060505e+02	-2.003684e-03
1.066631e+02	-2.026892e-03
1.072791e+02	-2.050369e-03
1.078988e+02	-2.074117e-03
1.085220e+02	-2.098141e-03
1.091488e+02	-2.122442e-03
1.097793e+02	-2.147025e-03
1.104133e+02	-2.171893e-03
1.110511e+02	-2.197048e-03
1.116925e+02	-2.222495e-03
1.123376e+02	-2.248237e-03
1.129865e+02	-2.274276e-03
1.136391e+02	-2.300617e-03
1.142955e+02	-2.327264e-03
1.149556e+02	-2.354218e-03
1.156196e+02	-2.381485e-03
1.162874e+02	-2.409067e-03
1.169591e+02	-2.436969e-03
1.176347e+02	-2.465194e-03
1.183141e+02	-2.493746e-03
1.189975e+02	-2.522628e-03
1.196848e+02	-2.551845e-03
1.203761e+02	-2.581400e-03
1.210714e+02	-2.611297e-03
1.217707e+02	-2.641541e-03
1.224740e+02	-2.672134e-03
1.231814e+02	-2.703082e-03
1.238929e+02	-2.734388e-03
1.246085e+02	-2.766056e-03
1.253283e+02	-2.798091e-03
1.260522e+02	-2.830498e-03
1.267802e+02	-2.863279e-03
1.275125e+02	-2.896440e-03
1.282490e+02	-2.929984e-03
1.289898e+02	-2.963917e-03
1.297348e+02	-2.998243e-03
1.304842e+02	-3.032966e-03
1.312378e+02	-3.068092e-03
1.319959e+02	-3.103624e-03
1.327583e+02	-3.139567e-03
1.335251e+02	-3.175926e-03
1.342963e+02	-3.212707e-03
1.350720e+02	-3.249913e-03
1.358522e+02	-3.287550e-03
1.366368e+02	-3.325622e-03
1.374260e+02	-3.364135e-03
1.382198e+02	-3.403094e-03
1.390182e+02	-3.442505e-03
1.398211e+02	-3.482371e-03
1.406287e+02	-3.522699e-03
1.414410e+02	-3.563493e-03
1.422579e+02	-3.604760e-03
1.430796e+02	-3.646505e-03
1.439060e+02	-3.688732e-03
1.447372e+02	-3.731449e-03
1.455732e+02	-3.774660e-03
1.464141e+02	-3.818371e-03
1.472597e+02	-3.862588e-03
1.481103e+02	-3.907317e-03
1.489658e+02	-3.952564e-03
1.498262e+02	-3.998334e-03
1.506916e+02	-4.044634e-03
1.515620e+02	-4.091470e-03
1.524374e+02	-4.138848e-03
1.533179e+02	-4.186775e-03
1.542034e+02	-4.235256e-03
1.550941e+02	-4.284298e-03
1.559899e+02	-4.333908e-03
1.568909e+02	-4.384092e-03
1.577971e+02	-4.434857e-03
1.587085e+02	-4.486210e-03
1.596252e+02	-4.538156e-03
1.605472e+02	-4.590704e-03
1.614745e+02	-4.643860e-03
1.624072e+02	-4.697631e-03
1.633453e+02	-4.752025e-03
1.642887e+02	-4.807048e-03
1.652377e+02	-4.862707e-03
1.661921e+02	-4.919011e-03
1.671520e+02	-4.975966e-03
1.681175e+02	-5.033581e-03
1.690885e+02	-5.091862e-03
1.700651e+02	-5.150817e-03
1.710474e+02	-5.210455e-03
1.720354e+02	-5.270783e-03
1.730291e+02	-5.331808e-03
1.740285e+02	-5.393540e-03
1.750337e+02	-5.455987e-03
1.760446e+02	-5.519155e-03
1.770615e+02	-5.583055e-03
1.780842e+02	-5.647694e-03
1.791128e+02	-5.713081e-03
1.801473e+02	-5.779224e-03
1.811878e+02	-5.846133e-03
1.822344e+02	-5.913816e-03
1.832870e+02	-5.982281e-03
1.843456e+02	-6.051539e-03
1.854104e+02	-6.121598e-03
1.864813e+02	-6.192468e-03
1.875584e+02	-6.264157e-03
1.886418e+02	-6.336676e-03
1.897313e+02	-6.410034e-03
1.908272e+02	-6.484240e-03
1.919294e+02	-6.559305e-03
1.930380e+02	-6.635238e-03
1.941530e+02	-6.712049e-03
1.952744e+02	-6.789749e-03
1.964023e+02	-6.868348e-03
1.975367e+02	-6.947856e-03
1.986777e+02	-7.028283e-03
1.998252e+02	-7.109641e-03
2.009794e+02	-7.191939e-03
2.021403e+02	-7.275190e-03
2.033078e+02	-7.359403e-03
2.044821e+02	-7.444590e-03
2.056632e+02	-7.530763e-03
2.068511e+02	-7.617932e-03
2.080459e+02	-7.706109e-03
2.092475e+02	-7.795306e-03
2.104561e+02	-7.885534e-03
2.116717e+02	-7.976806e-03
2.128943e+02	-8.069133e-03
2.141240e+02	-8.162528e-03
2.153608e+02	-8.257003e-03
2.166047e+02	-8.352570e-03
2.178558e+02	-8.449243e-03
2.191141e+02	-8.547033e-03
2.203797e+02	-8.645953e-03
2.216526e+02	-8.746018e-03
2.229329e+02	-8.847239e-03
2.242205e+02	-8.949631e-03
2.255156e+02	-9.053206e-03
2.268182e+02	-9.157979e-03
2.281283e+02	-9.263963e-03
2.294459e+02	-9.371172e-03
2.307712e+02	-9.479621e-03
2.321041e+02	-9.589323e-03
2.334447e+02	-9.700293e-03
2.347931e+02	-9.812546e-03
2.361493e+02	-9.926097e-03
2.375133e+02	-1.004096e-02
2.388851e+02	-1.015715e-02
2.402649e+02	-1.027468e-02
2.416527e+02	-1.039358e-02
2.430484e+02	-1.051384e-02
2.444523e+02	-1.063550e-02
2.458642e+02	-1.075856e-02
2.472843e+02	-1.088304e-02
2.487126e+02	-1.100897e-02
2.501492e+02	-1.113634e-02
2.515940e+02	-1.126519e-02
2.530472e+02	-1.139553e-02
2.545088e+02	-1.152738e-02
2.559789e+02	-1.166074e-02
2.574574e+02	-1.179565e-02
2.589444e+02	-1.193212e-02
2.604401e+02	-1.207016e-02
2.619444e+02	-1.220980e-02
2.634574e+02	-1.235105e-02
2.649791e+02	-1.249394e-02
2.665096e+02	-1.263847e-02
2.680489e+02	-1.278468e-02
2.695972e+02	-1.293257e-02
2.711544e+02	-1.308217e-02
2.727205e+02	-1.323350e-02
2.742958e+02	-1.338657e-02
2.758801e+02	-1.354142e-02
2.774736e+02	-1.369805e-02
2.790762e+02	-1.385649e-02
2.806882e+02	-1.401676e-02
2.823094e+02	-1.417888e-02
2.839400e+02	-1.434288e-02
2.855800e+02	-1.450877e-02
2.872295e+02	-1.467657e-02
2.888886e+02	-1.484631e-02
2.905572e+02	-1.501801e-02
2.922354e+02	-1.519169e-02
2.939234e+02	-1.536738e-02
2.956211e+02	-1.554509e-02
2.973286e+02	-1.572486e-02
2.990459e+02	-1.590670e-02
3.007732e+02	-1.609064e-02
3.025104e+02	-1.627671e-02
3.042577e+02	-1.646492e-02
3.060151e+02	-1.665530e-02
3.077826e+02	-1.684788e-02
3.095604e+02	-1.704268e-02
3.113484e+02	-1.723973e-02
3.131467e+02	-1.743906e-02
3.149554e+02	-1.764068e-02
3.167746e+02	-1.784463e-02
3.186043e+02	-1.805094e-02
3.204445e+02	-1.825962e-02
3.222954e+02	-1.847071e-02
3.241570e+02	-1.868424e-02
3.260293e+02	-1.890023e-02
3.279124e+02	-1.911871e-02
3.298064e+02	-1.933971e-02
3.317114e+02	-1.956326e-02
3.336273e+02	-1.978938e-02
3.355544e+02	-2.001812e-02
3.374925e+02	-2.024949e-02
3.394418e+02	-2.048353e-02
3.414024e+02	-2.072027e-02
3.433744e+02	-2.095974e-02
3.453577e+02	-2.120197e-02
3.473525e+02	-2.144699e-02
3.493588e+02	-2.169484e-02
3.513766e+02	-2.194554e-02
3.534062e+02	-2.219913e-02
3.554474e+02	-2.245565e-02
3.575005e+02	-2.271512e-02
3.595654e+02	-2.297758e-02
3.616422e+02	-2.324307e-02
3.637311e+02	-2.351161e-02
3.658320e+02	-2.378325e-02
3.679450e+02	-2.405802e-02
3.700702e+02	-2.433596e-02
3.722077e+02	-2.461710e-02
3.743576e+02	-2.490147e-02
3.765199e+02	-2.518912e-02
3.786946e+02	-2.548009e-02
3.808820e+02	-2.577440e-02
3.830819e+02	-2.607210e-02
3.852946e+02	-2.637324e-02
3.875200e+02	-2.667784e-02
3.897583e+02	-2.698594e-02
3.920096e+02	-2.729760e-02
3.942738e+02	-2.761284e-02
3.965511e+02	-2.793171e-02
3.988416e+02	-2.825425e-02
4.011452e+02	-2.858050e-02
4.034622e+02	-2.891051e-02
4.057926e+02	-2.924431e-02
4.081365e+02	-2.958196e-02
4.104938e+02	-2.992349e-02
4.128648e+02	-3.026895e-02
4.152495e+02	-3.061838e-02
4.176480e+02	-3.097183e-02
4.200603e+02	-3.132935e-02
4.224866e+02	-3.169098e-02
4.249268e+02	-3.205677e-02
4.273812e+02	-3.242677e-02
4.298497e+02	-3.280102e-02
4.323325e+02	-3.317957e-02
4.348297e+02	-3.356248e-02
4.373412e+02	-3.394978e-02
4.398673e+02	-3.434154e-02
4.424079e+02	-3.473780e-02
4.449633e+02	-3.513861e-02
4.475334e+02	-3.554403e-02
4.501183e+02	-3.595411e-02
4.527182e+02	-3.636890e-02
4.553330e+02	-3.678846e-02
4.579630e+02	-3.721283e-02
4.606082e+02	-3.764208e-02
4.632687e+02	-3.807625e-02
4.659445e+02	-3.851542e-02
4.686358e+02	-3.895962e-02
4.713426e+02	-3.940892e-02
4.740650e+02	-3.986339e-02
4.768032e+02	-4.032307e-02
4.795572e+02	-4.078802e-02
4.823271e+02	-4.125831e-02
4.851130e+02	-4.173400e-02
4.879150e+02	-4.221514e-02
4.907332e+02	-4.270181e-02
4.935676e+02	-4.319405e-02
4.964185e+02	-4.369194e-02
4.992858e+02	-4.419554e-02
5.021696e+02	-4.470492e-02
5.050701e+02	-4.522014e-02
5.079874e+02	-4.574126e-02
5.109215e+02	-4.626836e-02
5.138726e+02	-4.680149e-02
5.168407e+02	-4.734074e-02
5.198259e+02	-4.788617e-02
5.228284e+02	-4.843784e-02
5.258482e+02	-4.899583e-02
5.288855e+02	-4.956022e-02
5.319403e+02	-5.013107e-02
5.350128e+02	-5.070845e-02
5.381030e+02	-5.129245e-02
5.412111e+02	-5.188313e-02
5.443371e+02	-5.248057e-02
5.474812e+02	-5.308485e-02
5.506434e+02	-5.369605e-02
5.538239e+02	-5.431424e-02
5.570228e+02	-5.493950e-02
5.602401e+02	-5.557191e-02
5.634760e+02	-5.621155e-02
5.667306e+02	-5.685851e-02
5.700040e+02	-5.751286e-02
5.732964e+02	-5.817470e-02
5.766077e+02	-5.884409e-02
5.799382e+02	-5.952114e-02
5.832879e+02	-6.020593e-02
5.866569e+02	-6.089853e-02
5.900454e+02	-6.159905e-02
5.934535e+02	-6.230757e-02
5.968813e+02	-6.302418e-02
6.003288e+02	-6.374897e-02
6.037963e+02	-6.448203e-02
6.072838e+02	-6.522346e-02
6.107914e+02	-6.597334e-02
6.143194e+02	-6.673179e-02
6.178676e+02	-6.749888e-02
6.214364e+02	-6.827473e-02
6.250258e+02	-6.905942e-02
6.286359e+02	-6.985305e-02
6.322669e+02	-7.065573e-02
6.359189e+02	-7.146756e-02
6.395919e+02	-7.228864e-02
6.432862e+02	-7.311907e-02
6.470017e+02	-7.395896e-02
6.507388e+02	-7.480842e-02
6.544974e+02	-7.566755e-02
6.582778e+02	-7.653645e-02
6.620800e+02	-7.741525e-02
6.659041e+02	-7.830404e-02
6.697504e+02	-7.920294e-02
6.736188e+02	-8.011207e-02
6.775096e+02	-8.103154e-02
6.814229e+02	-8.196146e-02
6.853587e+02	-8.290194e-02
6.893173e+02	-8.385312e-02
6.932988e+02	-8.481510e-02
6.973033e+02	-8.578801e-02
7.013309e+02	-8.677197e-02
