Frequency(Hz)	Magnitude(dB)
1.000000e+01	-2.119023e+00
1.005776e+01	-2.138668e+00
1.011585e+01	-2.158092e+00
1.017428e+01	-2.177747e+00
1.023305e+01	-2.197709e+00
1.029215e+01	-2.217361e+00
1.035160e+01	-2.237517e+00
1.041139e+01	-2.257785e+00
1.047153e+01	-2.278355e+00
1.053201e+01	-2.298838e+00
1.059284e+01	-2.319125e+00
1.065403e+01	-2.340141e+00
1.071556e+01	-2.361094e+00
1.077746e+01	-2.381971e+00
1.083971e+01	-2.403139e+00
1.090232e+01	-2.424635e+00
1.096529e+01	-2.446145e+00
1.102862e+01	-2.467597e+00
1.109232e+01	-2.489372e+00
1.115639e+01	-2.511235e+00
1.122083e+01	-2.533340e+00
1.128564e+01	-2.555635e+00
1.135083e+01	-2.578019e+00
1.141639e+01	-2.599964e+00
1.148233e+01	-2.622907e+00
1.154865e+01	-2.645747e+00
1.161536e+01	-2.668374e+00
1.168245e+01	-2.691624e+00
1.174992e+01	-2.714727e+00
1.181779e+01	-2.738169e+00
1.188605e+01	-2.761620e+00
1.195470e+01	-2.785225e+00
1.202375e+01	-2.808776e+00
1.209320e+01	-2.832787e+00
1.216305e+01	-2.856974e+00
1.223330e+01	-2.881033e+00
1.230396e+01	-2.905244e+00
1.237503e+01	-2.929799e+00
1.244651e+01	-2.954450e+00
1.251840e+01	-2.979011e+00
1.259070e+01	-3.004115e+00
1.266343e+01	-3.029001e+00
1.273657e+01	-3.054303e+00
1.281014e+01	-3.079800e+00
1.288413e+01	-3.105345e+00
1.295855e+01	-3.130828e+00
1.303339e+01	-3.156613e+00
1.310867e+01	-3.182335e+00
1.318439e+01	-3.208657e+00
1.326054e+01	-3.234696e+00
1.333713e+01	-3.260965e+00
1.341417e+01	-3.287710e+00
1.349165e+01	-3.314183e+00
1.356958e+01	-3.340786e+00
1.364795e+01	-3.367802e+00
1.372678e+01	-3.395151e+00
1.380607e+01	-3.422362e+00
1.388581e+01	-3.449535e+00
1.396602e+01	-3.477039e+00
1.404668e+01	-3.504473e+00
1.412782e+01	-3.532349e+00
1.420942e+01	-3.560382e+00
1.429149e+01	-3.588299e+00
1.437404e+01	-3.616497e+00
1.445706e+01	-3.644926e+00
1.454057e+01	-3.673313e+00
1.462455e+01	-3.702088e+00
1.470902e+01	-3.730746e+00
1.479398e+01	-3.759674e+00
1.487943e+01	-3.788481e+00
1.496537e+01	-3.817914e+00
1.505181e+01	-3.847185e+00
1.513875e+01	-3.876731e+00
1.522619e+01	-3.906197e+00
1.531414e+01	-3.936171e+00
1.540259e+01	-3.965818e+00
1.549156e+01	-3.996062e+00
1.558103e+01	-4.026160e+00
1.567103e+01	-4.056275e+00
1.576155e+01	-4.086472e+00
1.585258e+01	-4.117387e+00
1.594415e+01	-4.148241e+00
1.603624e+01	-4.178817e+00
1.612886e+01	-4.210061e+00
1.622202e+01	-4.241152e+00
1.631572e+01	-4.272309e+00
1.640996e+01	-4.303806e+00
1.650474e+01	-4.335408e+00
1.660008e+01	-4.366986e+00
1.669596e+01	-4.398569e+00
1.679239e+01	-4.430699e+00
1.688938e+01	-4.462586e+00
1.698694e+01	-4.494922e+00
1.708505e+01	-4.527232e+00
1.718373e+01	-4.559943e+00
1.728299e+01	-4.592018e+00
1.738281e+01	-4.625099e+00
1.748322e+01	-4.657947e+00
1.758420e+01	-4.690829e+00
1.768576e+01	-4.723994e+00
1.778792e+01	-4.757089e+00
1.789066e+01	-4.790265e+00
1.799399e+01	-4.824285e+00
1.809793e+01	-4.857567e+00
1.820246e+01	-4.891514e+00
1.830760e+01	-4.924988e+00
1.841334e+01	-4.959233e+00
1.851969e+01	-4.993300e+00
1.862666e+01	-5.027439e+00
1.873425e+01	-5.061961e+00
1.884246e+01	-5.096238e+00
1.895129e+01	-5.130785e+00
1.906075e+01	-5.165618e+00
1.917085e+01	-5.200538e+00
1.928158e+01	-5.235605e+00
1.939295e+01	-5.270754e+00
1.950496e+01	-5.305970e+00
1.961762e+01	-5.341251e+00
1.973093e+01	-5.376769e+00
1.984490e+01	-5.412162e+00
1.995952e+01	-5.448101e+00
2.007480e+01	-5.484067e+00
2.019076e+01	-5.519747e+00
2.030738e+01	-5.555779e+00
2.042467e+01	-5.592037e+00
2.054264e+01	-5.628202e+00
2.066130e+01	-5.664778e+00
2.078064e+01	-5.701246e+00
2.090066e+01	-5.737629e+00
2.102139e+01	-5.774541e+00
2.114280e+01	-5.811165e+00
2.126492e+01	-5.848093e+00
2.138775e+01	-5.885341e+00
2.151128e+01	-5.922395e+00
2.163553e+01	-5.959883e+00
2.176050e+01	-5.997229e+00
2.188619e+01	-6.034550e+00
2.201260e+01	-6.072293e+00
2.213974e+01	-6.110128e+00
2.226762e+01	-6.147673e+00
2.239624e+01	-6.185598e+00
2.252560e+01	-6.223963e+00
2.265571e+01	-6.261820e+00
2.278656e+01	-6.300267e+00
2.291818e+01	-6.338640e+00
2.305055e+01	-6.377043e+00
2.318369e+01	-6.415366e+00
2.331760e+01	-6.454365e+00
2.345228e+01	-6.493078e+00
2.358774e+01	-6.532216e+00
2.372398e+01	-6.570601e+00
2.386101e+01	-6.610049e+00
2.399883e+01	-6.649107e+00
2.413745e+01	-6.688119e+00
2.427686e+01	-6.727776e+00
2.441709e+01	-6.767337e+00
2.455812e+01	-6.806869e+00
2.469997e+01	-6.846362e+00
2.484263e+01	-6.885679e+00
2.498612e+01	-6.925867e+00
2.513044e+01	-6.965798e+00
2.527559e+01	-7.005690e+00
2.542158e+01	-7.045967e+00
2.556842e+01	-7.086107e+00
2.571610e+01	-7.126311e+00
2.586463e+01	-7.167083e+00
2.601403e+01	-7.207345e+00
2.616428e+01	-7.247613e+00
2.631541e+01	-7.288464e+00
2.646740e+01	-7.329041e+00
2.662028e+01	-7.369768e+00
2.677404e+01	-7.410640e+00
2.692868e+01	-7.451978e+00
2.708422e+01	-7.492580e+00
2.724066e+01	-7.533988e+00
2.739800e+01	-7.575358e+00
2.755625e+01	-7.616683e+00
2.771541e+01	-7.658194e+00
2.787550e+01	-7.699966e+00
2.803650e+01	-7.741185e+00
2.819844e+01	-7.782211e+00
2.836131e+01	-7.824339e+00
2.852513e+01	-7.866335e+00
2.868989e+01	-7.907992e+00
2.885560e+01	-7.949794e+00
2.902227e+01	-7.992438e+00
2.918990e+01	-8.034228e+00
2.935850e+01	-8.075876e+00
2.952807e+01	-8.118903e+00
2.969863e+01	-8.161252e+00
2.987016e+01	-8.203402e+00
3.004269e+01	-8.246447e+00
3.021622e+01	-8.288401e+00
3.039075e+01	-8.331006e+00
3.056628e+01	-8.374317e+00
3.074283e+01	-8.417063e+00
3.092040e+01	-8.458975e+00
3.109900e+01	-8.502496e+00
3.127862e+01	-8.545344e+00
3.145929e+01	-8.588746e+00
3.164099e+01	-8.631756e+00
3.182375e+01	-8.674530e+00
3.200756e+01	-8.718243e+00
3.219244e+01	-8.761671e+00
3.237838e+01	-8.804791e+00
3.256540e+01	-8.848523e+00
3.275349e+01	-8.891958e+00
3.294268e+01	-8.935877e+00
3.313295e+01	-8.979281e+00
3.332433e+01	-9.023018e+00
3.351681e+01	-9.066622e+00
3.371040e+01	-9.110100e+00
3.390511e+01	-9.154053e+00
3.410094e+01	-9.198340e+00
3.429791e+01	-9.242707e+00
3.449601e+01	-9.286527e+00
3.469526e+01	-9.330828e+00
3.489566e+01	-9.374982e+00
3.509721e+01	-9.418942e+00
3.529993e+01	-9.463645e+00
3.550382e+01	-9.508120e+00
3.570889e+01	-9.552457e+00
3.591515e+01	-9.597217e+00
3.612259e+01	-9.641809e+00
3.633123e+01	-9.686230e+00
3.654108e+01	-9.730507e+00
3.675214e+01	-9.775072e+00
3.696442e+01	-9.820242e+00
3.717792e+01	-9.864787e+00
3.739266e+01	-9.909759e+00
3.760864e+01	-9.954696e+00
3.782587e+01	-9.999933e+00
3.804435e+01	-1.004498e+01
3.826409e+01	-1.009006e+01
3.848510e+01	-1.013553e+01
3.870739e+01	-1.018054e+01
3.893096e+01	-1.022584e+01
3.915583e+01	-1.027117e+01
3.938199e+01	-1.031646e+01
3.960946e+01	-1.036119e+01
3.983824e+01	-1.040663e+01
4.006834e+01	-1.045344e+01
4.029978e+01	-1.049818e+01
4.053255e+01	-1.054421e+01
4.076666e+01	-1.058937e+01
4.100213e+01	-1.063533e+01
4.123896e+01	-1.068137e+01
4.147715e+01	-1.072694e+01
4.171672e+01	-1.077272e+01
4.195767e+01	-1.081820e+01
4.220002e+01	-1.086401e+01
4.244377e+01	-1.090993e+01
4.268892e+01	-1.095635e+01
4.293549e+01	-1.100260e+01
4.318348e+01	-1.104832e+01
4.343291e+01	-1.109447e+01
4.368377e+01	-1.114004e+01
4.393609e+01	-1.118687e+01
4.418986e+01	-1.123379e+01
4.444510e+01	-1.127886e+01
4.470182e+01	-1.132510e+01
4.496001e+01	-1.137178e+01
4.521970e+01	-1.141868e+01
4.548089e+01	-1.146539e+01
4.574358e+01	-1.151120e+01
4.600779e+01	-1.155748e+01
4.627353e+01	-1.160423e+01
4.654081e+01	-1.165065e+01
4.680963e+01	-1.169760e+01
4.708000e+01	-1.174422e+01
4.735193e+01	-1.179132e+01
4.762543e+01	-1.183744e+01
4.790051e+01	-1.188459e+01
4.817719e+01	-1.193094e+01
4.845545e+01	-1.197833e+01
4.873533e+01	-1.202482e+01
4.901682e+01	-1.207177e+01
4.929994e+01	-1.211890e+01
4.958470e+01	-1.216572e+01
4.987110e+01	-1.221317e+01
5.015915e+01	-1.225975e+01
5.044887e+01	-1.230663e+01
5.074026e+01	-1.235330e+01
5.103333e+01	-1.240077e+01
5.132810e+01	-1.244846e+01
5.162457e+01	-1.249545e+01
5.192275e+01	-1.254269e+01
5.222265e+01	-1.258982e+01
5.252429e+01	-1.263691e+01
5.282767e+01	-1.268441e+01
5.313280e+01	-1.273126e+01
5.343969e+01	-1.277988e+01
5.374836e+01	-1.282711e+01
5.405880e+01	-1.287412e+01
5.437105e+01	-1.292148e+01
5.468509e+01	-1.296947e+01
5.500095e+01	-1.301675e+01
5.531863e+01	-1.306396e+01
5.563815e+01	-1.311231e+01
5.595951e+01	-1.315890e+01
5.628273e+01	-1.320700e+01
5.660782e+01	-1.325477e+01
5.693479e+01	-1.330219e+01
5.726364e+01	-1.335033e+01
5.759439e+01	-1.339774e+01
5.792705e+01	-1.344553e+01
5.826164e+01	-1.349331e+01
5.859815e+01	-1.354080e+01
5.893662e+01	-1.358903e+01
5.927703e+01	-1.363667e+01
5.961941e+01	-1.368481e+01
5.996377e+01	-1.373256e+01
6.031012e+01	-1.378058e+01
6.065847e+01	-1.382799e+01
6.100883e+01	-1.387666e+01
6.136121e+01	-1.392440e+01
6.171563e+01	-1.397325e+01
6.207210e+01	-1.402061e+01
6.243063e+01	-1.406827e+01
6.279122e+01	-1.411656e+01
6.315390e+01	-1.416477e+01
6.351868e+01	-1.421279e+01
6.388556e+01	-1.426073e+01
6.425456e+01	-1.430885e+01
6.462569e+01	-1.435827e+01
6.499897e+01	-1.440471e+01
6.537440e+01	-1.445376e+01
6.575200e+01	-1.450186e+01
6.613178e+01	-1.455100e+01
6.651375e+01	-1.459798e+01
6.689793e+01	-1.464633e+01
6.728433e+01	-1.469447e+01
6.767297e+01	-1.474337e+01
6.806384e+01	-1.479168e+01
6.845698e+01	-1.483988e+01
6.885238e+01	-1.488953e+01
6.925007e+01	-1.493721e+01
6.965005e+01	-1.498602e+01
7.005235e+01	-1.503318e+01
7.045697e+01	-1.508159e+01
7.086393e+01	-1.513097e+01
7.127323e+01	-1.517855e+01
7.168490e+01	-1.522804e+01
7.209895e+01	-1.527551e+01
7.251539e+01	-1.532551e+01
7.293424e+01	-1.537299e+01
7.335551e+01	-1.542117e+01
7.377920e+01	-1.547059e+01
7.420535e+01	-1.551883e+01
7.463396e+01	-1.556826e+01
7.506504e+01	-1.561644e+01
7.549861e+01	-1.566449e+01
7.593469e+01	-1.571353e+01
7.637328e+01	-1.576278e+01
7.681441e+01	-1.581150e+01
7.725809e+01	-1.585971e+01
7.770433e+01	-1.590880e+01
7.815315e+01	-1.595778e+01
7.860456e+01	-1.600621e+01
7.905857e+01	-1.605560e+01
7.951521e+01	-1.610339e+01
7.997449e+01	-1.615215e+01
8.043642e+01	-1.620129e+01
8.090102e+01	-1.625105e+01
8.136830e+01	-1.629924e+01
8.183828e+01	-1.634777e+01
8.231097e+01	-1.639712e+01
8.278640e+01	-1.644628e+01
8.326457e+01	-1.649514e+01
8.374550e+01	-1.654315e+01
8.422921e+01	-1.659326e+01
8.471572e+01	-1.664247e+01
8.520503e+01	-1.669008e+01
8.569717e+01	-1.673940e+01
8.619215e+01	-1.678827e+01
8.669000e+01	-1.683739e+01
8.719071e+01	-1.688579e+01
8.769432e+01	-1.693513e+01
8.820084e+01	-1.698417e+01
8.871029e+01	-1.703314e+01
8.922267e+01	-1.708336e+01
8.973802e+01	-1.713198e+01
9.025634e+01	-1.718055e+01
9.077766e+01	-1.722972e+01
9.130199e+01	-1.727803e+01
9.182935e+01	-1.732834e+01
9.235975e+01	-1.737597e+01
9.289321e+01	-1.742536e+01
9.342976e+01	-1.747615e+01
9.396941e+01	-1.752434e+01
9.451217e+01	-1.757309e+01
9.505807e+01	-1.762324e+01
9.560712e+01	-1.767150e+01
9.615934e+01	-1.772152e+01
9.671476e+01	-1.777024e+01
9.727338e+01	-1.781920e+01
9.783522e+01	-1.786885e+01
9.840032e+01	-1.791728e+01
9.896867e+01	-1.796613e+01
9.954031e+01	-1.801699e+01
1.001153e+02	-1.806612e+01
1.006935e+02	-1.811480e+01
1.012751e+02	-1.816474e+01
1.018601e+02	-1.821359e+01
1.024484e+02	-1.826214e+01
1.030402e+02	-1.831209e+01
1.036353e+02	-1.836132e+01
1.042339e+02	-1.841058e+01
1.048360e+02	-1.845956e+01
1.054415e+02	-1.850969e+01
1.060505e+02	-1.855875e+01
1.066631e+02	-1.860828e+01
1.072791e+02	-1.865695e+01
1.078988e+02	-1.870557e+01
1.085220e+02	-1.875604e+01
1.091488e+02	-1.880518e+01
1.097793e+02	-1.885398e+01
1.104133e+02	-1.890454e+01
1.110511e+02	-1.895164e+01
1.116925e+02	-1.900267e+01
1.123376e+02	-1.905265e+01
1.129865e+02	-1.910216e+01
1.136391e+02	-1.915188e+01
1.142955e+02	-1.920195e+01
1.149556e+02	-1.925016e+01
1.156196e+02	-1.930035e+01
1.162874e+02	-1.934975e+01
1.169591e+02	-1.939964e+01
1.176347e+02	-1.944730e+01
1.183141e+02	-1.949700e+01
1.189975e+02	-1.954761e+01
1.196848e+02	-1.959582e+01
1.203761e+02	-1.964638e+01
1.210714e+02	-1.969600e+01
1.217707e+02	-1.974249e+01
1.224740e+02	-1.979403e+01
1.231814e+02	-1.984336e+01
1.238929e+02	-1.989221e+01
1.246085e+02	-1.994419e+01
1.253283e+02	-1.999250e+01
1.260522e+02	-2.004155e+01
1.267802e+02	-2.009257e+01
1.275125e+02	-2.014164e+01
1.282490e+02	-2.019107e+01
1.289898e+02	-2.024063e+01
1.297348e+02	-2.028937e+01
1.304842e+02	-2.033888e+01
1.312378e+02	-2.038850e+01
1.319959e+02	-2.043860e+01
1.327583e+02	-2.048910e+01
1.335251e+02	-2.053874e+01
1.342963e+02	-2.058618e+01
1.350720e+02	-2.063728e+01
1.358522e+02	-2.068728e+01
1.366368e+02	-2.073606e+01
1.374260e+02	-2.078698e+01
1.382198e+02	-2.083522e+01
1.390182e+02	-2.088584e+01
1.398211e+02	-2.093413e+01
1.406287e+02	-2.098476e+01
1.414410e+02	-2.103448e+01
1.422579e+02	-2.108336e+01
1.430796e+02	-2.113262e+01
1.439060e+02	-2.118228e+01
1.447372e+02	-2.123171e+01
1.455732e+02	-2.128275e+01
1.464141e+02	-2.133347e+01
1.472597e+02	-2.138298e+01
1.481103e+02	-2.143066e+01
1.489658e+02	-2.148022e+01
1.498262e+02	-2.152965e+01
1.506916e+02	-2.158114e+01
1.515620e+02	-2.162973e+01
1.524374e+02	-2.167973e+01
1.533179e+02	-2.172994e+01
1.542034e+02	-2.177848e+01
1.550941e+02	-2.183024e+01
1.559899e+02	-2.187784e+01
1.568909e+02	-2.192833e+01
1.577971e+02	-2.197670e+01
1.587085e+02	-2.202672e+01
1.596252e+02	-2.207769e+01
1.605472e+02	-2.212993e+01
1.614745e+02	-2.217604e+01
1.624072e+02	-2.222706e+01
1.633453e+02	-2.227767e+01
1.642887e+02	-2.232418e+01
1.652377e+02	-2.237533e+01
1.661921e+02	-2.242528e+01
1.671520e+02	-2.247460e+01
1.681175e+02	-2.252408e+01
1.690885e+02	-2.257630e+01
1.700651e+02	-2.262451e+01
1.710474e+02	-2.267589e+01
1.720354e+02	-2.272283e+01
1.730291e+02	-2.277473e+01
1.740285e+02	-2.282368e+01
1.750337e+02	-2.287265e+01
1.760446e+02	-2.292497e+01
1.770615e+02	-2.297008e+01
1.780842e+02	-2.302244e+01
1.791128e+02	-2.307259e+01
1.801473e+02	-2.312323e+01
1.811878e+02	-2.317356e+01
1.822344e+02	-2.322366e+01
1.832870e+02	-2.327203e+01
1.843456e+02	-2.332045e+01
1.854104e+02	-2.337280e+01
1.864813e+02	-2.342270e+01
1.875584e+02	-2.347083e+01
1.886418e+02	-2.351936e+01
1.897313e+02	-2.357197e+01
1.908272e+02	-2.361921e+01
1.919294e+02	-2.367027e+01
1.930380e+02	-2.371894e+01
1.941530e+02	-2.376906e+01
1.952744e+02	-2.382207e+01
1.964023e+02	-2.387062e+01
1.975367e+02	-2.392202e+01
1.986777e+02	-2.397126e+01
1.998252e+02	-2.402055e+01
2.009794e+02	-2.406956e+01
2.021403e+02	-2.411891e+01
2.033078e+02	-2.416932e+01
2.044821e+02	-2.421982e+01
2.056632e+02	-2.426751e+01
2.068511e+02	-2.431801e+01
2.080459e+02	-2.436964e+01
2.092475e+02	-2.441972e+01
2.104561e+02	-2.446806e+01
2.116717e+02	-2.451589e+01
2.128943e+02	-2.456732e+01
2.141240e+02	-2.461909e+01
2.153608e+02	-2.466823e+01
2.166047e+02	-2.471799e+01
2.178558e+02	-2.476621e+01
2.191141e+02	-2.481863e+01
2.203797e+02	-2.486838e+01
2.216526e+02	-2.491479e+01
2.229329e+02	-2.496672e+01
2.242205e+02	-2.501837e+01
2.255156e+02	-2.506626e+01
2.268182e+02	-2.511704e+01
2.281283e+02	-2.516599e+01
2.294459e+02	-2.521750e+01
2.307712e+02	-2.526991e+01
2.321041e+02	-2.531593e+01
2.334447e+02	-2.536388e+01
2.347931e+02	-2.541783e+01
2.361493e+02	-2.546832e+01
2.375133e+02	-2.551474e+01
2.388851e+02	-2.556714e+01
2.402649e+02	-2.561661e+01
2.416527e+02	-2.566443e+01
2.430484e+02	-2.571724e+01
2.444523e+02	-2.576672e+01
2.458642e+02	-2.581704e+01
2.472843e+02	-2.586448e+01
2.487126e+02	-2.591710e+01
2.501492e+02	-2.596268e+01
2.515940e+02	-2.601802e+01
2.530472e+02	-2.606494e+01
2.545088e+02	-2.611671e+01
2.559789e+02	-2.616666e+01
2.574574e+02	-2.621667e+01
2.589444e+02	-2.626926e+01
2.604401e+02	-2.631489e+01
2.619444e+02	-2.636570e+01
2.634574e+02	-2.641473e+01
2.649791e+02	-2.646646e+01
2.665096e+02	-2.651328e+01
2.680489e+02	-2.656445e+01
2.695972e+02	-2.661674e+01
2.711544e+02	-2.666652e+01
2.727205e+02	-2.671151e+01
2.742958e+02	-2.676300e+01
2.758801e+02	-2.681398e+01
2.774736e+02	-2.686328e+01
2.790762e+02	-2.691225e+01
2.806882e+02	-2.696577e+01
2.823094e+02	-2.701527e+01
2.839400e+02	-2.706510e+01
2.855800e+02	-2.711829e+01
2.872295e+02	-2.716479e+01
2.888886e+02	-2.721493e+01
2.905572e+02	-2.726613e+01
2.922354e+02	-2.731596e+01
2.939234e+02	-2.736647e+01
2.956211e+02	-2.741414e+01
2.973286e+02	-2.746279e+01
2.990459e+02	-2.751180e+01
3.007732e+02	-2.756672e+01
3.025104e+02	-2.761526e+01
3.042577e+02	-2.766987e+01
3.060151e+02	-2.771305e+01
3.077826e+02	-2.776500e+01
3.095604e+02	-2.781444e+01
3.113484e+02	-2.786506e+01
3.131467e+02	-2.791887e+01
3.149554e+02	-2.796571e+01
3.167746e+02	-2.801548e+01
3.186043e+02	-2.806755e+01
3.204445e+02	-2.811524e+01
3.222954e+02	-2.816513e+01
3.241570e+02	-2.821623e+01
3.260293e+02	-2.826670e+01
3.279124e+02	-2.832031e+01
3.298064e+02	-2.836085e+01
3.317114e+02	-2.841954e+01
3.336273e+02	-2.846679e+01
3.355544e+02	-2.851830e+01
3.374925e+02	-2.856828e+01
3.394418e+02	-2.861790e+01
3.414024e+02	-2.866047e+01
3.433744e+02	-2.872055e+01
3.453577e+02	-2.876545e+01
3.473525e+02	-2.881359e+01
3.493588e+02	-2.886294e+01
3.513766e+02	-2.891448e+01
3.534062e+02	-2.896782e+01
3.554474e+02	-2.901652e+01
3.575005e+02	-2.906977e+01
3.595654e+02	-2.911148e+01
3.616422e+02	-2.916959e+01
3.637311e+02	-2.921361e+01
3.658320e+02	-2.926778e+01
3.679450e+02	-2.931665e+01
3.700702e+02	-2.936858e+01
3.722077e+02	-2.941841e+01
3.743576e+02	-2.946148e+01
3.765199e+02	-2.951582e+01
3.786946e+02	-2.956722e+01
3.808820e+02	-2.961530e+01
3.830819e+02	-2.966608e+01
3.852946e+02	-2.971790e+01
3.875200e+02	-2.976498e+01
3.897583e+02	-2.981788e+01
3.920096e+02	-2.986686e+01
3.942738e+02	-2.991941e+01
3.965511e+02	-2.996506e+01
3.988416e+02	-3.001678e+01
4.011452e+02	-3.006912e+01
4.034622e+02	-3.012075e+01
4.057926e+02	-3.017018e+01
4.081365e+02	-3.022387e+01
4.104938e+02	-3.027593e+01
4.128648e+02	-3.031776e+01
4.152495e+02	-3.036756e+01
4.176480e+02	-3.041735e+01
4.200603e+02	-3.046840e+01
4.224866e+02	-3.052275e+01
4.249268e+02	-3.057144e+01
4.273812e+02	-3.062136e+01
4.298497e+02	-3.066960e+01
4.323325e+02	-3.072356e+01
4.348297e+02	-3.077142e+01
4.373412e+02	-3.082031e+01
4.398673e+02	-3.086811e+01
4.424079e+02	-3.091473e+01
4.449633e+02	-3.097490e+01
4.475334e+02	-3.101994e+01
4.501183e+02	-3.107319e+01
4.527182e+02	-3.112656e+01
4.553330e+02	-3.117356e+01
4.579630e+02	-3.121877e+01
4.606082e+02	-3.127389e+01
4.632687e+02	-3.131574e+01
4.659445e+02	-3.137242e+01
4.686358e+02	-3.142415e+01
4.713426e+02	-3.146566e+01
4.740650e+02	-3.153107e+01
4.768032e+02	-3.157334e+01
4.795572e+02	-3.162183e+01
4.823271e+02	-3.166542e+01
4.851130e+02	-3.172699e+01
4.879150e+02	-3.177533e+01
4.907332e+02	-3.182674e+01
4.935676e+02	-3.187457e+01
4.964185e+02	-3.192295e+01
4.992858e+02	-3.197680e+01
5.021696e+02	-3.202356e+01
5.050701e+02	-3.207818e+01
5.079874e+02	-3.212844e+01
5.109215e+02	-3.217957e+01
5.138726e+02	-3.222885e+01
5.168407e+02	-3.227902e+01
5.198259e+02	-3.232345e+01
5.228284e+02	-3.237387e+01
5.258482e+02	-3.242860e+01
5.288855e+02	-3.247525e+01
5.319403e+02	-3.253256e+01
5.350128e+02	-3.257822e+01
5.381030e+02	-3.262567e+01
5.412111e+02	-3.267745e+01
5.443371e+02	-3.273001e+01
5.474812e+02	-3.277743e+01
5.506434e+02	-3.282852e+01
5.538239e+02	-3.287830e+01
5.570228e+02	-3.292864e+01
5.602401e+02	-3.297629e+01
5.634760e+02	-3.303158e+01
5.667306e+02	-3.308228e+01
5.700040e+02	-3.313249e+01
5.732964e+02	-3.317931e+01
5.766077e+02	-3.322935e+01
5.799382e+02	-3.328657e+01
5.832879e+02	-3.333149e+01
5.866569e+02	-3.337848e+01
5.900454e+02	-3.343685e+01
5.934535e+02	-3.348715e+01
5.968813e+02	-3.353717e+01
6.003288e+02	-3.358036e+01
6.037963e+02	-3.363272e+01
6.072838e+02	-3.368321e+01
6.107914e+02	-3.373785e+01
6.143194e+02	-3.378537e+01
6.178676e+02	-3.384024e+01
6.214364e+02	-3.388142e+01
6.250258e+02	-3.394020e+01
6.286359e+02	-3.398657e+01
6.322669e+02	-3.403871e+01
6.359189e+02	-3.409182e+01
6.395919e+02	-3.413635e+01
6.432862e+02	-3.418667e+01
6.470017e+02	-3.424126e+01
6.507388e+02	-3.428610e+01
6.544974e+02	-3.433887e+01
6.582778e+02	-3.438806e+01
6.620800e+02	-3.444389e+01
6.659041e+02	-3.449016e+01
6.697504e+02	-3.454242e+01
6.736188e+02	-3.458861e+01
6.775096e+02	-3.464177e+01
6.814229e+02	-3.468380e+01
6.853587e+02	-3.473212e+01
6.893173e+02	-3.478843e+01
6.932988e+02	-3.483933e+01
6.973033e+02	-3.489160e+01
7.013309e+02	-3.494557e+01
