Frequency(Hz)	Magnitude(dB)
1.000000e+01	-2.216169e+00
1.005776e+01	-2.236507e+00
1.011585e+01	-2.256235e+00
1.017428e+01	-2.276796e+00
1.023305e+01	-2.297263e+00
1.029215e+01	-2.317814e+00
1.035160e+01	-2.338434e+00
1.041139e+01	-2.359423e+00
1.047153e+01	-2.380428e+00
1.053201e+01	-2.401770e+00
1.059284e+01	-2.423098e+00
1.065403e+01	-2.444401e+00
1.071556e+01	-2.466247e+00
1.077746e+01	-2.487838e+00
1.083971e+01	-2.509716e+00
1.090232e+01	-2.531823e+00
1.096529e+01	-2.554008e+00
1.102862e+01	-2.576245e+00
1.109232e+01	-2.598490e+00
1.115639e+01	-2.621160e+00
1.122083e+01	-2.644061e+00
1.128564e+01	-2.667034e+00
1.135083e+01	-2.689884e+00
1.141639e+01	-2.712939e+00
1.148233e+01	-2.736305e+00
1.154865e+01	-2.759749e+00
1.161536e+01	-2.783517e+00
1.168245e+01	-2.807340e+00
1.174992e+01	-2.831182e+00
1.181779e+01	-2.855222e+00
1.188605e+01	-2.879284e+00
1.195470e+01	-2.903786e+00
1.202375e+01	-2.928075e+00
1.209320e+01	-2.952818e+00
1.216305e+01	-2.977214e+00
1.223330e+01	-3.002154e+00
1.230396e+01	-3.027443e+00
1.237503e+01	-3.052508e+00
1.244651e+01	-3.077569e+00
1.251840e+01	-3.103466e+00
1.259070e+01	-3.128745e+00
1.266343e+01	-3.154765e+00
1.273657e+01	-3.180752e+00
1.281014e+01	-3.206818e+00
1.288413e+01	-3.232888e+00
1.295855e+01	-3.259072e+00
1.303339e+01	-3.285547e+00
1.310867e+01	-3.312107e+00
1.318439e+01	-3.338849e+00
1.326054e+01	-3.365867e+00
1.333713e+01	-3.392861e+00
1.341417e+01	-3.420292e+00
1.349165e+01	-3.447667e+00
1.356958e+01	-3.474782e+00
1.364795e+01	-3.502589e+00
1.372678e+01	-3.530574e+00
1.380607e+01	-3.558421e+00
1.388581e+01	-3.586332e+00
1.396602e+01	-3.614764e+00
1.404668e+01	-3.642940e+00
1.412782e+01	-3.671210e+00
1.420942e+01	-3.700111e+00
1.429149e+01	-3.728897e+00
1.437404e+01	-3.757629e+00
1.445706e+01	-3.786867e+00
1.454057e+01	-3.815734e+00
1.462455e+01	-3.845097e+00
1.470902e+01	-3.874634e+00
1.479398e+01	-3.904302e+00
1.487943e+01	-3.934032e+00
1.496537e+01	-3.963951e+00
1.505181e+01	-3.993979e+00
1.513875e+01	-4.024121e+00
1.522619e+01	-4.054344e+00
1.531414e+01	-4.084896e+00
1.540259e+01	-4.115319e+00
1.549156e+01	-4.145817e+00
1.558103e+01	-4.176659e+00
1.567103e+01	-4.207776e+00
1.576155e+01	-4.238692e+00
1.585258e+01	-4.270179e+00
1.594415e+01	-4.301714e+00
1.603624e+01	-4.332817e+00
1.612886e+01	-4.364625e+00
1.622202e+01	-4.396517e+00
1.631572e+01	-4.428400e+00
1.640996e+01	-4.460360e+00
1.650474e+01	-4.492548e+00
1.660008e+01	-4.524973e+00
1.669596e+01	-4.557202e+00
1.679239e+01	-4.589832e+00
1.688938e+01	-4.622721e+00
1.698694e+01	-4.655596e+00
1.708505e+01	-4.688181e+00
1.718373e+01	-4.721503e+00
1.728299e+01	-4.754614e+00
1.738281e+01	-4.788320e+00
1.748322e+01	-4.821398e+00
1.758420e+01	-4.855186e+00
1.768576e+01	-4.888878e+00
1.778792e+01	-4.922903e+00
1.789066e+01	-4.956602e+00
1.799399e+01	-4.990911e+00
1.809793e+01	-5.025245e+00
1.820246e+01	-5.059439e+00
1.830760e+01	-5.093994e+00
1.841334e+01	-5.128907e+00
1.851969e+01	-5.163422e+00
1.862666e+01	-5.198194e+00
1.873425e+01	-5.233196e+00
1.884246e+01	-5.268110e+00
1.895129e+01	-5.303109e+00
1.906075e+01	-5.338921e+00
1.917085e+01	-5.374021e+00
1.928158e+01	-5.410209e+00
1.939295e+01	-5.445202e+00
1.950496e+01	-5.481454e+00
1.961762e+01	-5.517211e+00
1.973093e+01	-5.553414e+00
1.984490e+01	-5.589621e+00
1.995952e+01	-5.625748e+00
2.007480e+01	-5.662313e+00
2.019076e+01	-5.698507e+00
2.030738e+01	-5.734981e+00
2.042467e+01	-5.772041e+00
2.054264e+01	-5.809058e+00
2.066130e+01	-5.845687e+00
2.078064e+01	-5.882978e+00
2.090066e+01	-5.920172e+00
2.102139e+01	-5.957170e+00
2.114280e+01	-5.994605e+00
2.126492e+01	-6.032105e+00
2.138775e+01	-6.069781e+00
2.151128e+01	-6.107191e+00
2.163553e+01	-6.144975e+00
2.176050e+01	-6.183032e+00
2.188619e+01	-6.221117e+00
2.201260e+01	-6.259239e+00
2.213974e+01	-6.297539e+00
2.226762e+01	-6.336137e+00
2.239624e+01	-6.374380e+00
2.252560e+01	-6.412847e+00
2.265571e+01	-6.451601e+00
2.278656e+01	-6.490320e+00
2.291818e+01	-6.529072e+00
2.305055e+01	-6.568455e+00
2.318369e+01	-6.607194e+00
2.331760e+01	-6.646090e+00
2.345228e+01	-6.685667e+00
2.358774e+01	-6.724758e+00
2.372398e+01	-6.764237e+00
2.386101e+01	-6.803812e+00
2.399883e+01	-6.843494e+00
2.413745e+01	-6.882974e+00
2.427686e+01	-6.922945e+00
2.441709e+01	-6.962902e+00
2.455812e+01	-7.003226e+00
2.469997e+01	-7.042970e+00
2.484263e+01	-7.083442e+00
2.498612e+01	-7.123872e+00
2.513044e+01	-7.164154e+00
2.527559e+01	-7.204209e+00
2.542158e+01	-7.245068e+00
2.556842e+01	-7.285782e+00
2.571610e+01	-7.326318e+00
2.586463e+01	-7.366529e+00
2.601403e+01	-7.407898e+00
2.616428e+01	-7.448767e+00
2.631541e+01	-7.490211e+00
2.646740e+01	-7.530950e+00
2.662028e+01	-7.572216e+00
2.677404e+01	-7.613760e+00
2.692868e+01	-7.655028e+00
2.708422e+01	-7.696548e+00
2.724066e+01	-7.738462e+00
2.739800e+01	-7.779906e+00
2.755625e+01	-7.821632e+00
2.771541e+01	-7.863134e+00
2.787550e+01	-7.905774e+00
2.803650e+01	-7.947436e+00
2.819844e+01	-7.989265e+00
2.836131e+01	-8.031463e+00
2.852513e+01	-8.073994e+00
2.868989e+01	-8.116054e+00
2.885560e+01	-8.158143e+00
2.902227e+01	-8.200593e+00
2.918990e+01	-8.242646e+00
2.935850e+01	-8.285757e+00
2.952807e+01	-8.328537e+00
2.969863e+01	-8.371005e+00
2.987016e+01	-8.413294e+00
3.004269e+01	-8.457168e+00
3.021622e+01	-8.499405e+00
3.039075e+01	-8.542284e+00
3.056628e+01	-8.585318e+00
3.074283e+01	-8.629157e+00
3.092040e+01	-8.672274e+00
3.109900e+01	-8.715296e+00
3.127862e+01	-8.758368e+00
3.145929e+01	-8.801786e+00
3.164099e+01	-8.845054e+00
3.182375e+01	-8.888363e+00
3.200756e+01	-8.933079e+00
3.219244e+01	-8.975993e+00
3.237838e+01	-9.019892e+00
3.256540e+01	-9.064013e+00
3.275349e+01	-9.107534e+00
3.294268e+01	-9.151211e+00
3.313295e+01	-9.195675e+00
3.332433e+01	-9.239523e+00
3.351681e+01	-9.283633e+00
3.371040e+01	-9.327551e+00
3.390511e+01	-9.371841e+00
3.410094e+01	-9.415909e+00
3.429791e+01	-9.460674e+00
3.449601e+01	-9.504286e+00
3.469526e+01	-9.549188e+00
3.489566e+01	-9.593463e+00
3.509721e+01	-9.638488e+00
3.529993e+01	-9.682984e+00
3.550382e+01	-9.727324e+00
3.570889e+01	-9.772337e+00
3.591515e+01	-9.816865e+00
3.612259e+01	-9.862184e+00
3.633123e+01	-9.907148e+00
3.654108e+01	-9.952440e+00
3.675214e+01	-9.996670e+00
3.696442e+01	-1.004175e+01
3.717792e+01	-1.008645e+01
3.739266e+01	-1.013210e+01
3.760864e+01	-1.017760e+01
3.782587e+01	-1.022283e+01
3.804435e+01	-1.026773e+01
3.826409e+01	-1.031396e+01
3.848510e+01	-1.035853e+01
3.870739e+01	-1.040428e+01
3.893096e+01	-1.044938e+01
3.915583e+01	-1.049497e+01
3.938199e+01	-1.054057e+01
3.960946e+01	-1.058606e+01
3.983824e+01	-1.063145e+01
4.006834e+01	-1.067762e+01
4.029978e+01	-1.072365e+01
4.053255e+01	-1.076932e+01
4.076666e+01	-1.081507e+01
4.100213e+01	-1.086114e+01
4.123896e+01	-1.090744e+01
4.147715e+01	-1.095277e+01
4.171672e+01	-1.099959e+01
4.195767e+01	-1.104502e+01
4.220002e+01	-1.109127e+01
4.244377e+01	-1.113752e+01
4.268892e+01	-1.118396e+01
4.293549e+01	-1.122983e+01
4.318348e+01	-1.127599e+01
4.343291e+01	-1.132250e+01
4.368377e+01	-1.136873e+01
4.393609e+01	-1.141524e+01
4.418986e+01	-1.146162e+01
4.444510e+01	-1.150798e+01
4.470182e+01	-1.155479e+01
4.496001e+01	-1.160145e+01
4.521970e+01	-1.164806e+01
4.548089e+01	-1.169437e+01
4.574358e+01	-1.174130e+01
4.600779e+01	-1.178789e+01
4.627353e+01	-1.183432e+01
4.654081e+01	-1.188094e+01
4.680963e+01	-1.192768e+01
4.708000e+01	-1.197540e+01
4.735193e+01	-1.202185e+01
4.762543e+01	-1.206846e+01
4.790051e+01	-1.211531e+01
4.817719e+01	-1.216232e+01
4.845545e+01	-1.221023e+01
4.873533e+01	-1.225677e+01
4.901682e+01	-1.230297e+01
4.929994e+01	-1.235059e+01
4.958470e+01	-1.239744e+01
4.987110e+01	-1.244537e+01
5.015915e+01	-1.249219e+01
5.044887e+01	-1.253945e+01
5.074026e+01	-1.258644e+01
5.103333e+01	-1.263358e+01
5.132810e+01	-1.268197e+01
5.162457e+01	-1.272816e+01
5.192275e+01	-1.277621e+01
5.222265e+01	-1.282385e+01
5.252429e+01	-1.287016e+01
5.282767e+01	-1.291816e+01
5.313280e+01	-1.296564e+01
5.343969e+01	-1.301331e+01
5.374836e+01	-1.306156e+01
5.405880e+01	-1.310835e+01
5.437105e+01	-1.315602e+01
5.468509e+01	-1.320369e+01
5.500095e+01	-1.325123e+01
5.531863e+01	-1.329952e+01
5.563815e+01	-1.334663e+01
5.595951e+01	-1.339453e+01
5.628273e+01	-1.344222e+01
5.660782e+01	-1.348964e+01
5.693479e+01	-1.353742e+01
5.726364e+01	-1.358587e+01
5.759439e+01	-1.363344e+01
5.792705e+01	-1.368030e+01
5.826164e+01	-1.372934e+01
5.859815e+01	-1.377662e+01
5.893662e+01	-1.382561e+01
5.927703e+01	-1.387334e+01
5.961941e+01	-1.392148e+01
5.996377e+01	-1.396916e+01
6.031012e+01	-1.401732e+01
6.065847e+01	-1.406422e+01
6.100883e+01	-1.411316e+01
6.136121e+01	-1.416122e+01
6.171563e+01	-1.420991e+01
6.207210e+01	-1.425866e+01
6.243063e+01	-1.430585e+01
6.279122e+01	-1.435402e+01
6.315390e+01	-1.440227e+01
6.351868e+01	-1.444966e+01
6.388556e+01	-1.449841e+01
6.425456e+01	-1.454679e+01
6.462569e+01	-1.459551e+01
6.499897e+01	-1.464315e+01
6.537440e+01	-1.469143e+01
6.575200e+01	-1.474037e+01
6.613178e+01	-1.478884e+01
6.651375e+01	-1.483699e+01
6.689793e+01	-1.488516e+01
6.728433e+01	-1.493289e+01
6.767297e+01	-1.498163e+01
6.806384e+01	-1.502941e+01
6.845698e+01	-1.507926e+01
6.885238e+01	-1.512705e+01
6.925007e+01	-1.517649e+01
6.965005e+01	-1.522430e+01
7.005235e+01	-1.527302e+01
7.045697e+01	-1.532229e+01
7.086393e+01	-1.536964e+01
7.127323e+01	-1.541881e+01
7.168490e+01	-1.546753e+01
7.209895e+01	-1.551727e+01
7.251539e+01	-1.556435e+01
7.293424e+01	-1.561342e+01
7.335551e+01	-1.566256e+01
7.377920e+01	-1.571087e+01
7.420535e+01	-1.575950e+01
7.463396e+01	-1.581040e+01
7.506504e+01	-1.585710e+01
7.549861e+01	-1.590553e+01
7.593469e+01	-1.595399e+01
7.637328e+01	-1.600158e+01
7.681441e+01	-1.605250e+01
7.725809e+01	-1.610111e+01
7.770433e+01	-1.614915e+01
7.815315e+01	-1.619850e+01
7.860456e+01	-1.624738e+01
7.905857e+01	-1.629662e+01
7.951521e+01	-1.634501e+01
7.997449e+01	-1.639417e+01
8.043642e+01	-1.644286e+01
8.090102e+01	-1.649151e+01
8.136830e+01	-1.654016e+01
8.183828e+01	-1.658887e+01
8.231097e+01	-1.663818e+01
8.278640e+01	-1.668698e+01
8.326457e+01	-1.673549e+01
8.374550e+01	-1.678542e+01
8.422921e+01	-1.683375e+01
8.471572e+01	-1.688364e+01
8.520503e+01	-1.693238e+01
8.569717e+01	-1.698097e+01
8.619215e+01	-1.703033e+01
8.669000e+01	-1.707817e+01
8.719071e+01	-1.712858e+01
8.769432e+01	-1.717711e+01
8.820084e+01	-1.722629e+01
8.871029e+01	-1.727507e+01
8.922267e+01	-1.732452e+01
8.973802e+01	-1.737437e+01
9.025634e+01	-1.742347e+01
9.077766e+01	-1.747136e+01
9.130199e+01	-1.752080e+01
9.182935e+01	-1.756964e+01
9.235975e+01	-1.761911e+01
9.289321e+01	-1.766878e+01
9.342976e+01	-1.771744e+01
9.396941e+01	-1.776674e+01
9.451217e+01	-1.781619e+01
9.505807e+01	-1.786608e+01
9.560712e+01	-1.791468e+01
9.615934e+01	-1.796359e+01
9.671476e+01	-1.801206e+01
9.727338e+01	-1.806269e+01
9.783522e+01	-1.811144e+01
9.840032e+01	-1.816025e+01
9.896867e+01	-1.821006e+01
9.954031e+01	-1.825961e+01
1.001153e+02	-1.830819e+01
1.006935e+02	-1.835685e+01
1.012751e+02	-1.840805e+01
1.018601e+02	-1.845608e+01
1.024484e+02	-1.850604e+01
1.030402e+02	-1.855575e+01
1.036353e+02	-1.860413e+01
1.042339e+02	-1.865482e+01
1.048360e+02	-1.870364e+01
1.054415e+02	-1.875271e+01
1.060505e+02	-1.880237e+01
1.066631e+02	-1.885141e+01
1.072791e+02	-1.890173e+01
1.078988e+02	-1.895058e+01
1.085220e+02	-1.899916e+01
1.091488e+02	-1.904896e+01
1.097793e+02	-1.909738e+01
1.104133e+02	-1.914813e+01
1.110511e+02	-1.919718e+01
1.116925e+02	-1.924703e+01
1.123376e+02	-1.929687e+01
1.129865e+02	-1.934595e+01
1.136391e+02	-1.939539e+01
1.142955e+02	-1.944442e+01
1.149556e+02	-1.949410e+01
1.156196e+02	-1.954270e+01
1.162874e+02	-1.959310e+01
1.169591e+02	-1.964319e+01
1.176347e+02	-1.969099e+01
1.183141e+02	-1.974089e+01
1.189975e+02	-1.979106e+01
1.196848e+02	-1.984063e+01
1.203761e+02	-1.989024e+01
1.210714e+02	-1.993959e+01
1.217707e+02	-1.998764e+01
1.224740e+02	-2.003803e+01
1.231814e+02	-2.008916e+01
1.238929e+02	-2.013899e+01
1.246085e+02	-2.018688e+01
1.253283e+02	-2.023779e+01
1.260522e+02	-2.028558e+01
1.267802e+02	-2.033729e+01
1.275125e+02	-2.038434e+01
1.282490e+02	-2.043437e+01
1.289898e+02	-2.048617e+01
1.297348e+02	-2.053347e+01
1.304842e+02	-2.058317e+01
1.312378e+02	-2.063372e+01
1.319959e+02	-2.068297e+01
1.327583e+02	-2.073165e+01
1.335251e+02	-2.078157e+01
1.342963e+02	-2.083294e+01
1.350720e+02	-2.088072e+01
1.358522e+02	-2.093039e+01
1.366368e+02	-2.098100e+01
1.374260e+02	-2.103263e+01
1.382198e+02	-2.107886e+01
1.390182e+02	-2.112867e+01
1.398211e+02	-2.117848e+01
1.406287e+02	-2.122847e+01
1.414410e+02	-2.127859e+01
1.422579e+02	-2.132941e+01
1.430796e+02	-2.137784e+01
1.439060e+02	-2.142755e+01
1.447372e+02	-2.147639e+01
1.455732e+02	-2.152611e+01
1.464141e+02	-2.157824e+01
1.472597e+02	-2.162659e+01
1.481103e+02	-2.167695e+01
1.489658e+02	-2.172411e+01
1.498262e+02	-2.177556e+01
1.506916e+02	-2.182476e+01
1.515620e+02	-2.187497e+01
1.524374e+02	-2.192454e+01
1.533179e+02	-2.197548e+01
1.542034e+02	-2.202528e+01
1.550941e+02	-2.207369e+01
1.559899e+02	-2.212409e+01
1.568909e+02	-2.217136e+01
1.577971e+02	-2.222247e+01
1.587085e+02	-2.227507e+01
1.596252e+02	-2.232081e+01
1.605472e+02	-2.237211e+01
1.614745e+02	-2.242292e+01
1.624072e+02	-2.247207e+01
1.633453e+02	-2.252083e+01
1.642887e+02	-2.257345e+01
1.652377e+02	-2.262110e+01
1.661921e+02	-2.267041e+01
1.671520e+02	-2.272230e+01
1.681175e+02	-2.276941e+01
1.690885e+02	-2.281945e+01
1.700651e+02	-2.287035e+01
1.710474e+02	-2.291912e+01
1.720354e+02	-2.297075e+01
1.730291e+02	-2.301728e+01
1.740285e+02	-2.307012e+01
1.750337e+02	-2.312012e+01
1.760446e+02	-2.316626e+01
1.770615e+02	-2.321840e+01
1.780842e+02	-2.326762e+01
1.791128e+02	-2.331899e+01
1.801473e+02	-2.336967e+01
1.811878e+02	-2.341695e+01
1.822344e+02	-2.346645e+01
1.832870e+02	-2.351655e+01
1.843456e+02	-2.356504e+01
1.854104e+02	-2.361682e+01
1.864813e+02	-2.366552e+01
1.875584e+02	-2.371898e+01
1.886418e+02	-2.376502e+01
1.897313e+02	-2.381708e+01
1.908272e+02	-2.386806e+01
1.919294e+02	-2.391672e+01
1.930380e+02	-2.396596e+01
1.941530e+02	-2.401559e+01
1.952744e+02	-2.406598e+01
1.964023e+02	-2.411639e+01
1.975367e+02	-2.416781e+01
1.986777e+02	-2.421772e+01
1.998252e+02	-2.426676e+01
2.009794e+02	-2.431477e+01
2.021403e+02	-2.436672e+01
2.033078e+02	-2.441753e+01
2.044821e+02	-2.446579e+01
2.056632e+02	-2.451439e+01
2.068511e+02	-2.456771e+01
2.080459e+02	-2.461556e+01
2.092475e+02	-2.466377e+01
2.104561e+02	-2.471506e+01
2.116717e+02	-2.476423e+01
2.128943e+02	-2.481428e+01
2.141240e+02	-2.486526e+01
2.153608e+02	-2.491237e+01
2.166047e+02	-2.496677e+01
2.178558e+02	-2.501246e+01
2.191141e+02	-2.506402e+01
2.203797e+02	-2.511517e+01
2.216526e+02	-2.516507e+01
2.229329e+02	-2.521460e+01
2.242205e+02	-2.526499e+01
2.255156e+02	-2.531233e+01
2.268182e+02	-2.536292e+01
2.281283e+02	-2.541144e+01
2.294459e+02	-2.546292e+01
2.307712e+02	-2.551588e+01
2.321041e+02	-2.556106e+01
2.334447e+02	-2.561341e+01
2.347931e+02	-2.566671e+01
2.361493e+02	-2.571398e+01
2.375133e+02	-2.576392e+01
2.388851e+02	-2.581167e+01
2.402649e+02	-2.586368e+01
2.416527e+02	-2.591070e+01
2.430484e+02	-2.596447e+01
2.444523e+02	-2.601350e+01
2.458642e+02	-2.606067e+01
2.472843e+02	-2.611098e+01
2.487126e+02	-2.616421e+01
2.501492e+02	-2.621431e+01
2.515940e+02	-2.626022e+01
2.530472e+02	-2.631171e+01
2.545088e+02	-2.636247e+01
2.559789e+02	-2.641166e+01
2.574574e+02	-2.646069e+01
2.589444e+02	-2.651408e+01
2.604401e+02	-2.656271e+01
2.619444e+02	-2.661192e+01
2.634574e+02	-2.666355e+01
2.649791e+02	-2.671210e+01
2.665096e+02	-2.676133e+01
2.680489e+02	-2.681393e+01
2.695972e+02	-2.686466e+01
2.711544e+02	-2.691295e+01
2.727205e+02	-2.696094e+01
2.742958e+02	-2.701372e+01
2.758801e+02	-2.706266e+01
2.774736e+02	-2.711659e+01
2.790762e+02	-2.716605e+01
2.806882e+02	-2.721047e+01
2.823094e+02	-2.726086e+01
2.839400e+02	-2.731218e+01
2.855800e+02	-2.735905e+01
2.872295e+02	-2.741208e+01
2.888886e+02	-2.746285e+01
2.905572e+02	-2.751307e+01
2.922354e+02	-2.756051e+01
2.939234e+02	-2.761283e+01
2.956211e+02	-2.766334e+01
2.973286e+02	-2.771384e+01
2.990459e+02	-2.776710e+01
3.007732e+02	-2.781656e+01
3.025104e+02	-2.786328e+01
3.042577e+02	-2.791268e+01
3.060151e+02	-2.796550e+01
3.077826e+02	-2.801068e+01
3.095604e+02	-2.806270e+01
3.113484e+02	-2.811345e+01
3.131467e+02	-2.816438e+01
3.149554e+02	-2.821533e+01
3.167746e+02	-2.826285e+01
3.186043e+02	-2.831298e+01
3.204445e+02	-2.836626e+01
3.222954e+02	-2.840962e+01
3.241570e+02	-2.846475e+01
3.260293e+02	-2.851240e+01
3.279124e+02	-2.856195e+01
3.298064e+02	-2.860912e+01
3.317114e+02	-2.866476e+01
3.336273e+02	-2.871301e+01
3.355544e+02	-2.876192e+01
3.374925e+02	-2.881035e+01
3.394418e+02	-2.886228e+01
3.414024e+02	-2.891200e+01
3.433744e+02	-2.896109e+01
3.453577e+02	-2.901346e+01
3.473525e+02	-2.906040e+01
3.493588e+02	-2.911274e+01
3.513766e+02	-2.916564e+01
3.534062e+02	-2.921759e+01
3.554474e+02	-2.926706e+01
3.575005e+02	-2.931429e+01
3.595654e+02	-2.936483e+01
3.616422e+02	-2.941644e+01
3.637311e+02	-2.946297e+01
3.658320e+02	-2.951239e+01
3.679450e+02	-2.956625e+01
3.700702e+02	-2.961164e+01
3.722077e+02	-2.966244e+01
3.743576e+02	-2.971426e+01
3.765199e+02	-2.976784e+01
3.786946e+02	-2.981785e+01
3.808820e+02	-2.987144e+01
3.830819e+02	-2.991272e+01
3.852946e+02	-2.996457e+01
3.875200e+02	-3.001934e+01
3.897583e+02	-3.006000e+01
3.920096e+02	-3.010931e+01
3.942738e+02	-3.016480e+01
3.965511e+02	-3.021445e+01
3.988416e+02	-3.026320e+01
4.011452e+02	-3.031010e+01
4.034622e+02	-3.036854e+01
4.057926e+02	-3.041608e+01
4.081365e+02	-3.046821e+01
4.104938e+02	-3.051428e+01
4.128648e+02	-3.056542e+01
4.152495e+02	-3.061574e+01
4.176480e+02	-3.067277e+01
4.200603e+02	-3.071763e+01
4.224866e+02	-3.076641e+01
4.249268e+02	-3.081948e+01
4.273812e+02	-3.086470e+01
4.298497e+02	-3.091876e+01
4.323325e+02	-3.097221e+01
4.348297e+02	-3.101571e+01
4.373412e+02	-3.107460e+01
4.398673e+02	-3.111928e+01
4.424079e+02	-3.117122e+01
4.449633e+02	-3.121600e+01
4.475334e+02	-3.127046e+01
4.501183e+02	-3.132067e+01
4.527182e+02	-3.136898e+01
4.553330e+02	-3.142014e+01
4.579630e+02	-3.147105e+01
4.606082e+02	-3.151627e+01
4.632687e+02	-3.157195e+01
4.659445e+02	-3.162189e+01
4.686358e+02	-3.167293e+01
4.713426e+02	-3.172134e+01
4.740650e+02	-3.176859e+01
4.768032e+02	-3.182225e+01
4.795572e+02	-3.186783e+01
4.823271e+02	-3.192155e+01
4.851130e+02	-3.197240e+01
4.879150e+02	-3.201883e+01
4.907332e+02	-3.207140e+01
4.935676e+02	-3.212233e+01
4.964185e+02	-3.217313e+01
4.992858e+02	-3.221760e+01
5.021696e+02	-3.227356e+01
5.050701e+02	-3.232614e+01
5.079874e+02	-3.237351e+01
5.109215e+02	-3.242534e+01
5.138726e+02	-3.247018e+01
5.168407e+02	-3.253123e+01
5.198259e+02	-3.257719e+01
5.228284e+02	-3.261913e+01
5.258482e+02	-3.267556e+01
5.288855e+02	-3.272214e+01
5.319403e+02	-3.277507e+01
5.350128e+02	-3.282964e+01
5.381030e+02	-3.287701e+01
5.412111e+02	-3.292611e+01
5.443371e+02	-3.297163e+01
5.474812e+02	-3.303358e+01
5.506434e+02	-3.307921e+01
5.538239e+02	-3.312940e+01
5.570228e+02	-3.317333e+01
5.602401e+02	-3.322736e+01
5.634760e+02	-3.328097e+01
5.667306e+02	-3.332679e+01
5.700040e+02	-3.338222e+01
5.732964e+02	-3.342685e+01
5.766077e+02	-3.348344e+01
5.799382e+02	-3.352792e+01
5.832879e+02	-3.357756e+01
5.866569e+02	-3.363313e+01
5.900454e+02	-3.368103e+01
5.934535e+02	-3.372530e+01
5.968813e+02	-3.377693e+01
6.003288e+02	-3.382834e+01
6.037963e+02	-3.387830e+01
6.072838e+02	-3.392772e+01
6.107914e+02	-3.397244e+01
6.143194e+02	-3.403704e+01
6.178676e+02	-3.407909e+01
6.214364e+02	-3.414002e+01
6.250258e+02	-3.419080e+01
6.286359e+02	-3.424307e+01
6.322669e+02	-3.428402e+01
6.359189e+02	-3.434302e+01
6.395919e+02	-3.438953e+01
6.432862e+02	-3.444668e+01
6.470017e+02	-3.448773e+01
6.507388e+02	-3.453300e+01
6.544974e+02	-3.458337e+01
6.582778e+02	-3.463685e+01
6.620800e+02	-3.468687e+01
6.659041e+02	-3.473611e+01
6.697504e+02	-3.478699e+01
6.736188e+02	-3.483459e+01
6.775096e+02	-3.488571e+01
6.814229e+02	-3.494466e+01
6.853587e+02	-3.499178e+01
6.893173e+02	-3.503108e+01
6.932988e+02	-3.508763e+01
6.973033e+02	-3.514160e+01
7.013309e+02	-3.519767e+01
