Frequency(Hz)	Magnitude(dB)
1.000000e+01	-1.958287e+00
1.005776e+01	-1.976483e+00
1.011585e+01	-1.994809e+00
1.017428e+01	-2.013621e+00
1.023305e+01	-2.032121e+00
1.029215e+01	-2.050868e+00
1.035160e+01	-2.070036e+00
1.041139e+01	-2.088980e+00
1.047153e+01	-2.108223e+00
1.053201e+01	-2.127261e+00
1.059284e+01	-2.147061e+00
1.065403e+01	-2.166297e+00
1.071556e+01	-2.186208e+00
1.077746e+01	-2.205894e+00
1.083971e+01	-2.225831e+00
1.090232e+01	-2.245994e+00
1.096529e+01	-2.266244e+00
1.102862e+01	-2.286728e+00
1.109232e+01	-2.307075e+00
1.115639e+01	-2.328024e+00
1.122083e+01	-2.348773e+00
1.128564e+01	-2.369890e+00
1.135083e+01	-2.391038e+00
1.141639e+01	-2.412157e+00
1.148233e+01	-2.433353e+00
1.154865e+01	-2.454883e+00
1.161536e+01	-2.476876e+00
1.168245e+01	-2.498672e+00
1.174992e+01	-2.520488e+00
1.181779e+01	-2.542342e+00
1.188605e+01	-2.564785e+00
1.195470e+01	-2.587045e+00
1.202375e+01	-2.609887e+00
1.209320e+01	-2.632381e+00
1.216305e+01	-2.655233e+00
1.223330e+01	-2.678109e+00
1.230396e+01	-2.701392e+00
1.237503e+01	-2.724571e+00
1.244651e+01	-2.747938e+00
1.251840e+01	-2.771441e+00
1.259070e+01	-2.795085e+00
1.266343e+01	-2.818916e+00
1.273657e+01	-2.842800e+00
1.281014e+01	-2.866947e+00
1.288413e+01	-2.891483e+00
1.295855e+01	-2.915400e+00
1.303339e+01	-2.940313e+00
1.310867e+01	-2.964719e+00
1.318439e+01	-2.989727e+00
1.326054e+01	-3.014639e+00
1.333713e+01	-3.039727e+00
1.341417e+01	-3.064998e+00
1.349165e+01	-3.090522e+00
1.356958e+01	-3.115961e+00
1.364795e+01	-3.141628e+00
1.372678e+01	-3.167553e+00
1.380607e+01	-3.193409e+00
1.388581e+01	-3.219433e+00
1.396602e+01	-3.245898e+00
1.404668e+01	-3.272321e+00
1.412782e+01	-3.298526e+00
1.420942e+01	-3.325456e+00
1.429149e+01	-3.352249e+00
1.437404e+01	-3.379092e+00
1.445706e+01	-3.406239e+00
1.454057e+01	-3.433503e+00
1.462455e+01	-3.460956e+00
1.470902e+01	-3.488344e+00
1.479398e+01	-3.516306e+00
1.487943e+01	-3.544088e+00
1.496537e+01	-3.572012e+00
1.505181e+01	-3.600319e+00
1.513875e+01	-3.628367e+00
1.522619e+01	-3.656603e+00
1.531414e+01	-3.685402e+00
1.540259e+01	-3.714005e+00
1.549156e+01	-3.743210e+00
1.558103e+01	-3.772121e+00
1.567103e+01	-3.801069e+00
1.576155e+01	-3.829991e+00
1.585258e+01	-3.859775e+00
1.594415e+01	-3.889206e+00
1.603624e+01	-3.918733e+00
1.612886e+01	-3.948811e+00
1.622202e+01	-3.978628e+00
1.631572e+01	-4.008699e+00
1.640996e+01	-4.038743e+00
1.650474e+01	-4.069444e+00
1.660008e+01	-4.099659e+00
1.669596e+01	-4.130461e+00
1.679239e+01	-4.161164e+00
1.688938e+01	-4.192020e+00
1.698694e+01	-4.223011e+00
1.708505e+01	-4.253979e+00
1.718373e+01	-4.285683e+00
1.728299e+01	-4.317026e+00
1.738281e+01	-4.348631e+00
1.748322e+01	-4.380547e+00
1.758420e+01	-4.412082e+00
1.768576e+01	-4.444068e+00
1.778792e+01	-4.476169e+00
1.789066e+01	-4.508414e+00
1.799399e+01	-4.540885e+00
1.809793e+01	-4.573235e+00
1.820246e+01	-4.606163e+00
1.830760e+01	-4.638842e+00
1.841334e+01	-4.671919e+00
1.851969e+01	-4.704526e+00
1.862666e+01	-4.737820e+00
1.873425e+01	-4.770848e+00
1.884246e+01	-4.804290e+00
1.895129e+01	-4.837763e+00
1.906075e+01	-4.871914e+00
1.917085e+01	-4.905470e+00
1.928158e+01	-4.939446e+00
1.939295e+01	-4.973251e+00
1.950496e+01	-5.007432e+00
1.961762e+01	-5.042061e+00
1.973093e+01	-5.076448e+00
1.984490e+01	-5.110697e+00
1.995952e+01	-5.145327e+00
2.007480e+01	-5.180438e+00
2.019076e+01	-5.215327e+00
2.030738e+01	-5.250277e+00
2.042467e+01	-5.285556e+00
2.054264e+01	-5.320705e+00
2.066130e+01	-5.356089e+00
2.078064e+01	-5.391585e+00
2.090066e+01	-5.427113e+00
2.102139e+01	-5.462899e+00
2.114280e+01	-5.499074e+00
2.126492e+01	-5.535093e+00
2.138775e+01	-5.570775e+00
2.151128e+01	-5.607073e+00
2.163553e+01	-5.643691e+00
2.176050e+01	-5.680005e+00
2.188619e+01	-5.716658e+00
2.201260e+01	-5.753260e+00
2.213974e+01	-5.790120e+00
2.226762e+01	-5.826727e+00
2.239624e+01	-5.863767e+00
2.252560e+01	-5.900905e+00
2.265571e+01	-5.938576e+00
2.278656e+01	-5.975757e+00
2.291818e+01	-6.013114e+00
2.305055e+01	-6.050637e+00
2.318369e+01	-6.088350e+00
2.331760e+01	-6.126109e+00
2.345228e+01	-6.163872e+00
2.358774e+01	-6.201571e+00
2.372398e+01	-6.240052e+00
2.386101e+01	-6.278093e+00
2.399883e+01	-6.316687e+00
2.413745e+01	-6.354363e+00
2.427686e+01	-6.393467e+00
2.441709e+01	-6.432001e+00
2.455812e+01	-6.470279e+00
2.469997e+01	-6.509516e+00
2.484263e+01	-6.548027e+00
2.498612e+01	-6.587003e+00
2.513044e+01	-6.626579e+00
2.527559e+01	-6.665667e+00
2.542158e+01	-6.704733e+00
2.556842e+01	-6.744227e+00
2.571610e+01	-6.783370e+00
2.586463e+01	-6.823088e+00
2.601403e+01	-6.862973e+00
2.616428e+01	-6.902591e+00
2.631541e+01	-6.942955e+00
2.646740e+01	-6.982432e+00
2.662028e+01	-7.022914e+00
2.677404e+01	-7.062496e+00
2.692868e+01	-7.103101e+00
2.708422e+01	-7.143510e+00
2.724066e+01	-7.183528e+00
2.739800e+01	-7.224240e+00
2.755625e+01	-7.264867e+00
2.771541e+01	-7.305139e+00
2.787550e+01	-7.346309e+00
2.803650e+01	-7.387069e+00
2.819844e+01	-7.428046e+00
2.836131e+01	-7.468565e+00
2.852513e+01	-7.509882e+00
2.868989e+01	-7.551416e+00
2.885560e+01	-7.593078e+00
2.902227e+01	-7.634175e+00
2.918990e+01	-7.675526e+00
2.935850e+01	-7.717108e+00
2.952807e+01	-7.758617e+00
2.969863e+01	-7.800426e+00
2.987016e+01	-7.841968e+00
3.004269e+01	-7.883913e+00
3.021622e+01	-7.925557e+00
3.039075e+01	-7.967761e+00
3.056628e+01	-8.010056e+00
3.074283e+01	-8.052073e+00
3.092040e+01	-8.094391e+00
3.109900e+01	-8.136603e+00
3.127862e+01	-8.179137e+00
3.145929e+01	-8.221396e+00
3.164099e+01	-8.263607e+00
3.182375e+01	-8.306475e+00
3.200756e+01	-8.348858e+00
3.219244e+01	-8.392405e+00
3.237838e+01	-8.434909e+00
3.256540e+01	-8.477617e+00
3.275349e+01	-8.520650e+00
3.294268e+01	-8.563741e+00
3.313295e+01	-8.606596e+00
3.332433e+01	-8.649963e+00
3.351681e+01	-8.693245e+00
3.371040e+01	-8.736420e+00
3.390511e+01	-8.779889e+00
3.410094e+01	-8.823186e+00
3.429791e+01	-8.866731e+00
3.449601e+01	-8.910073e+00
3.469526e+01	-8.954066e+00
3.489566e+01	-8.997631e+00
3.509721e+01	-9.041674e+00
3.529993e+01	-9.085018e+00
3.550382e+01	-9.129803e+00
3.570889e+01	-9.172981e+00
3.591515e+01	-9.217373e+00
3.612259e+01	-9.261055e+00
3.633123e+01	-9.305235e+00
3.654108e+01	-9.349499e+00
3.675214e+01	-9.393266e+00
3.696442e+01	-9.437814e+00
3.717792e+01	-9.482328e+00
3.739266e+01	-9.527172e+00
3.760864e+01	-9.570856e+00
3.782587e+01	-9.615995e+00
3.804435e+01	-9.660797e+00
3.826409e+01	-9.704827e+00
3.848510e+01	-9.749646e+00
3.870739e+01	-9.794488e+00
3.893096e+01	-9.839294e+00
3.915583e+01	-9.884292e+00
3.938199e+01	-9.929552e+00
3.960946e+01	-9.973938e+00
3.983824e+01	-1.001899e+01
4.006834e+01	-1.006395e+01
4.029978e+01	-1.010935e+01
4.053255e+01	-1.015524e+01
4.076666e+01	-1.019963e+01
4.100213e+01	-1.024485e+01
4.123896e+01	-1.029011e+01
4.147715e+01	-1.033572e+01
4.171672e+01	-1.038132e+01
4.195767e+01	-1.042622e+01
4.220002e+01	-1.047193e+01
4.244377e+01	-1.051723e+01
4.268892e+01	-1.056282e+01
4.293549e+01	-1.060851e+01
4.318348e+01	-1.065434e+01
4.343291e+01	-1.070035e+01
4.368377e+01	-1.074617e+01
4.393609e+01	-1.079169e+01
4.418986e+01	-1.083674e+01
4.444510e+01	-1.088393e+01
4.470182e+01	-1.092988e+01
4.496001e+01	-1.097557e+01
4.521970e+01	-1.102216e+01
4.548089e+01	-1.106765e+01
4.574358e+01	-1.111454e+01
4.600779e+01	-1.116049e+01
4.627353e+01	-1.120574e+01
4.654081e+01	-1.125305e+01
4.680963e+01	-1.129886e+01
4.708000e+01	-1.134508e+01
4.735193e+01	-1.139174e+01
4.762543e+01	-1.143791e+01
4.790051e+01	-1.148418e+01
4.817719e+01	-1.153065e+01
4.845545e+01	-1.157739e+01
4.873533e+01	-1.162419e+01
4.901682e+01	-1.167079e+01
4.929994e+01	-1.171744e+01
4.958470e+01	-1.176417e+01
4.987110e+01	-1.181095e+01
5.015915e+01	-1.185756e+01
5.044887e+01	-1.190427e+01
5.074026e+01	-1.195124e+01
5.103333e+01	-1.199738e+01
5.132810e+01	-1.204494e+01
5.162457e+01	-1.209153e+01
5.192275e+01	-1.213887e+01
5.222265e+01	-1.218596e+01
5.252429e+01	-1.223207e+01
5.282767e+01	-1.227905e+01
5.313280e+01	-1.232601e+01
5.343969e+01	-1.237375e+01
5.374836e+01	-1.242090e+01
5.405880e+01	-1.246817e+01
5.437105e+01	-1.251481e+01
5.468509e+01	-1.256247e+01
5.500095e+01	-1.260978e+01
5.531863e+01	-1.265744e+01
5.563815e+01	-1.270458e+01
5.595951e+01	-1.275173e+01
5.628273e+01	-1.279847e+01
5.660782e+01	-1.284709e+01
5.693479e+01	-1.289453e+01
5.726364e+01	-1.294186e+01
5.759439e+01	-1.298886e+01
5.792705e+01	-1.303638e+01
5.826164e+01	-1.308492e+01
5.859815e+01	-1.313124e+01
5.893662e+01	-1.317962e+01
5.927703e+01	-1.322773e+01
5.961941e+01	-1.327452e+01
5.996377e+01	-1.332220e+01
6.031012e+01	-1.336986e+01
6.065847e+01	-1.341742e+01
6.100883e+01	-1.346456e+01
6.136121e+01	-1.351308e+01
6.171563e+01	-1.356053e+01
6.207210e+01	-1.360944e+01
6.243063e+01	-1.365657e+01
6.279122e+01	-1.370507e+01
6.315390e+01	-1.375189e+01
6.351868e+01	-1.380007e+01
6.388556e+01	-1.384804e+01
6.425456e+01	-1.389636e+01
6.462569e+01	-1.394453e+01
6.499897e+01	-1.399209e+01
6.537440e+01	-1.404063e+01
6.575200e+01	-1.408907e+01
6.613178e+01	-1.413727e+01
6.651375e+01	-1.418464e+01
6.689793e+01	-1.423307e+01
6.728433e+01	-1.428189e+01
6.767297e+01	-1.432895e+01
6.806384e+01	-1.437685e+01
6.845698e+01	-1.442573e+01
6.885238e+01	-1.447448e+01
6.925007e+01	-1.452319e+01
6.965005e+01	-1.457034e+01
7.005235e+01	-1.461843e+01
7.045697e+01	-1.466695e+01
7.086393e+01	-1.471547e+01
7.127323e+01	-1.476436e+01
7.168490e+01	-1.481197e+01
7.209895e+01	-1.486004e+01
7.251539e+01	-1.490910e+01
7.293424e+01	-1.495702e+01
7.335551e+01	-1.500534e+01
7.377920e+01	-1.505415e+01
7.420535e+01	-1.510239e+01
7.463396e+01	-1.515114e+01
7.506504e+01	-1.519938e+01
7.549861e+01	-1.524936e+01
7.593469e+01	-1.529731e+01
7.637328e+01	-1.534461e+01
7.681441e+01	-1.539391e+01
7.725809e+01	-1.544196e+01
7.770433e+01	-1.549129e+01
7.815315e+01	-1.553949e+01
7.860456e+01	-1.558774e+01
7.905857e+01	-1.563751e+01
7.951521e+01	-1.568638e+01
7.997449e+01	-1.573402e+01
8.043642e+01	-1.578370e+01
8.090102e+01	-1.583214e+01
8.136830e+01	-1.588130e+01
8.183828e+01	-1.592968e+01
8.231097e+01	-1.597796e+01
8.278640e+01	-1.602724e+01
8.326457e+01	-1.607602e+01
8.374550e+01	-1.612444e+01
8.422921e+01	-1.617311e+01
8.471572e+01	-1.622129e+01
8.520503e+01	-1.627162e+01
8.569717e+01	-1.632082e+01
8.619215e+01	-1.636937e+01
8.669000e+01	-1.641738e+01
8.719071e+01	-1.646689e+01
8.769432e+01	-1.651479e+01
8.820084e+01	-1.656386e+01
8.871029e+01	-1.661299e+01
8.922267e+01	-1.666233e+01
8.973802e+01	-1.671042e+01
9.025634e+01	-1.675991e+01
9.077766e+01	-1.680892e+01
9.130199e+01	-1.685729e+01
9.182935e+01	-1.690652e+01
9.235975e+01	-1.695539e+01
9.289321e+01	-1.700508e+01
9.342976e+01	-1.705429e+01
9.396941e+01	-1.710407e+01
9.451217e+01	-1.715391e+01
9.505807e+01	-1.720146e+01
9.560712e+01	-1.724998e+01
9.615934e+01	-1.730019e+01
9.671476e+01	-1.734778e+01
9.727338e+01	-1.739775e+01
9.783522e+01	-1.744642e+01
9.840032e+01	-1.749688e+01
9.896867e+01	-1.754556e+01
9.954031e+01	-1.759500e+01
1.001153e+02	-1.764317e+01
1.006935e+02	-1.769283e+01
1.012751e+02	-1.774111e+01
1.018601e+02	-1.779026e+01
1.024484e+02	-1.784044e+01
1.030402e+02	-1.788989e+01
1.036353e+02	-1.793933e+01
1.042339e+02	-1.798774e+01
1.048360e+02	-1.803715e+01
1.054415e+02	-1.808657e+01
1.060505e+02	-1.813491e+01
1.066631e+02	-1.818453e+01
1.072791e+02	-1.823322e+01
1.078988e+02	-1.828395e+01
1.085220e+02	-1.833338e+01
1.091488e+02	-1.838223e+01
1.097793e+02	-1.843107e+01
1.104133e+02	-1.848010e+01
1.110511e+02	-1.852982e+01
1.116925e+02	-1.857892e+01
1.123376e+02	-1.862935e+01
1.129865e+02	-1.867867e+01
1.136391e+02	-1.872821e+01
1.142955e+02	-1.877870e+01
1.149556e+02	-1.882509e+01
1.156196e+02	-1.887636e+01
1.162874e+02	-1.892446e+01
1.169591e+02	-1.897439e+01
1.176347e+02	-1.902357e+01
1.183141e+02	-1.907319e+01
1.189975e+02	-1.912170e+01
1.196848e+02	-1.917140e+01
1.203761e+02	-1.922056e+01
1.210714e+02	-1.927212e+01
1.217707e+02	-1.931993e+01
1.224740e+02	-1.936940e+01
1.231814e+02	-1.941861e+01
1.238929e+02	-1.946807e+01
1.246085e+02	-1.951994e+01
1.253283e+02	-1.956713e+01
1.260522e+02	-1.961755e+01
1.267802e+02	-1.966543e+01
1.275125e+02	-1.971654e+01
1.282490e+02	-1.976506e+01
1.289898e+02	-1.981448e+01
1.297348e+02	-1.986567e+01
1.304842e+02	-1.991513e+01
1.312378e+02	-1.996338e+01
1.319959e+02	-2.001302e+01
1.327583e+02	-2.006441e+01
1.335251e+02	-2.011278e+01
1.342963e+02	-2.016276e+01
1.350720e+02	-2.021098e+01
1.358522e+02	-2.025901e+01
1.366368e+02	-2.031006e+01
1.374260e+02	-2.035982e+01
1.382198e+02	-2.040910e+01
1.390182e+02	-2.045858e+01
1.398211e+02	-2.051065e+01
1.406287e+02	-2.055945e+01
1.414410e+02	-2.060887e+01
1.422579e+02	-2.065899e+01
1.430796e+02	-2.070599e+01
1.439060e+02	-2.075846e+01
1.447372e+02	-2.080614e+01
1.455732e+02	-2.085798e+01
1.464141e+02	-2.090552e+01
1.472597e+02	-2.095531e+01
1.481103e+02	-2.100589e+01
1.489658e+02	-2.105516e+01
1.498262e+02	-2.110497e+01
1.506916e+02	-2.115448e+01
1.515620e+02	-2.120429e+01
1.524374e+02	-2.125397e+01
1.533179e+02	-2.130405e+01
1.542034e+02	-2.135357e+01
1.550941e+02	-2.140189e+01
1.559899e+02	-2.145360e+01
1.568909e+02	-2.150213e+01
1.577971e+02	-2.154919e+01
1.587085e+02	-2.160221e+01
1.596252e+02	-2.164804e+01
1.605472e+02	-2.170098e+01
1.614745e+02	-2.175155e+01
1.624072e+02	-2.179917e+01
1.633453e+02	-2.184957e+01
1.642887e+02	-2.190131e+01
1.652377e+02	-2.194949e+01
1.661921e+02	-2.199760e+01
1.671520e+02	-2.204926e+01
1.681175e+02	-2.209661e+01
1.690885e+02	-2.214905e+01
1.700651e+02	-2.219601e+01
1.710474e+02	-2.224816e+01
1.720354e+02	-2.229689e+01
1.730291e+02	-2.234716e+01
1.740285e+02	-2.239806e+01
1.750337e+02	-2.244483e+01
1.760446e+02	-2.249719e+01
1.770615e+02	-2.254891e+01
1.780842e+02	-2.259666e+01
1.791128e+02	-2.264764e+01
1.801473e+02	-2.269631e+01
1.811878e+02	-2.274606e+01
1.822344e+02	-2.279657e+01
1.832870e+02	-2.284673e+01
1.843456e+02	-2.289330e+01
1.854104e+02	-2.294266e+01
1.864813e+02	-2.299351e+01
1.875584e+02	-2.304406e+01
1.886418e+02	-2.309481e+01
1.897313e+02	-2.314409e+01
1.908272e+02	-2.319215e+01
1.919294e+02	-2.324431e+01
1.930380e+02	-2.329268e+01
1.941530e+02	-2.334392e+01
1.952744e+02	-2.339164e+01
1.964023e+02	-2.344557e+01
1.975367e+02	-2.349385e+01
1.986777e+02	-2.354319e+01
1.998252e+02	-2.359307e+01
2.009794e+02	-2.364225e+01
2.021403e+02	-2.369096e+01
2.033078e+02	-2.374096e+01
2.044821e+02	-2.379004e+01
2.056632e+02	-2.384238e+01
2.068511e+02	-2.388955e+01
2.080459e+02	-2.394043e+01
2.092475e+02	-2.399274e+01
2.104561e+02	-2.403963e+01
2.116717e+02	-2.409293e+01
2.128943e+02	-2.413887e+01
2.141240e+02	-2.419188e+01
2.153608e+02	-2.423991e+01
2.166047e+02	-2.428861e+01
2.178558e+02	-2.433951e+01
2.191141e+02	-2.439098e+01
2.203797e+02	-2.444117e+01
2.216526e+02	-2.449077e+01
2.229329e+02	-2.453871e+01
2.242205e+02	-2.458741e+01
2.255156e+02	-2.463781e+01
2.268182e+02	-2.468973e+01
2.281283e+02	-2.473837e+01
2.294459e+02	-2.479088e+01
2.307712e+02	-2.483805e+01
2.321041e+02	-2.488865e+01
2.334447e+02	-2.493944e+01
2.347931e+02	-2.498841e+01
2.361493e+02	-2.504092e+01
2.375133e+02	-2.508778e+01
2.388851e+02	-2.513832e+01
2.402649e+02	-2.518692e+01
2.416527e+02	-2.523808e+01
2.430484e+02	-2.528944e+01
2.444523e+02	-2.533892e+01
2.458642e+02	-2.538706e+01
2.472843e+02	-2.543944e+01
2.487126e+02	-2.548929e+01
2.501492e+02	-2.553684e+01
2.515940e+02	-2.558878e+01
2.530472e+02	-2.563497e+01
2.545088e+02	-2.568741e+01
2.559789e+02	-2.573818e+01
2.574574e+02	-2.578467e+01
2.589444e+02	-2.583957e+01
2.604401e+02	-2.588746e+01
2.619444e+02	-2.593722e+01
2.634574e+02	-2.598729e+01
2.649791e+02	-2.604054e+01
2.665096e+02	-2.608810e+01
2.680489e+02	-2.613598e+01
2.695972e+02	-2.618975e+01
2.711544e+02	-2.623673e+01
2.727205e+02	-2.628429e+01
2.742958e+02	-2.633664e+01
2.758801e+02	-2.638803e+01
2.774736e+02	-2.643888e+01
2.790762e+02	-2.648707e+01
2.806882e+02	-2.653883e+01
2.823094e+02	-2.658803e+01
2.839400e+02	-2.663631e+01
2.855800e+02	-2.668780e+01
2.872295e+02	-2.673702e+01
2.888886e+02	-2.678554e+01
2.905572e+02	-2.683564e+01
2.922354e+02	-2.688769e+01
2.939234e+02	-2.693733e+01
2.956211e+02	-2.698807e+01
2.973286e+02	-2.703712e+01
2.990459e+02	-2.708628e+01
3.007732e+02	-2.713425e+01
3.025104e+02	-2.718822e+01
3.042577e+02	-2.723702e+01
3.060151e+02	-2.728937e+01
3.077826e+02	-2.733942e+01
3.095604e+02	-2.738659e+01
3.113484e+02	-2.743811e+01
3.131467e+02	-2.748564e+01
3.149554e+02	-2.753764e+01
3.167746e+02	-2.758512e+01
3.186043e+02	-2.763537e+01
3.204445e+02	-2.768704e+01
3.222954e+02	-2.773621e+01
3.241570e+02	-2.779044e+01
3.260293e+02	-2.783306e+01
3.279124e+02	-2.788584e+01
3.298064e+02	-2.794060e+01
3.317114e+02	-2.799162e+01
3.336273e+02	-2.803650e+01
3.355544e+02	-2.809038e+01
3.374925e+02	-2.813676e+01
3.394418e+02	-2.818487e+01
3.414024e+02	-2.823854e+01
3.433744e+02	-2.828810e+01
3.453577e+02	-2.833899e+01
3.473525e+02	-2.838395e+01
3.493588e+02	-2.843607e+01
3.513766e+02	-2.848956e+01
3.534062e+02	-2.853940e+01
3.554474e+02	-2.859349e+01
3.575005e+02	-2.863877e+01
3.595654e+02	-2.868687e+01
3.616422e+02	-2.873673e+01
3.637311e+02	-2.878779e+01
3.658320e+02	-2.883620e+01
3.679450e+02	-2.889081e+01
3.700702e+02	-2.893747e+01
3.722077e+02	-2.898665e+01
3.743576e+02	-2.903827e+01
3.765199e+02	-2.908841e+01
3.786946e+02	-2.913852e+01
3.808820e+02	-2.918766e+01
3.830819e+02	-2.923898e+01
3.852946e+02	-2.929234e+01
3.875200e+02	-2.933699e+01
3.897583e+02	-2.938896e+01
3.920096e+02	-2.944060e+01
3.942738e+02	-2.948517e+01
3.965511e+02	-2.954233e+01
3.988416e+02	-2.958977e+01
4.011452e+02	-2.964077e+01
4.034622e+02	-2.969254e+01
4.057926e+02	-2.973728e+01
4.081365e+02	-2.978450e+01
4.104938e+02	-2.983834e+01
4.128648e+02	-2.989007e+01
4.152495e+02	-2.993976e+01
4.176480e+02	-2.999088e+01
4.200603e+02	-3.004388e+01
4.224866e+02	-3.008798e+01
4.249268e+02	-3.013781e+01
4.273812e+02	-3.019068e+01
4.298497e+02	-3.024056e+01
4.323325e+02	-3.028681e+01
4.348297e+02	-3.033817e+01
4.373412e+02	-3.038998e+01
4.398673e+02	-3.044026e+01
4.424079e+02	-3.049468e+01
4.449633e+02	-3.054107e+01
4.475334e+02	-3.059417e+01
4.501183e+02	-3.063874e+01
4.527182e+02	-3.069492e+01
4.553330e+02	-3.074103e+01
4.579630e+02	-3.079071e+01
4.606082e+02	-3.083979e+01
4.632687e+02	-3.089895e+01
4.659445e+02	-3.094160e+01
4.686358e+02	-3.099873e+01
4.713426e+02	-3.104188e+01
4.740650e+02	-3.109399e+01
4.768032e+02	-3.114391e+01
4.795572e+02	-3.119210e+01
4.823271e+02	-3.124438e+01
4.851130e+02	-3.130030e+01
4.879150e+02	-3.133982e+01
4.907332e+02	-3.139168e+01
4.935676e+02	-3.144617e+01
4.964185e+02	-3.149773e+01
4.992858e+02	-3.154566e+01
5.021696e+02	-3.159228e+01
5.050701e+02	-3.164811e+01
5.079874e+02	-3.169394e+01
5.109215e+02	-3.174465e+01
5.138726e+02	-3.179698e+01
5.168407e+02	-3.184528e+01
5.198259e+02	-3.189603e+01
5.228284e+02	-3.194768e+01
5.258482e+02	-3.199305e+01
5.288855e+02	-3.204457e+01
5.319403e+02	-3.209697e+01
5.350128e+02	-3.215351e+01
5.381030e+02	-3.219391e+01
5.412111e+02	-3.224680e+01
5.443371e+02	-3.229676e+01
5.474812e+02	-3.235196e+01
5.506434e+02	-3.239618e+01
5.538239e+02	-3.244351e+01
5.570228e+02	-3.249823e+01
5.602401e+02	-3.255060e+01
5.634760e+02	-3.260208e+01
5.667306e+02	-3.265032e+01
5.700040e+02	-3.269654e+01
5.732964e+02	-3.275049e+01
5.766077e+02	-3.280597e+01
5.799382e+02	-3.284631e+01
5.832879e+02	-3.290098e+01
5.866569e+02	-3.295164e+01
5.900454e+02	-3.299795e+01
5.934535e+02	-3.305103e+01
5.968813e+02	-3.309351e+01
6.003288e+02	-3.315487e+01
6.037963e+02	-3.320299e+01
6.072838e+02	-3.324949e+01
6.107914e+02	-3.330591e+01
6.143194e+02	-3.334717e+01
6.178676e+02	-3.340664e+01
6.214364e+02	-3.346072e+01
6.250258e+02	-3.350570e+01
6.286359e+02	-3.354865e+01
6.322669e+02	-3.360369e+01
6.359189e+02	-3.365098e+01
6.395919e+02	-3.371342e+01
6.432862e+02	-3.375397e+01
6.470017e+02	-3.379966e+01
6.507388e+02	-3.385690e+01
6.544974e+02	-3.390940e+01
6.582778e+02	-3.396303e+01
6.620800e+02	-3.400763e+01
6.659041e+02	-3.404473e+01
6.697504e+02	-3.411231e+01
6.736188e+02	-3.416121e+01
6.775096e+02	-3.421338e+01
6.814229e+02	-3.425408e+01
6.853587e+02	-3.430544e+01
6.893173e+02	-3.436228e+01
6.932988e+02	-3.441739e+01
6.973033e+02	-3.445086e+01
7.013309e+02	-3.451726e+01
