Frequency(Hz)	Magnitude(dB)
1.000000e+01	-1.752341e-05
1.005776e+01	-1.772642e-05
1.011585e+01	-1.793179e-05
1.017428e+01	-1.813953e-05
1.023305e+01	-1.834968e-05
1.029215e+01	-1.856227e-05
1.035160e+01	-1.877732e-05
1.041139e+01	-1.899486e-05
1.047153e+01	-1.921492e-05
1.053201e+01	-1.943753e-05
1.059284e+01	-1.966272e-05
1.065403e+01	-1.989051e-05
1.071556e+01	-2.012095e-05
1.077746e+01	-2.035406e-05
1.083971e+01	-2.058986e-05
1.090232e+01	-2.082840e-05
1.096529e+01	-2.106970e-05
1.102862e+01	-2.131380e-05
1.109232e+01	-2.156073e-05
1.115639e+01	-2.181051e-05
1.122083e+01	-2.206319e-05
1.128564e+01	-2.231880e-05
1.135083e+01	-2.257737e-05
1.141639e+01	-2.283894e-05
1.148233e+01	-2.310353e-05
1.154865e+01	-2.337119e-05
1.161536e+01	-2.364195e-05
1.168245e+01	-2.391585e-05
1.174992e+01	-2.419292e-05
1.181779e+01	-2.447320e-05
1.188605e+01	-2.475673e-05
1.195470e+01	-2.504354e-05
1.202375e+01	-2.533368e-05
1.209320e+01	-2.562717e-05
1.216305e+01	-2.592407e-05
1.223330e+01	-2.622441e-05
1.230396e+01	-2.652822e-05
1.237503e+01	-2.683556e-05
1.244651e+01	-2.714646e-05
1.251840e+01	-2.746096e-05
1.259070e+01	-2.777910e-05
1.266343e+01	-2.810092e-05
1.273657e+01	-2.842648e-05
1.281014e+01	-2.875581e-05
1.288413e+01	-2.908895e-05
1.295855e+01	-2.942595e-05
1.303339e+01	-2.976686e-05
1.310867e+01	-3.011172e-05
1.318439e+01	-3.046057e-05
1.326054e+01	-3.081346e-05
1.333713e+01	-3.117044e-05
1.341417e+01	-3.153156e-05
1.349165e+01	-3.189686e-05
1.356958e+01	-3.226639e-05
1.364795e+01	-3.264021e-05
1.372678e+01	-3.301835e-05
1.380607e+01	-3.340088e-05
1.388581e+01	-3.378783e-05
1.396602e+01	-3.417927e-05
1.404668e+01	-3.457525e-05
1.412782e+01	-3.497581e-05
1.420942e+01	-3.538101e-05
1.429149e+01	-3.579091e-05
1.437404e+01	-3.620556e-05
1.445706e+01	-3.662501e-05
1.454057e+01	-3.704932e-05
1.462455e+01	-3.747854e-05
1.470902e+01	-3.791274e-05
1.479398e+01	-3.835197e-05
1.487943e+01	-3.879628e-05
1.496537e+01	-3.924575e-05
1.505181e+01	-3.970042e-05
1.513875e+01	-4.016036e-05
1.522619e+01	-4.062562e-05
1.531414e+01	-4.109628e-05
1.540259e+01	-4.157239e-05
1.549156e+01	-4.205401e-05
1.558103e+01	-4.254122e-05
1.567103e+01	-4.303407e-05
1.576155e+01	-4.353263e-05
1.585258e+01	-4.403696e-05
1.594415e+01	-4.454714e-05
1.603624e+01	-4.506323e-05
1.612886e+01	-4.558530e-05
1.622202e+01	-4.611341e-05
1.631572e+01	-4.664765e-05
1.640996e+01	-4.718807e-05
1.650474e+01	-4.773475e-05
1.660008e+01	-4.828777e-05
1.669596e+01	-4.884720e-05
1.679239e+01	-4.941310e-05
1.688938e+01	-4.998556e-05
1.698694e+01	-5.056466e-05
1.708505e+01	-5.115046e-05
1.718373e+01	-5.174305e-05
1.728299e+01	-5.234250e-05
1.738281e+01	-5.294890e-05
1.748322e+01	-5.356232e-05
1.758420e+01	-5.418285e-05
1.768576e+01	-5.481057e-05
1.778792e+01	-5.544557e-05
1.789066e+01	-5.608791e-05
1.799399e+01	-5.673770e-05
1.809793e+01	-5.739502e-05
1.820246e+01	-5.805995e-05
1.830760e+01	-5.873259e-05
1.841334e+01	-5.941302e-05
1.851969e+01	-6.010133e-05
1.862666e+01	-6.079762e-05
1.873425e+01	-6.150197e-05
1.884246e+01	-6.221448e-05
1.895129e+01	-6.293525e-05
1.906075e+01	-6.366437e-05
1.917085e+01	-6.440193e-05
1.928158e+01	-6.514804e-05
1.939295e+01	-6.590279e-05
1.950496e+01	-6.666629e-05
1.961762e+01	-6.743863e-05
1.973093e+01	-6.821992e-05
1.984490e+01	-6.901026e-05
1.995952e+01	-6.980976e-05
2.007480e+01	-7.061851e-05
2.019076e+01	-7.143664e-05
2.030738e+01	-7.226425e-05
2.042467e+01	-7.310144e-05
2.054264e+01	-7.394834e-05
2.066130e+01	-7.480504e-05
2.078064e+01	-7.567167e-05
2.090066e+01	-7.654834e-05
2.102139e+01	-7.743517e-05
2.114280e+01	-7.833227e-05
2.126492e+01	-7.923976e-05
2.138775e+01	-8.015777e-05
2.151128e+01	-8.108641e-05
2.163553e+01	-8.202581e-05
2.176050e+01	-8.297609e-05
2.188619e+01	-8.393738e-05
2.201260e+01	-8.490981e-05
2.213974e+01	-8.589351e-05
2.226762e+01	-8.688860e-05
2.239624e+01	-8.789521e-05
2.252560e+01	-8.891350e-05
2.265571e+01	-8.994357e-05
2.278656e+01	-9.098558e-05
2.291818e+01	-9.203966e-05
2.305055e+01	-9.310596e-05
2.318369e+01	-9.418461e-05
2.331760e+01	-9.527575e-05
2.345228e+01	-9.637953e-05
2.358774e+01	-9.749610e-05
2.372398e+01	-9.862561e-05
2.386101e+01	-9.976820e-05
2.399883e+01	-1.009240e-04
2.413745e+01	-1.020933e-04
2.427686e+01	-1.032760e-04
2.441709e+01	-1.044725e-04
2.455812e+01	-1.056828e-04
2.469997e+01	-1.069072e-04
2.484263e+01	-1.081457e-04
2.498612e+01	-1.093986e-04
2.513044e+01	-1.106660e-04
2.527559e+01	-1.119481e-04
2.542158e+01	-1.132450e-04
2.556842e+01	-1.145569e-04
2.571610e+01	-1.158841e-04
2.586463e+01	-1.172266e-04
2.601403e+01	-1.185847e-04
2.616428e+01	-1.199585e-04
2.631541e+01	-1.213483e-04
2.646740e+01	-1.227541e-04
2.662028e+01	-1.241762e-04
2.677404e+01	-1.256148e-04
2.692868e+01	-1.270701e-04
2.708422e+01	-1.285422e-04
2.724066e+01	-1.300314e-04
2.739800e+01	-1.315378e-04
2.755625e+01	-1.330617e-04
2.771541e+01	-1.346032e-04
2.787550e+01	-1.361626e-04
2.803650e+01	-1.377401e-04
2.819844e+01	-1.393358e-04
2.836131e+01	-1.409500e-04
2.852513e+01	-1.425829e-04
2.868989e+01	-1.442348e-04
2.885560e+01	-1.459057e-04
2.902227e+01	-1.475961e-04
2.918990e+01	-1.493060e-04
2.935850e+01	-1.510357e-04
2.952807e+01	-1.527855e-04
2.969863e+01	-1.545555e-04
2.987016e+01	-1.563460e-04
3.004269e+01	-1.581573e-04
3.021622e+01	-1.599896e-04
3.039075e+01	-1.618431e-04
3.056628e+01	-1.637180e-04
3.074283e+01	-1.656147e-04
3.092040e+01	-1.675334e-04
3.109900e+01	-1.694742e-04
3.127862e+01	-1.714376e-04
3.145929e+01	-1.734237e-04
3.164099e+01	-1.754328e-04
3.182375e+01	-1.774652e-04
3.200756e+01	-1.795212e-04
3.219244e+01	-1.816009e-04
3.237838e+01	-1.837048e-04
3.256540e+01	-1.858330e-04
3.275349e+01	-1.879859e-04
3.294268e+01	-1.901637e-04
3.313295e+01	-1.923668e-04
3.332433e+01	-1.945953e-04
3.351681e+01	-1.968497e-04
3.371040e+01	-1.991302e-04
3.390511e+01	-2.014372e-04
3.410094e+01	-2.037708e-04
3.429791e+01	-2.061315e-04
3.449601e+01	-2.085195e-04
3.469526e+01	-2.109352e-04
3.489566e+01	-2.133789e-04
3.509721e+01	-2.158509e-04
3.529993e+01	-2.183515e-04
3.550382e+01	-2.208811e-04
3.570889e+01	-2.234400e-04
3.591515e+01	-2.260286e-04
3.612259e+01	-2.286471e-04
3.633123e+01	-2.312960e-04
3.654108e+01	-2.339756e-04
3.675214e+01	-2.366862e-04
3.696442e+01	-2.394282e-04
3.717792e+01	-2.422019e-04
3.739266e+01	-2.450078e-04
3.760864e+01	-2.478462e-04
3.782587e+01	-2.507175e-04
3.804435e+01	-2.536221e-04
3.826409e+01	-2.565602e-04
3.848510e+01	-2.595325e-04
3.870739e+01	-2.625391e-04
3.893096e+01	-2.655806e-04
3.915583e+01	-2.686574e-04
3.938199e+01	-2.717697e-04
3.960946e+01	-2.749182e-04
3.983824e+01	-2.781031e-04
4.006834e+01	-2.813249e-04
4.029978e+01	-2.845840e-04
4.053255e+01	-2.878809e-04
4.076666e+01	-2.912159e-04
4.100213e+01	-2.945896e-04
4.123896e+01	-2.980024e-04
4.147715e+01	-3.014547e-04
4.171672e+01	-3.049471e-04
4.195767e+01	-3.084798e-04
4.220002e+01	-3.120535e-04
4.244377e+01	-3.156686e-04
4.268892e+01	-3.193256e-04
4.293549e+01	-3.230249e-04
4.318348e+01	-3.267671e-04
4.343291e+01	-3.305527e-04
4.368377e+01	-3.343821e-04
4.393609e+01	-3.382558e-04
4.418986e+01	-3.421745e-04
4.444510e+01	-3.461385e-04
4.470182e+01	-3.501484e-04
4.496001e+01	-3.542048e-04
4.521970e+01	-3.583082e-04
4.548089e+01	-3.624592e-04
4.574358e+01	-3.666582e-04
4.600779e+01	-3.709058e-04
4.627353e+01	-3.752027e-04
4.654081e+01	-3.795493e-04
4.680963e+01	-3.839463e-04
4.708000e+01	-3.883942e-04
4.735193e+01	-3.928937e-04
4.762543e+01	-3.974453e-04
4.790051e+01	-4.020496e-04
4.817719e+01	-4.067072e-04
4.845545e+01	-4.114188e-04
4.873533e+01	-4.161850e-04
4.901682e+01	-4.210064e-04
4.929994e+01	-4.258836e-04
4.958470e+01	-4.308173e-04
4.987110e+01	-4.358082e-04
5.015915e+01	-4.408569e-04
5.044887e+01	-4.459641e-04
5.074026e+01	-4.511305e-04
5.103333e+01	-4.563567e-04
5.132810e+01	-4.616434e-04
5.162457e+01	-4.669914e-04
5.192275e+01	-4.724013e-04
5.222265e+01	-4.778739e-04
5.252429e+01	-4.834099e-04
5.282767e+01	-4.890100e-04
5.313280e+01	-4.946750e-04
5.343969e+01	-5.004056e-04
5.374836e+01	-5.062026e-04
5.405880e+01	-5.120668e-04
5.437105e+01	-5.179989e-04
5.468509e+01	-5.239997e-04
5.500095e+01	-5.300700e-04
5.531863e+01	-5.362106e-04
5.563815e+01	-5.424224e-04
5.595951e+01	-5.487061e-04
5.628273e+01	-5.550626e-04
5.660782e+01	-5.614927e-04
5.693479e+01	-5.679973e-04
5.726364e+01	-5.745773e-04
5.759439e+01	-5.812335e-04
5.792705e+01	-5.879668e-04
5.826164e+01	-5.947781e-04
5.859815e+01	-6.016683e-04
5.893662e+01	-6.086383e-04
5.927703e+01	-6.156890e-04
5.961941e+01	-6.228214e-04
5.996377e+01	-6.300365e-04
6.031012e+01	-6.373351e-04
6.065847e+01	-6.447182e-04
6.100883e+01	-6.521869e-04
6.136121e+01	-6.597421e-04
6.171563e+01	-6.673848e-04
6.207210e+01	-6.751160e-04
6.243063e+01	-6.829368e-04
6.279122e+01	-6.908482e-04
6.315390e+01	-6.988512e-04
6.351868e+01	-7.069470e-04
6.388556e+01	-7.151365e-04
6.425456e+01	-7.234208e-04
6.462569e+01	-7.318011e-04
6.499897e+01	-7.402785e-04
6.537440e+01	-7.488541e-04
6.575200e+01	-7.575291e-04
6.613178e+01	-7.663045e-04
6.651375e+01	-7.751815e-04
6.689793e+01	-7.841614e-04
6.728433e+01	-7.932453e-04
6.767297e+01	-8.024344e-04
6.806384e+01	-8.117300e-04
6.845698e+01	-8.211332e-04
6.885238e+01	-8.306453e-04
6.925007e+01	-8.402677e-04
6.965005e+01	-8.500014e-04
7.005235e+01	-8.598480e-04
7.045697e+01	-8.698085e-04
7.086393e+01	-8.798845e-04
7.127323e+01	-8.900771e-04
7.168490e+01	-9.003879e-04
7.209895e+01	-9.108180e-04
7.251539e+01	-9.213690e-04
7.293424e+01	-9.320421e-04
7.335551e+01	-9.428389e-04
7.377920e+01	-9.537608e-04
7.420535e+01	-9.648091e-04
7.463396e+01	-9.759854e-04
7.506504e+01	-9.872912e-04
7.549861e+01	-9.987279e-04
7.593469e+01	-1.010297e-03
7.637328e+01	-1.022000e-03
7.681441e+01	-1.033839e-03
7.725809e+01	-1.045815e-03
7.770433e+01	-1.057930e-03
7.815315e+01	-1.070184e-03
7.860456e+01	-1.082581e-03
7.905857e+01	-1.095122e-03
7.951521e+01	-1.107807e-03
7.997449e+01	-1.120640e-03
8.043642e+01	-1.133621e-03
8.090102e+01	-1.146753e-03
8.136830e+01	-1.160036e-03
8.183828e+01	-1.173474e-03
8.231097e+01	-1.187067e-03
8.278640e+01	-1.200818e-03
8.326457e+01	-1.214727e-03
8.374550e+01	-1.228798e-03
8.422921e+01	-1.243032e-03
8.471572e+01	-1.257431e-03
8.520503e+01	-1.271997e-03
8.569717e+01	-1.286731e-03
8.619215e+01	-1.301636e-03
8.669000e+01	-1.316713e-03
8.719071e+01	-1.331966e-03
8.769432e+01	-1.347394e-03
8.820084e+01	-1.363002e-03
8.871029e+01	-1.378790e-03
8.922267e+01	-1.394761e-03
8.973802e+01	-1.410917e-03
9.025634e+01	-1.427260e-03
9.077766e+01	-1.443793e-03
9.130199e+01	-1.460517e-03
9.182935e+01	-1.477434e-03
9.235975e+01	-1.494548e-03
9.289321e+01	-1.511860e-03
9.342976e+01	-1.529372e-03
9.396941e+01	-1.547087e-03
9.451217e+01	-1.565007e-03
9.505807e+01	-1.583135e-03
9.560712e+01	-1.601472e-03
9.615934e+01	-1.620022e-03
9.671476e+01	-1.638787e-03
9.727338e+01	-1.657769e-03
9.783522e+01	-1.676971e-03
9.840032e+01	-1.696396e-03
9.896867e+01	-1.716045e-03
9.954031e+01	-1.735922e-03
1.001153e+02	-1.756029e-03
1.006935e+02	-1.776369e-03
1.012751e+02	-1.796944e-03
1.018601e+02	-1.817758e-03
1.024484e+02	-1.838813e-03
1.030402e+02	-1.860111e-03
1.036353e+02	-1.881657e-03
1.042339e+02	-1.903451e-03
1.048360e+02	-1.925498e-03
1.054415e+02	-1.947801e-03
1.060505e+02	-1.970362e-03
1.066631e+02	-1.993183e-03
1.072791e+02	-2.016270e-03
1.078988e+02	-2.039623e-03
1.085220e+02	-2.063247e-03
1.091488e+02	-2.087145e-03
1.097793e+02	-2.111319e-03
1.104133e+02	-2.135773e-03
1.110511e+02	-2.160510e-03
1.116925e+02	-2.185534e-03
1.123376e+02	-2.210848e-03
1.129865e+02	-2.236454e-03
1.136391e+02	-2.262358e-03
1.142955e+02	-2.288561e-03
1.149556e+02	-2.315067e-03
1.156196e+02	-2.341881e-03
1.162874e+02	-2.369005e-03
1.169591e+02	-2.396443e-03
1.176347e+02	-2.424198e-03
1.183141e+02	-2.452275e-03
1.189975e+02	-2.480677e-03
1.196848e+02	-2.509408e-03
1.203761e+02	-2.538472e-03
1.210714e+02	-2.567872e-03
1.217707e+02	-2.597613e-03
1.224740e+02	-2.627698e-03
1.231814e+02	-2.658131e-03
1.238929e+02	-2.688917e-03
1.246085e+02	-2.720059e-03
1.253283e+02	-2.751561e-03
1.260522e+02	-2.783429e-03
1.267802e+02	-2.815665e-03
1.275125e+02	-2.848274e-03
1.282490e+02	-2.881261e-03
1.289898e+02	-2.914630e-03
1.297348e+02	-2.948386e-03
1.304842e+02	-2.982532e-03
1.312378e+02	-3.017073e-03
1.319959e+02	-3.052014e-03
1.327583e+02	-3.087360e-03
1.335251e+02	-3.123115e-03
1.342963e+02	-3.159284e-03
1.350720e+02	-3.195872e-03
1.358522e+02	-3.232883e-03
1.366368e+02	-3.270323e-03
1.374260e+02	-3.308196e-03
1.382198e+02	-3.346507e-03
1.390182e+02	-3.385262e-03
1.398211e+02	-3.424466e-03
1.406287e+02	-3.464124e-03
1.414410e+02	-3.504240e-03
1.422579e+02	-3.544821e-03
1.430796e+02	-3.585872e-03
1.439060e+02	-3.627398e-03
1.447372e+02	-3.669404e-03
1.455732e+02	-3.711897e-03
1.464141e+02	-3.754882e-03
1.472597e+02	-3.798364e-03
1.481103e+02	-3.842349e-03
1.489658e+02	-3.886844e-03
1.498262e+02	-3.931854e-03
1.506916e+02	-3.977384e-03
1.515620e+02	-4.023442e-03
1.524374e+02	-4.070033e-03
1.533179e+02	-4.117163e-03
1.542034e+02	-4.164838e-03
1.550941e+02	-4.213066e-03
1.559899e+02	-4.261851e-03
1.568909e+02	-4.311201e-03
1.577971e+02	-4.361123e-03
1.587085e+02	-4.411622e-03
1.596252e+02	-4.462705e-03
1.605472e+02	-4.514380e-03
1.614745e+02	-4.566652e-03
1.624072e+02	-4.619530e-03
1.633453e+02	-4.673020e-03
1.642887e+02	-4.727128e-03
1.652377e+02	-4.781863e-03
1.661921e+02	-4.837231e-03
1.671520e+02	-4.893240e-03
1.681175e+02	-4.949897e-03
1.690885e+02	-5.007210e-03
1.700651e+02	-5.065186e-03
1.710474e+02	-5.123833e-03
1.720354e+02	-5.183158e-03
1.730291e+02	-5.243170e-03
1.740285e+02	-5.303877e-03
1.750337e+02	-5.365285e-03
1.760446e+02	-5.427405e-03
1.770615e+02	-5.490243e-03
1.780842e+02	-5.553808e-03
1.791128e+02	-5.618108e-03
1.801473e+02	-5.683153e-03
1.811878e+02	-5.748950e-03
1.822344e+02	-5.815508e-03
1.832870e+02	-5.882837e-03
1.843456e+02	-5.950944e-03
1.854104e+02	-6.019839e-03
1.864813e+02	-6.089532e-03
1.875584e+02	-6.160031e-03
1.886418e+02	-6.231345e-03
1.897313e+02	-6.303484e-03
1.908272e+02	-6.376458e-03
1.919294e+02	-6.450276e-03
1.930380e+02	-6.524947e-03
1.941530e+02	-6.600483e-03
1.952744e+02	-6.676892e-03
1.964023e+02	-6.754186e-03
1.975367e+02	-6.832373e-03
1.986777e+02	-6.911465e-03
1.998252e+02	-6.991471e-03
2.009794e+02	-7.072403e-03
2.021403e+02	-7.154271e-03
2.033078e+02	-7.237086e-03
2.044821e+02	-7.320858e-03
2.056632e+02	-7.405600e-03
2.068511e+02	-7.491321e-03
2.080459e+02	-7.578034e-03
2.092475e+02	-7.665750e-03
2.104561e+02	-7.754480e-03
2.116717e+02	-7.844237e-03
2.128943e+02	-7.935031e-03
2.141240e+02	-8.026875e-03
2.153608e+02	-8.119781e-03
2.166047e+02	-8.213762e-03
2.178558e+02	-8.308829e-03
2.191141e+02	-8.404996e-03
2.203797e+02	-8.502274e-03
2.216526e+02	-8.600677e-03
2.229329e+02	-8.700218e-03
2.242205e+02	-8.800910e-03
2.255156e+02	-8.902766e-03
2.268182e+02	-9.005800e-03
2.281283e+02	-9.110024e-03
2.294459e+02	-9.215454e-03
2.307712e+02	-9.322103e-03
2.321041e+02	-9.429984e-03
2.334447e+02	-9.539112e-03
2.347931e+02	-9.649502e-03
2.361493e+02	-9.761168e-03
2.375133e+02	-9.874125e-03
2.388851e+02	-9.988387e-03
2.402649e+02	-1.010397e-02
2.416527e+02	-1.022089e-02
2.430484e+02	-1.033916e-02
2.444523e+02	-1.045880e-02
2.458642e+02	-1.057982e-02
2.472843e+02	-1.070223e-02
2.487126e+02	-1.082607e-02
2.501492e+02	-1.095133e-02
2.515940e+02	-1.107804e-02
2.530472e+02	-1.120622e-02
2.545088e+02	-1.133588e-02
2.559789e+02	-1.146703e-02
2.574574e+02	-1.159970e-02
2.589444e+02	-1.173391e-02
2.604401e+02	-1.186966e-02
2.619444e+02	-1.200698e-02
2.634574e+02	-1.214589e-02
2.649791e+02	-1.228640e-02
2.665096e+02	-1.242854e-02
2.680489e+02	-1.257232e-02
2.695972e+02	-1.271776e-02
2.711544e+02	-1.286488e-02
2.727205e+02	-1.301370e-02
2.742958e+02	-1.316424e-02
2.758801e+02	-1.331651e-02
2.774736e+02	-1.347055e-02
2.790762e+02	-1.362636e-02
2.806882e+02	-1.378398e-02
2.823094e+02	-1.394341e-02
2.839400e+02	-1.410468e-02
2.855800e+02	-1.426782e-02
2.872295e+02	-1.443284e-02
2.888886e+02	-1.459977e-02
2.905572e+02	-1.476862e-02
2.922354e+02	-1.493942e-02
2.939234e+02	-1.511220e-02
2.956211e+02	-1.528697e-02
2.973286e+02	-1.546376e-02
2.990459e+02	-1.564258e-02
3.007732e+02	-1.582348e-02
3.025104e+02	-1.600646e-02
3.042577e+02	-1.619155e-02
3.060151e+02	-1.637878e-02
3.077826e+02	-1.656817e-02
3.095604e+02	-1.675974e-02
3.113484e+02	-1.695353e-02
3.131467e+02	-1.714955e-02
3.149554e+02	-1.734783e-02
3.167746e+02	-1.754840e-02
3.186043e+02	-1.775129e-02
3.204445e+02	-1.795652e-02
3.222954e+02	-1.816411e-02
3.241570e+02	-1.837410e-02
3.260293e+02	-1.858651e-02
3.279124e+02	-1.880137e-02
3.298064e+02	-1.901871e-02
3.317114e+02	-1.923856e-02
3.336273e+02	-1.946094e-02
3.355544e+02	-1.968589e-02
3.374925e+02	-1.991343e-02
3.394418e+02	-2.014360e-02
3.414024e+02	-2.037642e-02
3.433744e+02	-2.061192e-02
3.453577e+02	-2.085014e-02
3.473525e+02	-2.109111e-02
3.493588e+02	-2.133485e-02
3.513766e+02	-2.158141e-02
3.534062e+02	-2.183080e-02
3.554474e+02	-2.208307e-02
3.575005e+02	-2.233825e-02
3.595654e+02	-2.259637e-02
3.616422e+02	-2.285746e-02
3.637311e+02	-2.312157e-02
3.658320e+02	-2.338871e-02
3.679450e+02	-2.365894e-02
3.700702e+02	-2.393227e-02
3.722077e+02	-2.420876e-02
3.743576e+02	-2.448843e-02
3.765199e+02	-2.477132e-02
3.786946e+02	-2.505748e-02
3.808820e+02	-2.534692e-02
3.830819e+02	-2.563970e-02
3.852946e+02	-2.593586e-02
3.875200e+02	-2.623542e-02
3.897583e+02	-2.653843e-02
3.920096e+02	-2.684494e-02
3.942738e+02	-2.715497e-02
3.965511e+02	-2.746857e-02
3.988416e+02	-2.778578e-02
4.011452e+02	-2.810664e-02
4.034622e+02	-2.843119e-02
4.057926e+02	-2.875948e-02
4.081365e+02	-2.909155e-02
4.104938e+02	-2.942743e-02
4.128648e+02	-2.976719e-02
4.152495e+02	-3.011085e-02
4.176480e+02	-3.045846e-02
4.200603e+02	-3.081008e-02
4.224866e+02	-3.116574e-02
4.249268e+02	-3.152549e-02
4.273812e+02	-3.188937e-02
4.298497e+02	-3.225744e-02
4.323325e+02	-3.262975e-02
4.348297e+02	-3.300633e-02
4.373412e+02	-3.338724e-02
4.398673e+02	-3.377254e-02
4.424079e+02	-3.416226e-02
4.449633e+02	-3.455646e-02
4.475334e+02	-3.495519e-02
4.501183e+02	-3.535850e-02
4.527182e+02	-3.576645e-02
4.553330e+02	-3.617908e-02
4.579630e+02	-3.659645e-02
4.606082e+02	-3.701862e-02
4.632687e+02	-3.744564e-02
4.659445e+02	-3.787756e-02
4.686358e+02	-3.831444e-02
4.713426e+02	-3.875634e-02
4.740650e+02	-3.920331e-02
4.768032e+02	-3.965541e-02
4.795572e+02	-4.011271e-02
4.823271e+02	-4.057525e-02
4.851130e+02	-4.104310e-02
4.879150e+02	-4.151631e-02
4.907332e+02	-4.199496e-02
4.935676e+02	-4.247910e-02
4.964185e+02	-4.296879e-02
4.992858e+02	-4.346410e-02
5.021696e+02	-4.396509e-02
5.050701e+02	-4.447182e-02
5.079874e+02	-4.498437e-02
5.109215e+02	-4.550279e-02
5.138726e+02	-4.602715e-02
5.168407e+02	-4.655753e-02
5.198259e+02	-4.709398e-02
5.228284e+02	-4.763658e-02
5.258482e+02	-4.818539e-02
5.288855e+02	-4.874050e-02
5.319403e+02	-4.930196e-02
5.350128e+02	-4.986985e-02
5.381030e+02	-5.044424e-02
5.412111e+02	-5.102522e-02
5.443371e+02	-5.161284e-02
5.474812e+02	-5.220719e-02
5.506434e+02	-5.280834e-02
5.538239e+02	-5.341637e-02
5.570228e+02	-5.403136e-02
5.602401e+02	-5.465338e-02
5.634760e+02	-5.528252e-02
5.667306e+02	-5.591886e-02
5.700040e+02	-5.656247e-02
5.732964e+02	-5.721344e-02
5.766077e+02	-5.787185e-02
5.799382e+02	-5.853779e-02
5.832879e+02	-5.921134e-02
5.866569e+02	-5.989259e-02
5.900454e+02	-6.058161e-02
5.934535e+02	-6.127851e-02
5.968813e+02	-6.198337e-02
6.003288e+02	-6.269628e-02
6.037963e+02	-6.341733e-02
6.072838e+02	-6.414660e-02
6.107914e+02	-6.488420e-02
6.143194e+02	-6.563022e-02
6.178676e+02	-6.638475e-02
6.214364e+02	-6.714789e-02
6.250258e+02	-6.791973e-02
6.286359e+02	-6.870038e-02
6.322669e+02	-6.948992e-02
6.359189e+02	-7.028846e-02
6.395919e+02	-7.109611e-02
6.432862e+02	-7.191296e-02
6.470017e+02	-7.273911e-02
6.507388e+02	-7.357468e-02
6.544974e+02	-7.441976e-02
6.582778e+02	-7.527446e-02
6.620800e+02	-7.613890e-02
6.659041e+02	-7.701317e-02
6.697504e+02	-7.789739e-02
6.736188e+02	-7.879167e-02
6.775096e+02	-7.969612e-02
6.814229e+02	-8.061086e-02
6.853587e+02	-8.153600e-02
6.893173e+02	-8.247165e-02
6.932988e+02	-8.341794e-02
6.973033e+02	-8.437498e-02
7.013309e+02	-8.534289e-02
