Frequency(Hz)	Magnitude(dB)
1.000000e+01	-2.236508e+00
1.005776e+01	-2.256704e+00
1.011585e+01	-2.277122e+00
1.017428e+01	-2.297185e+00
1.023305e+01	-2.318049e+00
1.029215e+01	-2.338846e+00
1.035160e+01	-2.359897e+00
1.041139e+01	-2.380839e+00
1.047153e+01	-2.401792e+00
1.053201e+01	-2.423377e+00
1.059284e+01	-2.444809e+00
1.065403e+01	-2.466321e+00
1.071556e+01	-2.488176e+00
1.077746e+01	-2.509874e+00
1.083971e+01	-2.532081e+00
1.090232e+01	-2.554378e+00
1.096529e+01	-2.576343e+00
1.102862e+01	-2.599030e+00
1.109232e+01	-2.621582e+00
1.115639e+01	-2.644473e+00
1.122083e+01	-2.667437e+00
1.128564e+01	-2.690243e+00
1.135083e+01	-2.713456e+00
1.141639e+01	-2.736815e+00
1.148233e+01	-2.760357e+00
1.154865e+01	-2.783916e+00
1.161536e+01	-2.807487e+00
1.168245e+01	-2.831308e+00
1.174992e+01	-2.855505e+00
1.181779e+01	-2.879221e+00
1.188605e+01	-2.903917e+00
1.195470e+01	-2.928446e+00
1.202375e+01	-2.952860e+00
1.209320e+01	-2.977860e+00
1.216305e+01	-3.002678e+00
1.223330e+01	-3.027691e+00
1.230396e+01	-3.052990e+00
1.237503e+01	-3.077927e+00
1.244651e+01	-3.103549e+00
1.251840e+01	-3.129430e+00
1.259070e+01	-3.154898e+00
1.266343e+01	-3.181009e+00
1.273657e+01	-3.207080e+00
1.281014e+01	-3.233305e+00
1.288413e+01	-3.259587e+00
1.295855e+01	-3.286036e+00
1.303339e+01	-3.312706e+00
1.310867e+01	-3.339250e+00
1.318439e+01	-3.366357e+00
1.326054e+01	-3.393337e+00
1.333713e+01	-3.420660e+00
1.341417e+01	-3.448031e+00
1.349165e+01	-3.475671e+00
1.356958e+01	-3.503096e+00
1.364795e+01	-3.530469e+00
1.372678e+01	-3.558741e+00
1.380607e+01	-3.586601e+00
1.388581e+01	-3.615091e+00
1.396602e+01	-3.643220e+00
1.404668e+01	-3.671726e+00
1.412782e+01	-3.700429e+00
1.420942e+01	-3.729134e+00
1.429149e+01	-3.758061e+00
1.437404e+01	-3.787189e+00
1.445706e+01	-3.816046e+00
1.454057e+01	-3.845348e+00
1.462455e+01	-3.874830e+00
1.470902e+01	-3.904492e+00
1.479398e+01	-3.934557e+00
1.487943e+01	-3.964213e+00
1.496537e+01	-3.994216e+00
1.505181e+01	-4.024318e+00
1.513875e+01	-4.054803e+00
1.522619e+01	-4.085115e+00
1.531414e+01	-4.115489e+00
1.540259e+01	-4.146401e+00
1.549156e+01	-4.177259e+00
1.558103e+01	-4.207822e+00
1.567103e+01	-4.239102e+00
1.576155e+01	-4.270824e+00
1.585258e+01	-4.301873e+00
1.594415e+01	-4.333495e+00
1.603624e+01	-4.365127e+00
1.612886e+01	-4.396835e+00
1.622202e+01	-4.428658e+00
1.631572e+01	-4.460676e+00
1.640996e+01	-4.493269e+00
1.650474e+01	-4.525146e+00
1.660008e+01	-4.557918e+00
1.669596e+01	-4.590417e+00
1.679239e+01	-4.622856e+00
1.688938e+01	-4.655802e+00
1.698694e+01	-4.688920e+00
1.708505e+01	-4.722046e+00
1.718373e+01	-4.755040e+00
1.728299e+01	-4.788665e+00
1.738281e+01	-4.822131e+00
1.748322e+01	-4.855652e+00
1.758420e+01	-4.889433e+00
1.768576e+01	-4.923247e+00
1.778792e+01	-4.957125e+00
1.789066e+01	-4.991205e+00
1.799399e+01	-5.025487e+00
1.809793e+01	-5.059886e+00
1.820246e+01	-5.094354e+00
1.830760e+01	-5.128881e+00
1.841334e+01	-5.163729e+00
1.851969e+01	-5.198520e+00
1.862666e+01	-5.233436e+00
1.873425e+01	-5.268412e+00
1.884246e+01	-5.303680e+00
1.895129e+01	-5.339408e+00
1.906075e+01	-5.374803e+00
1.917085e+01	-5.410345e+00
1.928158e+01	-5.445997e+00
1.939295e+01	-5.481752e+00
1.950496e+01	-5.517743e+00
1.961762e+01	-5.553760e+00
1.973093e+01	-5.589949e+00
1.984490e+01	-5.626299e+00
1.995952e+01	-5.662562e+00
2.007480e+01	-5.698783e+00
2.019076e+01	-5.735650e+00
2.030738e+01	-5.772552e+00
2.042467e+01	-5.809476e+00
2.054264e+01	-5.845904e+00
2.066130e+01	-5.882975e+00
2.078064e+01	-5.920172e+00
2.090066e+01	-5.957586e+00
2.102139e+01	-5.994951e+00
2.114280e+01	-6.032536e+00
2.126492e+01	-6.070215e+00
2.138775e+01	-6.107783e+00
2.151128e+01	-6.146008e+00
2.163553e+01	-6.183676e+00
2.176050e+01	-6.221477e+00
2.188619e+01	-6.259655e+00
2.201260e+01	-6.297904e+00
2.213974e+01	-6.336472e+00
2.226762e+01	-6.374971e+00
2.239624e+01	-6.413234e+00
2.252560e+01	-6.451928e+00
2.265571e+01	-6.490747e+00
2.278656e+01	-6.529619e+00
2.291818e+01	-6.568559e+00
2.305055e+01	-6.607294e+00
2.318369e+01	-6.646860e+00
2.331760e+01	-6.686308e+00
2.345228e+01	-6.725250e+00
2.358774e+01	-6.764793e+00
2.372398e+01	-6.804512e+00
2.386101e+01	-6.844178e+00
2.399883e+01	-6.883568e+00
2.413745e+01	-6.923565e+00
2.427686e+01	-6.963461e+00
2.441709e+01	-7.003504e+00
2.455812e+01	-7.043161e+00
2.469997e+01	-7.083729e+00
2.484263e+01	-7.123804e+00
2.498612e+01	-7.164378e+00
2.513044e+01	-7.204835e+00
2.527559e+01	-7.245336e+00
2.542158e+01	-7.285854e+00
2.556842e+01	-7.326877e+00
2.571610e+01	-7.367782e+00
2.586463e+01	-7.408400e+00
2.601403e+01	-7.449507e+00
2.616428e+01	-7.490319e+00
2.631541e+01	-7.531677e+00
2.646740e+01	-7.572788e+00
2.662028e+01	-7.614429e+00
2.677404e+01	-7.655586e+00
2.692868e+01	-7.696865e+00
2.708422e+01	-7.738594e+00
2.724066e+01	-7.780059e+00
2.739800e+01	-7.822465e+00
2.755625e+01	-7.864253e+00
2.771541e+01	-7.906062e+00
2.787550e+01	-7.947581e+00
2.803650e+01	-7.989837e+00
2.819844e+01	-8.031646e+00
2.836131e+01	-8.073815e+00
2.852513e+01	-8.116664e+00
2.868989e+01	-8.158763e+00
2.885560e+01	-8.201130e+00
2.902227e+01	-8.243865e+00
2.918990e+01	-8.286087e+00
2.935850e+01	-8.328840e+00
2.952807e+01	-8.371826e+00
2.969863e+01	-8.414020e+00
2.987016e+01	-8.457082e+00
3.004269e+01	-8.500345e+00
3.021622e+01	-8.543214e+00
3.039075e+01	-8.585881e+00
3.056628e+01	-8.628979e+00
3.074283e+01	-8.672390e+00
3.092040e+01	-8.715727e+00
3.109900e+01	-8.759381e+00
3.127862e+01	-8.802554e+00
3.145929e+01	-8.845935e+00
3.164099e+01	-8.889760e+00
3.182375e+01	-8.933032e+00
3.200756e+01	-8.976597e+00
3.219244e+01	-9.020715e+00
3.237838e+01	-9.064406e+00
3.256540e+01	-9.108106e+00
3.275349e+01	-9.151758e+00
3.294268e+01	-9.195934e+00
3.313295e+01	-9.240324e+00
3.332433e+01	-9.283924e+00
3.351681e+01	-9.328140e+00
3.371040e+01	-9.372489e+00
3.390511e+01	-9.417015e+00
3.410094e+01	-9.460975e+00
3.429791e+01	-9.505693e+00
3.449601e+01	-9.550195e+00
3.469526e+01	-9.594708e+00
3.489566e+01	-9.639259e+00
3.509721e+01	-9.683559e+00
3.529993e+01	-9.728123e+00
3.550382e+01	-9.773158e+00
3.570889e+01	-9.817673e+00
3.591515e+01	-9.862438e+00
3.612259e+01	-9.906959e+00
3.633123e+01	-9.951897e+00
3.654108e+01	-9.997325e+00
3.675214e+01	-1.004251e+01
3.696442e+01	-1.008727e+01
3.717792e+01	-1.013296e+01
3.739266e+01	-1.017767e+01
3.760864e+01	-1.022263e+01
3.782587e+01	-1.026861e+01
3.804435e+01	-1.031341e+01
3.826409e+01	-1.035930e+01
3.848510e+01	-1.040464e+01
3.870739e+01	-1.044979e+01
3.893096e+01	-1.049498e+01
3.915583e+01	-1.054132e+01
3.938199e+01	-1.058679e+01
3.960946e+01	-1.063203e+01
3.983824e+01	-1.067828e+01
4.006834e+01	-1.072429e+01
4.029978e+01	-1.076965e+01
4.053255e+01	-1.081580e+01
4.076666e+01	-1.086180e+01
4.100213e+01	-1.090775e+01
4.123896e+01	-1.095369e+01
4.147715e+01	-1.099998e+01
4.171672e+01	-1.104595e+01
4.195767e+01	-1.109190e+01
4.220002e+01	-1.113733e+01
4.244377e+01	-1.118470e+01
4.268892e+01	-1.123000e+01
4.293549e+01	-1.127657e+01
4.318348e+01	-1.132339e+01
4.343291e+01	-1.136909e+01
4.368377e+01	-1.141589e+01
4.393609e+01	-1.146233e+01
4.418986e+01	-1.150813e+01
4.444510e+01	-1.155497e+01
4.470182e+01	-1.160175e+01
4.496001e+01	-1.164854e+01
4.521970e+01	-1.169507e+01
4.548089e+01	-1.174224e+01
4.574358e+01	-1.178857e+01
4.600779e+01	-1.183471e+01
4.627353e+01	-1.188127e+01
4.654081e+01	-1.192834e+01
4.680963e+01	-1.197522e+01
4.708000e+01	-1.202174e+01
4.735193e+01	-1.206944e+01
4.762543e+01	-1.211571e+01
4.790051e+01	-1.216240e+01
4.817719e+01	-1.221030e+01
4.845545e+01	-1.225761e+01
4.873533e+01	-1.230435e+01
4.901682e+01	-1.235139e+01
4.929994e+01	-1.239811e+01
4.958470e+01	-1.244579e+01
4.987110e+01	-1.249287e+01
5.015915e+01	-1.253984e+01
5.044887e+01	-1.258714e+01
5.074026e+01	-1.263415e+01
5.103333e+01	-1.268217e+01
5.132810e+01	-1.272966e+01
5.162457e+01	-1.277645e+01
5.192275e+01	-1.282403e+01
5.222265e+01	-1.287046e+01
5.252429e+01	-1.291866e+01
5.282767e+01	-1.296716e+01
5.313280e+01	-1.301359e+01
5.343969e+01	-1.306105e+01
5.374836e+01	-1.310832e+01
5.405880e+01	-1.315641e+01
5.437105e+01	-1.320490e+01
5.468509e+01	-1.325207e+01
5.500095e+01	-1.330025e+01
5.531863e+01	-1.334814e+01
5.563815e+01	-1.339460e+01
5.595951e+01	-1.344341e+01
5.628273e+01	-1.349097e+01
5.660782e+01	-1.353776e+01
5.693479e+01	-1.358598e+01
5.726364e+01	-1.363385e+01
5.759439e+01	-1.368226e+01
5.792705e+01	-1.373040e+01
5.826164e+01	-1.377787e+01
5.859815e+01	-1.382545e+01
5.893662e+01	-1.387366e+01
5.927703e+01	-1.392141e+01
5.961941e+01	-1.396962e+01
5.996377e+01	-1.401707e+01
6.031012e+01	-1.406592e+01
6.065847e+01	-1.411336e+01
6.100883e+01	-1.416150e+01
6.136121e+01	-1.420910e+01
6.171563e+01	-1.425804e+01
6.207210e+01	-1.430656e+01
6.243063e+01	-1.435466e+01
6.279122e+01	-1.440328e+01
6.315390e+01	-1.445015e+01
6.351868e+01	-1.449903e+01
6.388556e+01	-1.454788e+01
6.425456e+01	-1.459570e+01
6.462569e+01	-1.464475e+01
6.499897e+01	-1.469144e+01
6.537440e+01	-1.474020e+01
6.575200e+01	-1.479025e+01
6.613178e+01	-1.483673e+01
6.651375e+01	-1.488692e+01
6.689793e+01	-1.493502e+01
6.728433e+01	-1.498218e+01
6.767297e+01	-1.503076e+01
6.806384e+01	-1.507963e+01
6.845698e+01	-1.512868e+01
6.885238e+01	-1.517771e+01
6.925007e+01	-1.522538e+01
6.965005e+01	-1.527383e+01
7.005235e+01	-1.532146e+01
7.045697e+01	-1.537081e+01
7.086393e+01	-1.541848e+01
7.127323e+01	-1.546860e+01
7.168490e+01	-1.551522e+01
7.209895e+01	-1.556506e+01
7.251539e+01	-1.561404e+01
7.293424e+01	-1.566216e+01
7.335551e+01	-1.571110e+01
7.377920e+01	-1.575979e+01
7.420535e+01	-1.580901e+01
7.463396e+01	-1.585674e+01
7.506504e+01	-1.590673e+01
7.549861e+01	-1.595660e+01
7.593469e+01	-1.600374e+01
7.637328e+01	-1.605269e+01
7.681441e+01	-1.610139e+01
7.725809e+01	-1.615012e+01
7.770433e+01	-1.619911e+01
7.815315e+01	-1.624700e+01
7.860456e+01	-1.629629e+01
7.905857e+01	-1.634549e+01
7.951521e+01	-1.639448e+01
7.997449e+01	-1.644327e+01
8.043642e+01	-1.649279e+01
8.090102e+01	-1.654107e+01
8.136830e+01	-1.659031e+01
8.183828e+01	-1.663846e+01
8.231097e+01	-1.668774e+01
8.278640e+01	-1.673740e+01
8.326457e+01	-1.678664e+01
8.374550e+01	-1.683452e+01
8.422921e+01	-1.688349e+01
8.471572e+01	-1.693233e+01
8.520503e+01	-1.698104e+01
8.569717e+01	-1.703108e+01
8.619215e+01	-1.707889e+01
8.669000e+01	-1.712858e+01
8.719071e+01	-1.717734e+01
8.769432e+01	-1.722704e+01
8.820084e+01	-1.727483e+01
8.871029e+01	-1.732578e+01
8.922267e+01	-1.737361e+01
8.973802e+01	-1.742398e+01
9.025634e+01	-1.747333e+01
9.077766e+01	-1.752065e+01
9.130199e+01	-1.757049e+01
9.182935e+01	-1.761967e+01
9.235975e+01	-1.766829e+01
9.289321e+01	-1.771845e+01
9.342976e+01	-1.776751e+01
9.396941e+01	-1.781687e+01
9.451217e+01	-1.786574e+01
9.505807e+01	-1.791493e+01
9.560712e+01	-1.796450e+01
9.615934e+01	-1.801302e+01
9.671476e+01	-1.806272e+01
9.727338e+01	-1.811209e+01
9.783522e+01	-1.816149e+01
9.840032e+01	-1.821005e+01
9.896867e+01	-1.825906e+01
9.954031e+01	-1.830921e+01
1.001153e+02	-1.835840e+01
1.006935e+02	-1.840777e+01
1.012751e+02	-1.845703e+01
1.018601e+02	-1.850640e+01
1.024484e+02	-1.855549e+01
1.030402e+02	-1.860383e+01
1.036353e+02	-1.865434e+01
1.042339e+02	-1.870297e+01
1.048360e+02	-1.875329e+01
1.054415e+02	-1.880220e+01
1.060505e+02	-1.885123e+01
1.066631e+02	-1.890136e+01
1.072791e+02	-1.895121e+01
1.078988e+02	-1.900140e+01
1.085220e+02	-1.904970e+01
1.091488e+02	-1.909924e+01
1.097793e+02	-1.914846e+01
1.104133e+02	-1.919733e+01
1.110511e+02	-1.924783e+01
1.116925e+02	-1.929628e+01
1.123376e+02	-1.934743e+01
1.129865e+02	-1.939403e+01
1.136391e+02	-1.944385e+01
1.142955e+02	-1.949412e+01
1.149556e+02	-1.954374e+01
1.156196e+02	-1.959345e+01
1.162874e+02	-1.964291e+01
1.169591e+02	-1.969194e+01
1.176347e+02	-1.974274e+01
1.183141e+02	-1.979160e+01
1.189975e+02	-1.984290e+01
1.196848e+02	-1.989011e+01
1.203761e+02	-1.993925e+01
1.210714e+02	-1.998885e+01
1.217707e+02	-2.003891e+01
1.224740e+02	-2.008781e+01
1.231814e+02	-2.013819e+01
1.238929e+02	-2.018861e+01
1.246085e+02	-2.023701e+01
1.253283e+02	-2.028693e+01
1.260522e+02	-2.033617e+01
1.267802e+02	-2.038621e+01
1.275125e+02	-2.043656e+01
1.282490e+02	-2.048486e+01
1.289898e+02	-2.053402e+01
1.297348e+02	-2.058432e+01
1.304842e+02	-2.063448e+01
1.312378e+02	-2.068377e+01
1.319959e+02	-2.073477e+01
1.327583e+02	-2.078128e+01
1.335251e+02	-2.083231e+01
1.342963e+02	-2.088173e+01
1.350720e+02	-2.093139e+01
1.358522e+02	-2.097972e+01
1.366368e+02	-2.103053e+01
1.374260e+02	-2.108189e+01
1.382198e+02	-2.112969e+01
1.390182e+02	-2.117866e+01
1.398211e+02	-2.122890e+01
1.406287e+02	-2.127703e+01
1.414410e+02	-2.132901e+01
1.422579e+02	-2.137897e+01
1.430796e+02	-2.142757e+01
1.439060e+02	-2.147897e+01
1.447372e+02	-2.152731e+01
1.455732e+02	-2.157755e+01
1.464141e+02	-2.162689e+01
1.472597e+02	-2.167689e+01
1.481103e+02	-2.172838e+01
1.489658e+02	-2.177708e+01
1.498262e+02	-2.182634e+01
1.506916e+02	-2.187647e+01
1.515620e+02	-2.192443e+01
1.524374e+02	-2.197648e+01
1.533179e+02	-2.202366e+01
1.542034e+02	-2.207559e+01
1.550941e+02	-2.212431e+01
1.559899e+02	-2.217492e+01
1.568909e+02	-2.222304e+01
1.577971e+02	-2.227315e+01
1.587085e+02	-2.232378e+01
1.596252e+02	-2.237358e+01
1.605472e+02	-2.242292e+01
1.614745e+02	-2.247154e+01
1.624072e+02	-2.252154e+01
1.633453e+02	-2.257025e+01
1.642887e+02	-2.262255e+01
1.652377e+02	-2.267312e+01
1.661921e+02	-2.272153e+01
1.671520e+02	-2.277134e+01
1.681175e+02	-2.281911e+01
1.690885e+02	-2.287156e+01
1.700651e+02	-2.292109e+01
1.710474e+02	-2.297012e+01
1.720354e+02	-2.302225e+01
1.730291e+02	-2.306995e+01
1.740285e+02	-2.311783e+01
1.750337e+02	-2.317010e+01
1.760446e+02	-2.322045e+01
1.770615e+02	-2.326750e+01
1.780842e+02	-2.331928e+01
1.791128e+02	-2.337067e+01
1.801473e+02	-2.341554e+01
1.811878e+02	-2.346755e+01
1.822344e+02	-2.351856e+01
1.832870e+02	-2.356861e+01
1.843456e+02	-2.361584e+01
1.854104e+02	-2.366530e+01
1.864813e+02	-2.371673e+01
1.875584e+02	-2.376654e+01
1.886418e+02	-2.381636e+01
1.897313e+02	-2.386721e+01
1.908272e+02	-2.391733e+01
1.919294e+02	-2.396790e+01
1.930380e+02	-2.401661e+01
1.941530e+02	-2.406737e+01
1.952744e+02	-2.411855e+01
1.964023e+02	-2.416488e+01
1.975367e+02	-2.421557e+01
1.986777e+02	-2.426643e+01
1.998252e+02	-2.431380e+01
2.009794e+02	-2.436759e+01
2.021403e+02	-2.441568e+01
2.033078e+02	-2.446470e+01
2.044821e+02	-2.451756e+01
2.056632e+02	-2.456434e+01
2.068511e+02	-2.461610e+01
2.080459e+02	-2.466344e+01
2.092475e+02	-2.471576e+01
2.104561e+02	-2.476543e+01
2.116717e+02	-2.481436e+01
2.128943e+02	-2.486478e+01
2.141240e+02	-2.491284e+01
2.153608e+02	-2.496579e+01
2.166047e+02	-2.501214e+01
2.178558e+02	-2.506368e+01
2.191141e+02	-2.511435e+01
2.203797e+02	-2.516215e+01
2.216526e+02	-2.521331e+01
2.229329e+02	-2.526324e+01
2.242205e+02	-2.531510e+01
2.255156e+02	-2.536690e+01
2.268182e+02	-2.541144e+01
2.281283e+02	-2.546121e+01
2.294459e+02	-2.551338e+01
2.307712e+02	-2.556611e+01
2.321041e+02	-2.561620e+01
2.334447e+02	-2.566234e+01
2.347931e+02	-2.571364e+01
2.361493e+02	-2.576317e+01
2.375133e+02	-2.581544e+01
2.388851e+02	-2.586613e+01
2.402649e+02	-2.591314e+01
2.416527e+02	-2.596399e+01
2.430484e+02	-2.601147e+01
2.444523e+02	-2.606439e+01
2.458642e+02	-2.611004e+01
2.472843e+02	-2.616236e+01
2.487126e+02	-2.621215e+01
2.501492e+02	-2.626673e+01
2.515940e+02	-2.631278e+01
2.530472e+02	-2.636133e+01
2.545088e+02	-2.641125e+01
2.559789e+02	-2.646458e+01
2.574574e+02	-2.651163e+01
2.589444e+02	-2.656278e+01
2.604401e+02	-2.660995e+01
2.619444e+02	-2.665751e+01
2.634574e+02	-2.671016e+01
2.649791e+02	-2.676296e+01
2.665096e+02	-2.681188e+01
2.680489e+02	-2.686026e+01
2.695972e+02	-2.691439e+01
2.711544e+02	-2.696380e+01
2.727205e+02	-2.701230e+01
2.742958e+02	-2.706215e+01
2.758801e+02	-2.711223e+01
2.774736e+02	-2.716123e+01
2.790762e+02	-2.721165e+01
2.806882e+02	-2.726088e+01
2.823094e+02	-2.731055e+01
2.839400e+02	-2.736167e+01
2.855800e+02	-2.741549e+01
2.872295e+02	-2.746409e+01
2.888886e+02	-2.751140e+01
2.905572e+02	-2.756280e+01
2.922354e+02	-2.760960e+01
2.939234e+02	-2.766234e+01
2.956211e+02	-2.771405e+01
2.973286e+02	-2.776058e+01
2.990459e+02	-2.780908e+01
3.007732e+02	-2.786504e+01
3.025104e+02	-2.791063e+01
3.042577e+02	-2.796547e+01
3.060151e+02	-2.801138e+01
3.077826e+02	-2.806643e+01
3.095604e+02	-2.811636e+01
3.113484e+02	-2.816485e+01
3.131467e+02	-2.821129e+01
3.149554e+02	-2.826280e+01
3.167746e+02	-2.831519e+01
3.186043e+02	-2.836391e+01
3.204445e+02	-2.841127e+01
3.222954e+02	-2.846257e+01
3.241570e+02	-2.851466e+01
3.260293e+02	-2.856591e+01
3.279124e+02	-2.860917e+01
3.298064e+02	-2.866787e+01
3.317114e+02	-2.870789e+01
3.336273e+02	-2.876141e+01
3.355544e+02	-2.881171e+01
3.374925e+02	-2.886436e+01
3.394418e+02	-2.891597e+01
3.414024e+02	-2.896261e+01
3.433744e+02	-2.901477e+01
3.453577e+02	-2.906157e+01
3.473525e+02	-2.911283e+01
3.493588e+02	-2.916373e+01
3.513766e+02	-2.921637e+01
3.534062e+02	-2.926654e+01
3.554474e+02	-2.931366e+01
3.575005e+02	-2.936594e+01
3.595654e+02	-2.941454e+01
3.616422e+02	-2.945903e+01
3.637311e+02	-2.951491e+01
3.658320e+02	-2.956444e+01
3.679450e+02	-2.961077e+01
3.700702e+02	-2.966219e+01
3.722077e+02	-2.971355e+01
3.743576e+02	-2.976442e+01
3.765199e+02	-2.981608e+01
3.786946e+02	-2.986432e+01
3.808820e+02	-2.991937e+01
3.830819e+02	-2.996805e+01
3.852946e+02	-3.001640e+01
3.875200e+02	-3.006327e+01
3.897583e+02	-3.011058e+01
3.920096e+02	-3.016892e+01
3.942738e+02	-3.021763e+01
3.965511e+02	-3.026114e+01
3.988416e+02	-3.031489e+01
4.011452e+02	-3.037116e+01
4.034622e+02	-3.041955e+01
4.057926e+02	-3.046596e+01
4.081365e+02	-3.051690e+01
4.104938e+02	-3.056843e+01
4.128648e+02	-3.061913e+01
4.152495e+02	-3.066166e+01
4.176480e+02	-3.071903e+01
4.200603e+02	-3.076836e+01
4.224866e+02	-3.081963e+01
4.249268e+02	-3.086698e+01
4.273812e+02	-3.091780e+01
4.298497e+02	-3.097043e+01
4.323325e+02	-3.101495e+01
4.348297e+02	-3.106820e+01
4.373412e+02	-3.112103e+01
4.398673e+02	-3.117211e+01
4.424079e+02	-3.121796e+01
4.449633e+02	-3.127021e+01
4.475334e+02	-3.131887e+01
4.501183e+02	-3.136702e+01
4.527182e+02	-3.141980e+01
4.553330e+02	-3.147296e+01
4.579630e+02	-3.151826e+01
4.606082e+02	-3.157122e+01
4.632687e+02	-3.162027e+01
4.659445e+02	-3.166962e+01
4.686358e+02	-3.172291e+01
4.713426e+02	-3.177136e+01
4.740650e+02	-3.182495e+01
4.768032e+02	-3.187757e+01
4.795572e+02	-3.192003e+01
4.823271e+02	-3.197299e+01
4.851130e+02	-3.202393e+01
4.879150e+02	-3.207194e+01
4.907332e+02	-3.212206e+01
4.935676e+02	-3.217352e+01
4.964185e+02	-3.222510e+01
4.992858e+02	-3.227357e+01
5.021696e+02	-3.232489e+01
5.050701e+02	-3.237929e+01
5.079874e+02	-3.242324e+01
5.109215e+02	-3.247030e+01
5.138726e+02	-3.252307e+01
5.168407e+02	-3.257849e+01
5.198259e+02	-3.262455e+01
5.228284e+02	-3.267146e+01
5.258482e+02	-3.272394e+01
5.288855e+02	-3.277355e+01
5.319403e+02	-3.282592e+01
5.350128e+02	-3.287797e+01
5.381030e+02	-3.292951e+01
5.412111e+02	-3.296826e+01
5.443371e+02	-3.302623e+01
5.474812e+02	-3.307429e+01
5.506434e+02	-3.313204e+01
5.538239e+02	-3.317953e+01
5.570228e+02	-3.322882e+01
5.602401e+02	-3.328397e+01
5.634760e+02	-3.332847e+01
5.667306e+02	-3.338627e+01
5.700040e+02	-3.343496e+01
5.732964e+02	-3.347821e+01
5.766077e+02	-3.352727e+01
5.799382e+02	-3.357836e+01
5.832879e+02	-3.363395e+01
5.866569e+02	-3.368249e+01
5.900454e+02	-3.373483e+01
5.934535e+02	-3.377952e+01
5.968813e+02	-3.383790e+01
6.003288e+02	-3.387814e+01
6.037963e+02	-3.393261e+01
6.072838e+02	-3.398337e+01
6.107914e+02	-3.403404e+01
6.143194e+02	-3.408052e+01
6.178676e+02	-3.413195e+01
6.214364e+02	-3.418692e+01
6.250258e+02	-3.423581e+01
6.286359e+02	-3.429333e+01
6.322669e+02	-3.433253e+01
6.359189e+02	-3.438556e+01
6.395919e+02	-3.443404e+01
6.432862e+02	-3.448216e+01
6.470017e+02	-3.454202e+01
6.507388e+02	-3.459223e+01
6.544974e+02	-3.463285e+01
6.582778e+02	-3.468547e+01
6.620800e+02	-3.473613e+01
6.659041e+02	-3.479108e+01
6.697504e+02	-3.483677e+01
6.736188e+02	-3.488635e+01
6.775096e+02	-3.493985e+01
6.814229e+02	-3.498268e+01
6.853587e+02	-3.503592e+01
6.893173e+02	-3.508840e+01
6.932988e+02	-3.514179e+01
6.973033e+02	-3.519136e+01
7.013309e+02	-3.523421e+01
