Frequency(Hz)	Magnitude(dB)
1.000000e+01	-1.743998e-05
1.005776e+01	-1.764203e-05
1.011585e+01	-1.784642e-05
1.017428e+01	-1.805317e-05
1.023305e+01	-1.826232e-05
1.029215e+01	-1.847390e-05
1.035160e+01	-1.868792e-05
1.041139e+01	-1.890443e-05
1.047153e+01	-1.912344e-05
1.053201e+01	-1.934499e-05
1.059284e+01	-1.956911e-05
1.065403e+01	-1.979582e-05
1.071556e+01	-2.002516e-05
1.077746e+01	-2.025715e-05
1.083971e+01	-2.049184e-05
1.090232e+01	-2.072924e-05
1.096529e+01	-2.096940e-05
1.102862e+01	-2.121233e-05
1.109232e+01	-2.145808e-05
1.115639e+01	-2.170668e-05
1.122083e+01	-2.195816e-05
1.128564e+01	-2.221255e-05
1.135083e+01	-2.246988e-05
1.141639e+01	-2.273020e-05
1.148233e+01	-2.299354e-05
1.154865e+01	-2.325992e-05
1.161536e+01	-2.352940e-05
1.168245e+01	-2.380199e-05
1.174992e+01	-2.407774e-05
1.181779e+01	-2.435669e-05
1.188605e+01	-2.463887e-05
1.195470e+01	-2.492431e-05
1.202375e+01	-2.521307e-05
1.209320e+01	-2.550517e-05
1.216305e+01	-2.580065e-05
1.223330e+01	-2.609956e-05
1.230396e+01	-2.640193e-05
1.237503e+01	-2.670780e-05
1.244651e+01	-2.701722e-05
1.251840e+01	-2.733022e-05
1.259070e+01	-2.764685e-05
1.266343e+01	-2.796714e-05
1.273657e+01	-2.829115e-05
1.281014e+01	-2.861891e-05
1.288413e+01	-2.895046e-05
1.295855e+01	-2.928586e-05
1.303339e+01	-2.962515e-05
1.310867e+01	-2.996836e-05
1.318439e+01	-3.031555e-05
1.326054e+01	-3.066676e-05
1.333713e+01	-3.102205e-05
1.341417e+01	-3.138144e-05
1.349165e+01	-3.174501e-05
1.356958e+01	-3.211278e-05
1.364795e+01	-3.248481e-05
1.372678e+01	-3.286116e-05
1.380607e+01	-3.324186e-05
1.388581e+01	-3.362698e-05
1.396602e+01	-3.401655e-05
1.404668e+01	-3.441064e-05
1.412782e+01	-3.480930e-05
1.420942e+01	-3.521257e-05
1.429149e+01	-3.562052e-05
1.437404e+01	-3.603319e-05
1.445706e+01	-3.645064e-05
1.454057e+01	-3.687293e-05
1.462455e+01	-3.730011e-05
1.470902e+01	-3.773224e-05
1.479398e+01	-3.816938e-05
1.487943e+01	-3.861158e-05
1.496537e+01	-3.905891e-05
1.505181e+01	-3.951141e-05
1.513875e+01	-3.996916e-05
1.522619e+01	-4.043221e-05
1.531414e+01	-4.090063e-05
1.540259e+01	-4.137447e-05
1.549156e+01	-4.185380e-05
1.558103e+01	-4.233869e-05
1.567103e+01	-4.282919e-05
1.576155e+01	-4.332538e-05
1.585258e+01	-4.382731e-05
1.594415e+01	-4.433506e-05
1.603624e+01	-4.484869e-05
1.612886e+01	-4.536827e-05
1.622202e+01	-4.589388e-05
1.631572e+01	-4.642557e-05
1.640996e+01	-4.696342e-05
1.650474e+01	-4.750750e-05
1.660008e+01	-4.805788e-05
1.669596e+01	-4.861464e-05
1.679239e+01	-4.917786e-05
1.688938e+01	-4.974759e-05
1.698694e+01	-5.032393e-05
1.708505e+01	-5.090694e-05
1.718373e+01	-5.149671e-05
1.728299e+01	-5.209331e-05
1.738281e+01	-5.269682e-05
1.748322e+01	-5.330732e-05
1.758420e+01	-5.392490e-05
1.768576e+01	-5.454963e-05
1.778792e+01	-5.518160e-05
1.789066e+01	-5.582089e-05
1.799399e+01	-5.646759e-05
1.809793e+01	-5.712178e-05
1.820246e+01	-5.778354e-05
1.830760e+01	-5.845298e-05
1.841334e+01	-5.913017e-05
1.851969e+01	-5.981520e-05
1.862666e+01	-6.050817e-05
1.873425e+01	-6.120917e-05
1.884246e+01	-6.191829e-05
1.895129e+01	-6.263563e-05
1.906075e+01	-6.336127e-05
1.917085e+01	-6.409533e-05
1.928158e+01	-6.483788e-05
1.939295e+01	-6.558904e-05
1.950496e+01	-6.634890e-05
1.961762e+01	-6.711757e-05
1.973093e+01	-6.789514e-05
1.984490e+01	-6.868172e-05
1.995952e+01	-6.947741e-05
2.007480e+01	-7.028232e-05
2.019076e+01	-7.109655e-05
2.030738e+01	-7.192022e-05
2.042467e+01	-7.275342e-05
2.054264e+01	-7.359629e-05
2.066130e+01	-7.444891e-05
2.078064e+01	-7.531142e-05
2.090066e+01	-7.618391e-05
2.102139e+01	-7.706652e-05
2.114280e+01	-7.795935e-05
2.126492e+01	-7.886252e-05
2.138775e+01	-7.977615e-05
2.151128e+01	-8.070037e-05
2.163553e+01	-8.163530e-05
2.176050e+01	-8.258106e-05
2.188619e+01	-8.353778e-05
2.201260e+01	-8.450558e-05
2.213974e+01	-8.548459e-05
2.226762e+01	-8.647494e-05
2.239624e+01	-8.747677e-05
2.252560e+01	-8.849020e-05
2.265571e+01	-8.951537e-05
2.278656e+01	-9.055242e-05
2.291818e+01	-9.160149e-05
2.305055e+01	-9.266270e-05
2.318369e+01	-9.373621e-05
2.331760e+01	-9.482216e-05
2.345228e+01	-9.592069e-05
2.358774e+01	-9.703195e-05
2.372398e+01	-9.815608e-05
2.386101e+01	-9.929323e-05
2.399883e+01	-1.004436e-04
2.413745e+01	-1.016072e-04
2.427686e+01	-1.027843e-04
2.441709e+01	-1.039751e-04
2.455812e+01	-1.051797e-04
2.469997e+01	-1.063982e-04
2.484263e+01	-1.076308e-04
2.498612e+01	-1.088778e-04
2.513044e+01	-1.101391e-04
2.527559e+01	-1.114151e-04
2.542158e+01	-1.127059e-04
2.556842e+01	-1.140116e-04
2.571610e+01	-1.153324e-04
2.586463e+01	-1.166685e-04
2.601403e+01	-1.180202e-04
2.616428e+01	-1.193874e-04
2.631541e+01	-1.207706e-04
2.646740e+01	-1.221697e-04
2.662028e+01	-1.235851e-04
2.677404e+01	-1.250168e-04
2.692868e+01	-1.264651e-04
2.708422e+01	-1.279302e-04
2.724066e+01	-1.294123e-04
2.739800e+01	-1.309116e-04
2.755625e+01	-1.324282e-04
2.771541e+01	-1.339624e-04
2.787550e+01	-1.355144e-04
2.803650e+01	-1.370843e-04
2.819844e+01	-1.386725e-04
2.836131e+01	-1.402790e-04
2.852513e+01	-1.419041e-04
2.868989e+01	-1.435481e-04
2.885560e+01	-1.452111e-04
2.902227e+01	-1.468934e-04
2.918990e+01	-1.485952e-04
2.935850e+01	-1.503167e-04
2.952807e+01	-1.520581e-04
2.969863e+01	-1.538197e-04
2.987016e+01	-1.556017e-04
3.004269e+01	-1.574044e-04
3.021622e+01	-1.592279e-04
3.039075e+01	-1.610726e-04
3.056628e+01	-1.629386e-04
3.074283e+01	-1.648263e-04
3.092040e+01	-1.667358e-04
3.109900e+01	-1.686674e-04
3.127862e+01	-1.706214e-04
3.145929e+01	-1.725981e-04
3.164099e+01	-1.745977e-04
3.182375e+01	-1.766204e-04
3.200756e+01	-1.786665e-04
3.219244e+01	-1.807364e-04
3.237838e+01	-1.828302e-04
3.256540e+01	-1.849483e-04
3.275349e+01	-1.870910e-04
3.294268e+01	-1.892584e-04
3.313295e+01	-1.914510e-04
3.332433e+01	-1.936689e-04
3.351681e+01	-1.959126e-04
3.371040e+01	-1.981822e-04
3.390511e+01	-2.004782e-04
3.410094e+01	-2.028007e-04
3.429791e+01	-2.051502e-04
3.449601e+01	-2.075268e-04
3.469526e+01	-2.099310e-04
3.489566e+01	-2.123631e-04
3.509721e+01	-2.148233e-04
3.529993e+01	-2.173120e-04
3.550382e+01	-2.198296e-04
3.570889e+01	-2.223763e-04
3.591515e+01	-2.249525e-04
3.612259e+01	-2.275586e-04
3.633123e+01	-2.301949e-04
3.654108e+01	-2.328617e-04
3.675214e+01	-2.355594e-04
3.696442e+01	-2.382883e-04
3.717792e+01	-2.410489e-04
3.739266e+01	-2.438414e-04
3.760864e+01	-2.466663e-04
3.782587e+01	-2.495239e-04
3.804435e+01	-2.524146e-04
3.826409e+01	-2.553388e-04
3.848510e+01	-2.582969e-04
3.870739e+01	-2.612893e-04
3.893096e+01	-2.643163e-04
3.915583e+01	-2.673784e-04
3.938199e+01	-2.704759e-04
3.960946e+01	-2.736094e-04
3.983824e+01	-2.767791e-04
4.006834e+01	-2.799856e-04
4.029978e+01	-2.832292e-04
4.053255e+01	-2.865104e-04
4.076666e+01	-2.898296e-04
4.100213e+01	-2.931872e-04
4.123896e+01	-2.965837e-04
4.147715e+01	-3.000196e-04
4.171672e+01	-3.034953e-04
4.195767e+01	-3.070113e-04
4.220002e+01	-3.105680e-04
4.244377e+01	-3.141658e-04
4.268892e+01	-3.178054e-04
4.293549e+01	-3.214871e-04
4.318348e+01	-3.252115e-04
4.343291e+01	-3.289790e-04
4.368377e+01	-3.327902e-04
4.393609e+01	-3.366455e-04
4.418986e+01	-3.405455e-04
4.444510e+01	-3.444907e-04
4.470182e+01	-3.484815e-04
4.496001e+01	-3.525186e-04
4.521970e+01	-3.566025e-04
4.548089e+01	-3.607336e-04
4.574358e+01	-3.649127e-04
4.600779e+01	-3.691401e-04
4.627353e+01	-3.734165e-04
4.654081e+01	-3.777424e-04
4.680963e+01	-3.821185e-04
4.708000e+01	-3.865452e-04
4.735193e+01	-3.910233e-04
4.762543e+01	-3.955532e-04
4.790051e+01	-4.001356e-04
4.817719e+01	-4.047710e-04
4.845545e+01	-4.094602e-04
4.873533e+01	-4.142037e-04
4.901682e+01	-4.190021e-04
4.929994e+01	-4.238561e-04
4.958470e+01	-4.287664e-04
4.987110e+01	-4.337335e-04
5.015915e+01	-4.387582e-04
5.044887e+01	-4.438411e-04
5.074026e+01	-4.489828e-04
5.103333e+01	-4.541841e-04
5.132810e+01	-4.594457e-04
5.162457e+01	-4.647682e-04
5.192275e+01	-4.701524e-04
5.222265e+01	-4.755989e-04
5.252429e+01	-4.811086e-04
5.282767e+01	-4.866821e-04
5.313280e+01	-4.923201e-04
5.343969e+01	-4.980234e-04
5.374836e+01	-5.037928e-04
5.405880e+01	-5.096291e-04
5.437105e+01	-5.155329e-04
5.468509e+01	-5.215051e-04
5.500095e+01	-5.275465e-04
5.531863e+01	-5.336579e-04
5.563815e+01	-5.398401e-04
5.595951e+01	-5.460939e-04
5.628273e+01	-5.524202e-04
5.660782e+01	-5.588197e-04
5.693479e+01	-5.652934e-04
5.726364e+01	-5.718420e-04
5.759439e+01	-5.784665e-04
5.792705e+01	-5.851678e-04
5.826164e+01	-5.919466e-04
5.859815e+01	-5.988040e-04
5.893662e+01	-6.057409e-04
5.927703e+01	-6.127580e-04
5.961941e+01	-6.198565e-04
5.996377e+01	-6.270372e-04
6.031012e+01	-6.343011e-04
6.065847e+01	-6.416491e-04
6.100883e+01	-6.490822e-04
6.136121e+01	-6.566014e-04
6.171563e+01	-6.642077e-04
6.207210e+01	-6.719022e-04
6.243063e+01	-6.796857e-04
6.279122e+01	-6.875595e-04
6.315390e+01	-6.955244e-04
6.351868e+01	-7.035816e-04
6.388556e+01	-7.117321e-04
6.425456e+01	-7.199770e-04
6.462569e+01	-7.283175e-04
6.499897e+01	-7.367545e-04
6.537440e+01	-7.452893e-04
6.575200e+01	-7.539229e-04
6.613178e+01	-7.626565e-04
6.651375e+01	-7.714913e-04
6.689793e+01	-7.804285e-04
6.728433e+01	-7.894691e-04
6.767297e+01	-7.986145e-04
6.806384e+01	-8.078658e-04
6.845698e+01	-8.172243e-04
6.885238e+01	-8.266911e-04
6.925007e+01	-8.362677e-04
6.965005e+01	-8.459551e-04
7.005235e+01	-8.557548e-04
7.045697e+01	-8.656679e-04
7.086393e+01	-8.756959e-04
7.127323e+01	-8.858401e-04
7.168490e+01	-8.961017e-04
7.209895e+01	-9.064822e-04
7.251539e+01	-9.169829e-04
7.293424e+01	-9.276053e-04
7.335551e+01	-9.383507e-04
7.377920e+01	-9.492206e-04
7.420535e+01	-9.602163e-04
7.463396e+01	-9.713395e-04
7.506504e+01	-9.825914e-04
7.549861e+01	-9.939737e-04
7.593469e+01	-1.005488e-03
7.637328e+01	-1.017135e-03
7.681441e+01	-1.028918e-03
7.725809e+01	-1.040837e-03
7.770433e+01	-1.052893e-03
7.815315e+01	-1.065090e-03
7.860456e+01	-1.077428e-03
7.905857e+01	-1.089909e-03
7.951521e+01	-1.102534e-03
7.997449e+01	-1.115305e-03
8.043642e+01	-1.128225e-03
8.090102e+01	-1.141294e-03
8.136830e+01	-1.154514e-03
8.183828e+01	-1.167888e-03
8.231097e+01	-1.181416e-03
8.278640e+01	-1.195102e-03
8.326457e+01	-1.208945e-03
8.374550e+01	-1.222949e-03
8.422921e+01	-1.237115e-03
8.471572e+01	-1.251446e-03
8.520503e+01	-1.265942e-03
8.569717e+01	-1.280606e-03
8.619215e+01	-1.295440e-03
8.669000e+01	-1.310446e-03
8.719071e+01	-1.325625e-03
8.769432e+01	-1.340981e-03
8.820084e+01	-1.356514e-03
8.871029e+01	-1.372227e-03
8.922267e+01	-1.388122e-03
8.973802e+01	-1.404201e-03
9.025634e+01	-1.420466e-03
9.077766e+01	-1.436920e-03
9.130199e+01	-1.453565e-03
9.182935e+01	-1.470402e-03
9.235975e+01	-1.487434e-03
9.289321e+01	-1.504663e-03
9.342976e+01	-1.522092e-03
9.396941e+01	-1.539723e-03
9.451217e+01	-1.557558e-03
9.505807e+01	-1.575599e-03
9.560712e+01	-1.593849e-03
9.615934e+01	-1.612311e-03
9.671476e+01	-1.630987e-03
9.727338e+01	-1.649879e-03
9.783522e+01	-1.668989e-03
9.840032e+01	-1.688321e-03
9.896867e+01	-1.707877e-03
9.954031e+01	-1.727659e-03
1.001153e+02	-1.747670e-03
1.006935e+02	-1.767914e-03
1.012751e+02	-1.788391e-03
1.018601e+02	-1.809106e-03
1.024484e+02	-1.830060e-03
1.030402e+02	-1.851258e-03
1.036353e+02	-1.872700e-03
1.042339e+02	-1.894391e-03
1.048360e+02	-1.916333e-03
1.054415e+02	-1.938530e-03
1.060505e+02	-1.960983e-03
1.066631e+02	-1.983696e-03
1.072791e+02	-2.006673e-03
1.078988e+02	-2.029915e-03
1.085220e+02	-2.053427e-03
1.091488e+02	-2.077210e-03
1.097793e+02	-2.101270e-03
1.104133e+02	-2.125607e-03
1.110511e+02	-2.150227e-03
1.116925e+02	-2.175132e-03
1.123376e+02	-2.200325e-03
1.129865e+02	-2.225810e-03
1.136391e+02	-2.251590e-03
1.142955e+02	-2.277668e-03
1.149556e+02	-2.304048e-03
1.156196e+02	-2.330734e-03
1.162874e+02	-2.357729e-03
1.169591e+02	-2.385037e-03
1.176347e+02	-2.412660e-03
1.183141e+02	-2.440604e-03
1.189975e+02	-2.468871e-03
1.196848e+02	-2.497465e-03
1.203761e+02	-2.526390e-03
1.210714e+02	-2.555650e-03
1.217707e+02	-2.585250e-03
1.224740e+02	-2.615191e-03
1.231814e+02	-2.645480e-03
1.238929e+02	-2.676119e-03
1.246085e+02	-2.707113e-03
1.253283e+02	-2.738465e-03
1.260522e+02	-2.770181e-03
1.267802e+02	-2.802264e-03
1.275125e+02	-2.834718e-03
1.282490e+02	-2.867549e-03
1.289898e+02	-2.900759e-03
1.297348e+02	-2.934353e-03
1.304842e+02	-2.968337e-03
1.312378e+02	-3.002714e-03
1.319959e+02	-3.037489e-03
1.327583e+02	-3.072667e-03
1.335251e+02	-3.108252e-03
1.342963e+02	-3.144249e-03
1.350720e+02	-3.180662e-03
1.358522e+02	-3.217497e-03
1.366368e+02	-3.254759e-03
1.374260e+02	-3.292452e-03
1.382198e+02	-3.330581e-03
1.390182e+02	-3.369152e-03
1.398211e+02	-3.408169e-03
1.406287e+02	-3.447638e-03
1.414410e+02	-3.487563e-03
1.422579e+02	-3.527951e-03
1.430796e+02	-3.568807e-03
1.439060e+02	-3.610135e-03
1.447372e+02	-3.651942e-03
1.455732e+02	-3.694233e-03
1.464141e+02	-3.737013e-03
1.472597e+02	-3.780288e-03
1.481103e+02	-3.824064e-03
1.489658e+02	-3.868347e-03
1.498262e+02	-3.913143e-03
1.506916e+02	-3.958457e-03
1.515620e+02	-4.004296e-03
1.524374e+02	-4.050665e-03
1.533179e+02	-4.097571e-03
1.542034e+02	-4.145019e-03
1.550941e+02	-4.193017e-03
1.559899e+02	-4.241571e-03
1.568909e+02	-4.290686e-03
1.577971e+02	-4.340370e-03
1.587085e+02	-4.390629e-03
1.596252e+02	-4.441469e-03
1.605472e+02	-4.492898e-03
1.614745e+02	-4.544922e-03
1.624072e+02	-4.597549e-03
1.633453e+02	-4.650784e-03
1.642887e+02	-4.704635e-03
1.652377e+02	-4.759110e-03
1.661921e+02	-4.814214e-03
1.671520e+02	-4.869957e-03
1.681175e+02	-4.926345e-03
1.690885e+02	-4.983385e-03
1.700651e+02	-5.041085e-03
1.710474e+02	-5.099453e-03
1.720354e+02	-5.158496e-03
1.730291e+02	-5.218223e-03
1.740285e+02	-5.278640e-03
1.750337e+02	-5.339757e-03
1.760446e+02	-5.401581e-03
1.770615e+02	-5.464120e-03
1.780842e+02	-5.527383e-03
1.791128e+02	-5.591378e-03
1.801473e+02	-5.656113e-03
1.811878e+02	-5.721598e-03
1.822344e+02	-5.787839e-03
1.832870e+02	-5.854848e-03
1.843456e+02	-5.922631e-03
1.854104e+02	-5.991199e-03
1.864813e+02	-6.060560e-03
1.875584e+02	-6.130724e-03
1.886418e+02	-6.201699e-03
1.897313e+02	-6.273495e-03
1.908272e+02	-6.346122e-03
1.919294e+02	-6.419589e-03
1.930380e+02	-6.493906e-03
1.941530e+02	-6.569082e-03
1.952744e+02	-6.645128e-03
1.964023e+02	-6.722054e-03
1.975367e+02	-6.799870e-03
1.986777e+02	-6.878585e-03
1.998252e+02	-6.958211e-03
2.009794e+02	-7.038759e-03
2.021403e+02	-7.120237e-03
2.033078e+02	-7.202659e-03
2.044821e+02	-7.286033e-03
2.056632e+02	-7.370372e-03
2.068511e+02	-7.455686e-03
2.080459e+02	-7.541987e-03
2.092475e+02	-7.629286e-03
2.104561e+02	-7.717594e-03
2.116717e+02	-7.806924e-03
2.128943e+02	-7.897287e-03
2.141240e+02	-7.988694e-03
2.153608e+02	-8.081159e-03
2.166047e+02	-8.174693e-03
2.178558e+02	-8.269308e-03
2.191141e+02	-8.365018e-03
2.203797e+02	-8.461834e-03
2.216526e+02	-8.559770e-03
2.229329e+02	-8.658838e-03
2.242205e+02	-8.759051e-03
2.255156e+02	-8.860423e-03
2.268182e+02	-8.962967e-03
2.281283e+02	-9.066697e-03
2.294459e+02	-9.171625e-03
2.307712e+02	-9.277767e-03
2.321041e+02	-9.385136e-03
2.334447e+02	-9.493746e-03
2.347931e+02	-9.603611e-03
2.361493e+02	-9.714747e-03
2.375133e+02	-9.827167e-03
2.388851e+02	-9.940886e-03
2.402649e+02	-1.005592e-02
2.416527e+02	-1.017228e-02
2.430484e+02	-1.028999e-02
2.444523e+02	-1.040906e-02
2.458642e+02	-1.052951e-02
2.472843e+02	-1.065134e-02
2.487126e+02	-1.077459e-02
2.501492e+02	-1.089926e-02
2.515940e+02	-1.102537e-02
2.530472e+02	-1.115293e-02
2.545088e+02	-1.128198e-02
2.559789e+02	-1.141251e-02
2.574574e+02	-1.154455e-02
2.589444e+02	-1.167811e-02
2.604401e+02	-1.181322e-02
2.619444e+02	-1.194989e-02
2.634574e+02	-1.208814e-02
2.649791e+02	-1.222799e-02
2.665096e+02	-1.236945e-02
2.680489e+02	-1.251255e-02
2.695972e+02	-1.265730e-02
2.711544e+02	-1.280372e-02
2.727205e+02	-1.295183e-02
2.742958e+02	-1.310165e-02
2.758801e+02	-1.325321e-02
2.774736e+02	-1.340651e-02
2.790762e+02	-1.356159e-02
2.806882e+02	-1.371845e-02
2.823094e+02	-1.387713e-02
2.839400e+02	-1.403764e-02
2.855800e+02	-1.420000e-02
2.872295e+02	-1.436424e-02
2.888886e+02	-1.453037e-02
2.905572e+02	-1.469842e-02
2.922354e+02	-1.486842e-02
2.939234e+02	-1.504037e-02
2.956211e+02	-1.521431e-02
2.973286e+02	-1.539026e-02
2.990459e+02	-1.556824e-02
3.007732e+02	-1.574827e-02
3.025104e+02	-1.593039e-02
3.042577e+02	-1.611460e-02
3.060151e+02	-1.630094e-02
3.077826e+02	-1.648943e-02
3.095604e+02	-1.668010e-02
3.113484e+02	-1.687296e-02
3.131467e+02	-1.706806e-02
3.149554e+02	-1.726540e-02
3.167746e+02	-1.746502e-02
3.186043e+02	-1.766694e-02
3.204445e+02	-1.787120e-02
3.222954e+02	-1.807781e-02
3.241570e+02	-1.828680e-02
3.260293e+02	-1.849821e-02
3.279124e+02	-1.871205e-02
3.298064e+02	-1.892836e-02
3.317114e+02	-1.914716e-02
3.336273e+02	-1.936849e-02
3.355544e+02	-1.959237e-02
3.374925e+02	-1.981884e-02
3.394418e+02	-2.004791e-02
3.414024e+02	-2.027963e-02
3.433744e+02	-2.051401e-02
3.453577e+02	-2.075110e-02
3.473525e+02	-2.099093e-02
3.493588e+02	-2.123352e-02
3.513766e+02	-2.147890e-02
3.534062e+02	-2.172712e-02
3.554474e+02	-2.197819e-02
3.575005e+02	-2.223216e-02
3.595654e+02	-2.248906e-02
3.616422e+02	-2.274891e-02
3.637311e+02	-2.301177e-02
3.658320e+02	-2.327765e-02
3.679450e+02	-2.354659e-02
3.700702e+02	-2.381863e-02
3.722077e+02	-2.409381e-02
3.743576e+02	-2.437216e-02
3.765199e+02	-2.465371e-02
3.786946e+02	-2.493851e-02
3.808820e+02	-2.522659e-02
3.830819e+02	-2.551798e-02
3.852946e+02	-2.581273e-02
3.875200e+02	-2.611088e-02
3.897583e+02	-2.641246e-02
3.920096e+02	-2.671751e-02
3.942738e+02	-2.702607e-02
3.965511e+02	-2.733819e-02
3.988416e+02	-2.765389e-02
4.011452e+02	-2.797324e-02
4.034622e+02	-2.829625e-02
4.057926e+02	-2.862299e-02
4.081365e+02	-2.895349e-02
4.104938e+02	-2.928779e-02
4.128648e+02	-2.962593e-02
4.152495e+02	-2.996797e-02
4.176480e+02	-3.031394e-02
4.200603e+02	-3.066389e-02
4.224866e+02	-3.101787e-02
4.249268e+02	-3.137592e-02
4.273812e+02	-3.173808e-02
4.298497e+02	-3.210441e-02
4.323325e+02	-3.247496e-02
4.348297e+02	-3.284976e-02
4.373412e+02	-3.322887e-02
4.398673e+02	-3.361234e-02
4.424079e+02	-3.400022e-02
4.449633e+02	-3.439256e-02
4.475334e+02	-3.478941e-02
4.501183e+02	-3.519081e-02
4.527182e+02	-3.559683e-02
4.553330e+02	-3.600752e-02
4.579630e+02	-3.642292e-02
4.606082e+02	-3.684310e-02
4.632687e+02	-3.726810e-02
4.659445e+02	-3.769798e-02
4.686358e+02	-3.813280e-02
4.713426e+02	-3.857261e-02
4.740650e+02	-3.901747e-02
4.768032e+02	-3.946744e-02
4.795572e+02	-3.992257e-02
4.823271e+02	-4.038293e-02
4.851130e+02	-4.084857e-02
4.879150e+02	-4.131956e-02
4.907332e+02	-4.179595e-02
4.935676e+02	-4.227780e-02
4.964185e+02	-4.276518e-02
4.992858e+02	-4.325816e-02
5.021696e+02	-4.375678e-02
5.050701e+02	-4.426113e-02
5.079874e+02	-4.477126e-02
5.109215e+02	-4.528723e-02
5.138726e+02	-4.580913e-02
5.168407e+02	-4.633700e-02
5.198259e+02	-4.687092e-02
5.228284e+02	-4.741097e-02
5.258482e+02	-4.795720e-02
5.288855e+02	-4.850968e-02
5.319403e+02	-4.906850e-02
5.350128e+02	-4.963372e-02
5.381030e+02	-5.020541e-02
5.412111e+02	-5.078365e-02
5.443371e+02	-5.136850e-02
5.474812e+02	-5.196005e-02
5.506434e+02	-5.255838e-02
5.538239e+02	-5.316355e-02
5.570228e+02	-5.377564e-02
5.602401e+02	-5.439474e-02
5.634760e+02	-5.502092e-02
5.667306e+02	-5.565426e-02
5.700040e+02	-5.629485e-02
5.732964e+02	-5.694276e-02
5.766077e+02	-5.759807e-02
5.799382e+02	-5.826088e-02
5.832879e+02	-5.893127e-02
5.866569e+02	-5.960931e-02
5.900454e+02	-6.029510e-02
5.934535e+02	-6.098873e-02
5.968813e+02	-6.169027e-02
6.003288e+02	-6.239983e-02
6.037963e+02	-6.311749e-02
6.072838e+02	-6.384335e-02
6.107914e+02	-6.457749e-02
6.143194e+02	-6.532000e-02
6.178676e+02	-6.607099e-02
6.214364e+02	-6.683055e-02
6.250258e+02	-6.759877e-02
6.286359e+02	-6.837575e-02
6.322669e+02	-6.916160e-02
6.359189e+02	-6.995640e-02
6.395919e+02	-7.076026e-02
6.432862e+02	-7.157328e-02
6.470017e+02	-7.239556e-02
6.507388e+02	-7.322721e-02
6.544974e+02	-7.406833e-02
6.582778e+02	-7.491903e-02
6.620800e+02	-7.577942e-02
6.659041e+02	-7.664960e-02
6.697504e+02	-7.752968e-02
6.736188e+02	-7.841977e-02
6.775096e+02	-7.931999e-02
6.814229e+02	-8.023045e-02
6.853587e+02	-8.115126e-02
6.893173e+02	-8.208254e-02
6.932988e+02	-8.302441e-02
6.973033e+02	-8.397697e-02
7.013309e+02	-8.494036e-02
