Frequency(Hz)	Magnitude(dB)
1.000000e+01	-2.455676e+00
1.005776e+01	-2.477313e+00
1.011585e+01	-2.499212e+00
1.017428e+01	-2.521270e+00
1.023305e+01	-2.543576e+00
1.029215e+01	-2.565508e+00
1.035160e+01	-2.588039e+00
1.041139e+01	-2.610612e+00
1.047153e+01	-2.633287e+00
1.053201e+01	-2.656083e+00
1.059284e+01	-2.678822e+00
1.065403e+01	-2.702050e+00
1.071556e+01	-2.725352e+00
1.077746e+01	-2.748592e+00
1.083971e+01	-2.772381e+00
1.090232e+01	-2.796069e+00
1.096529e+01	-2.819903e+00
1.102862e+01	-2.843650e+00
1.109232e+01	-2.867784e+00
1.115639e+01	-2.892169e+00
1.122083e+01	-2.916319e+00
1.128564e+01	-2.941090e+00
1.135083e+01	-2.965975e+00
1.141639e+01	-2.990655e+00
1.148233e+01	-3.015176e+00
1.154865e+01	-3.040460e+00
1.161536e+01	-3.065798e+00
1.168245e+01	-3.091063e+00
1.174992e+01	-3.116845e+00
1.181779e+01	-3.142581e+00
1.188605e+01	-3.168127e+00
1.195470e+01	-3.194387e+00
1.202375e+01	-3.220181e+00
1.209320e+01	-3.246671e+00
1.216305e+01	-3.273116e+00
1.223330e+01	-3.299763e+00
1.230396e+01	-3.326377e+00
1.237503e+01	-3.353307e+00
1.244651e+01	-3.379964e+00
1.251840e+01	-3.407180e+00
1.259070e+01	-3.434516e+00
1.266343e+01	-3.461909e+00
1.273657e+01	-3.489879e+00
1.281014e+01	-3.517209e+00
1.288413e+01	-3.545074e+00
1.295855e+01	-3.573012e+00
1.303339e+01	-3.601183e+00
1.310867e+01	-3.629267e+00
1.318439e+01	-3.657983e+00
1.326054e+01	-3.686552e+00
1.333713e+01	-3.715206e+00
1.341417e+01	-3.744043e+00
1.349165e+01	-3.772905e+00
1.356958e+01	-3.802086e+00
1.364795e+01	-3.831110e+00
1.372678e+01	-3.861077e+00
1.380607e+01	-3.889991e+00
1.388581e+01	-3.919782e+00
1.396602e+01	-3.949282e+00
1.404668e+01	-3.979705e+00
1.412782e+01	-4.009825e+00
1.420942e+01	-4.039985e+00
1.429149e+01	-4.070048e+00
1.437404e+01	-4.100606e+00
1.445706e+01	-4.131152e+00
1.454057e+01	-4.162086e+00
1.462455e+01	-4.193200e+00
1.470902e+01	-4.224012e+00
1.479398e+01	-4.255386e+00
1.487943e+01	-4.286856e+00
1.496537e+01	-4.317956e+00
1.505181e+01	-4.349699e+00
1.513875e+01	-4.381220e+00
1.522619e+01	-4.413279e+00
1.531414e+01	-4.445254e+00
1.540259e+01	-4.477238e+00
1.549156e+01	-4.509602e+00
1.558103e+01	-4.541885e+00
1.567103e+01	-4.574590e+00
1.576155e+01	-4.607385e+00
1.585258e+01	-4.640057e+00
1.594415e+01	-4.672737e+00
1.603624e+01	-4.705636e+00
1.612886e+01	-4.738888e+00
1.622202e+01	-4.772095e+00
1.631572e+01	-4.805545e+00
1.640996e+01	-4.838901e+00
1.650474e+01	-4.872833e+00
1.660008e+01	-4.906762e+00
1.669596e+01	-4.940284e+00
1.679239e+01	-4.974717e+00
1.688938e+01	-5.008612e+00
1.698694e+01	-5.043116e+00
1.708505e+01	-5.077430e+00
1.718373e+01	-5.112348e+00
1.728299e+01	-5.147054e+00
1.738281e+01	-5.181452e+00
1.748322e+01	-5.216597e+00
1.758420e+01	-5.251423e+00
1.768576e+01	-5.286667e+00
1.778792e+01	-5.321894e+00
1.789066e+01	-5.357553e+00
1.799399e+01	-5.392829e+00
1.809793e+01	-5.428568e+00
1.820246e+01	-5.464318e+00
1.830760e+01	-5.499823e+00
1.841334e+01	-5.536268e+00
1.851969e+01	-5.572400e+00
1.862666e+01	-5.608468e+00
1.873425e+01	-5.644713e+00
1.884246e+01	-5.681152e+00
1.895129e+01	-5.718059e+00
1.906075e+01	-5.754512e+00
1.917085e+01	-5.791138e+00
1.928158e+01	-5.828252e+00
1.939295e+01	-5.865220e+00
1.950496e+01	-5.902028e+00
1.961762e+01	-5.939630e+00
1.973093e+01	-5.976883e+00
1.984490e+01	-6.013960e+00
1.995952e+01	-6.052134e+00
2.007480e+01	-6.089728e+00
2.019076e+01	-6.127097e+00
2.030738e+01	-6.165043e+00
2.042467e+01	-6.203395e+00
2.054264e+01	-6.241157e+00
2.066130e+01	-6.279445e+00
2.078064e+01	-6.317718e+00
2.090066e+01	-6.355820e+00
2.102139e+01	-6.394766e+00
2.114280e+01	-6.433324e+00
2.126492e+01	-6.471664e+00
2.138775e+01	-6.511112e+00
2.151128e+01	-6.549433e+00
2.163553e+01	-6.588625e+00
2.176050e+01	-6.627600e+00
2.188619e+01	-6.666647e+00
2.201260e+01	-6.706224e+00
2.213974e+01	-6.745652e+00
2.226762e+01	-6.785154e+00
2.239624e+01	-6.824520e+00
2.252560e+01	-6.864681e+00
2.265571e+01	-6.904075e+00
2.278656e+01	-6.943977e+00
2.291818e+01	-6.983674e+00
2.305055e+01	-7.023668e+00
2.318369e+01	-7.064235e+00
2.331760e+01	-7.104489e+00
2.345228e+01	-7.144932e+00
2.358774e+01	-7.185110e+00
2.372398e+01	-7.225752e+00
2.386101e+01	-7.266503e+00
2.399883e+01	-7.306715e+00
2.413745e+01	-7.347682e+00
2.427686e+01	-7.388729e+00
2.441709e+01	-7.429489e+00
2.455812e+01	-7.470719e+00
2.469997e+01	-7.511473e+00
2.484263e+01	-7.552642e+00
2.498612e+01	-7.594049e+00
2.513044e+01	-7.635258e+00
2.527559e+01	-7.677173e+00
2.542158e+01	-7.718614e+00
2.556842e+01	-7.760127e+00
2.571610e+01	-7.802054e+00
2.586463e+01	-7.842886e+00
2.601403e+01	-7.885415e+00
2.616428e+01	-7.927246e+00
2.631541e+01	-7.969069e+00
2.646740e+01	-8.011443e+00
2.662028e+01	-8.053566e+00
2.677404e+01	-8.095723e+00
2.692868e+01	-8.138057e+00
2.708422e+01	-8.180280e+00
2.724066e+01	-8.223201e+00
2.739800e+01	-8.265108e+00
2.755625e+01	-8.307973e+00
2.771541e+01	-8.350706e+00
2.787550e+01	-8.393869e+00
2.803650e+01	-8.436279e+00
2.819844e+01	-8.479148e+00
2.836131e+01	-8.522503e+00
2.852513e+01	-8.565462e+00
2.868989e+01	-8.608344e+00
2.885560e+01	-8.651247e+00
2.902227e+01	-8.694541e+00
2.918990e+01	-8.737753e+00
2.935850e+01	-8.781286e+00
2.952807e+01	-8.824712e+00
2.969863e+01	-8.868209e+00
2.987016e+01	-8.911605e+00
3.004269e+01	-8.955625e+00
3.021622e+01	-8.998656e+00
3.039075e+01	-9.042553e+00
3.056628e+01	-9.086868e+00
3.074283e+01	-9.129928e+00
3.092040e+01	-9.174761e+00
3.109900e+01	-9.218483e+00
3.127862e+01	-9.262492e+00
3.145929e+01	-9.306481e+00
3.164099e+01	-9.350810e+00
3.182375e+01	-9.395469e+00
3.200756e+01	-9.439766e+00
3.219244e+01	-9.483753e+00
3.237838e+01	-9.528332e+00
3.256540e+01	-9.572577e+00
3.275349e+01	-9.617752e+00
3.294268e+01	-9.661613e+00
3.313295e+01	-9.706662e+00
3.332433e+01	-9.751008e+00
3.351681e+01	-9.796532e+00
3.371040e+01	-9.840718e+00
3.390511e+01	-9.885682e+00
3.410094e+01	-9.930533e+00
3.429791e+01	-9.975849e+00
3.449601e+01	-1.002061e+01
3.469526e+01	-1.006560e+01
3.489566e+01	-1.011074e+01
3.509721e+01	-1.015615e+01
3.529993e+01	-1.020117e+01
3.550382e+01	-1.024644e+01
3.570889e+01	-1.029143e+01
3.591515e+01	-1.033733e+01
3.612259e+01	-1.038186e+01
3.633123e+01	-1.042838e+01
3.654108e+01	-1.047302e+01
3.675214e+01	-1.051920e+01
3.696442e+01	-1.056473e+01
3.717792e+01	-1.061024e+01
3.739266e+01	-1.065635e+01
3.760864e+01	-1.070182e+01
3.782587e+01	-1.074763e+01
3.804435e+01	-1.079368e+01
3.826409e+01	-1.083944e+01
3.848510e+01	-1.088502e+01
3.870739e+01	-1.093133e+01
3.893096e+01	-1.097727e+01
3.915583e+01	-1.102259e+01
3.938199e+01	-1.106904e+01
3.960946e+01	-1.111523e+01
3.983824e+01	-1.116166e+01
4.006834e+01	-1.120819e+01
4.029978e+01	-1.125392e+01
4.053255e+01	-1.130015e+01
4.076666e+01	-1.134727e+01
4.100213e+01	-1.139334e+01
4.123896e+01	-1.143997e+01
4.147715e+01	-1.148529e+01
4.171672e+01	-1.153259e+01
4.195767e+01	-1.157875e+01
4.220002e+01	-1.162559e+01
4.244377e+01	-1.167220e+01
4.268892e+01	-1.171884e+01
4.293549e+01	-1.176551e+01
4.318348e+01	-1.181163e+01
4.343291e+01	-1.185814e+01
4.368377e+01	-1.190569e+01
4.393609e+01	-1.195223e+01
4.418986e+01	-1.199888e+01
4.444510e+01	-1.204627e+01
4.470182e+01	-1.209380e+01
4.496001e+01	-1.214003e+01
4.521970e+01	-1.218690e+01
4.548089e+01	-1.223378e+01
4.574358e+01	-1.228114e+01
4.600779e+01	-1.232908e+01
4.627353e+01	-1.237561e+01
4.654081e+01	-1.242239e+01
4.680963e+01	-1.246945e+01
4.708000e+01	-1.251715e+01
4.735193e+01	-1.256441e+01
4.762543e+01	-1.261097e+01
4.790051e+01	-1.265814e+01
4.817719e+01	-1.270655e+01
4.845545e+01	-1.275359e+01
4.873533e+01	-1.280123e+01
4.901682e+01	-1.284798e+01
4.929994e+01	-1.289554e+01
4.958470e+01	-1.294397e+01
4.987110e+01	-1.299061e+01
5.015915e+01	-1.303884e+01
5.044887e+01	-1.308503e+01
5.074026e+01	-1.313305e+01
5.103333e+01	-1.318053e+01
5.132810e+01	-1.322869e+01
5.162457e+01	-1.327708e+01
5.192275e+01	-1.332381e+01
5.222265e+01	-1.337210e+01
5.252429e+01	-1.341949e+01
5.282767e+01	-1.346694e+01
5.313280e+01	-1.351517e+01
5.343969e+01	-1.356275e+01
5.374836e+01	-1.360966e+01
5.405880e+01	-1.365870e+01
5.437105e+01	-1.370627e+01
5.468509e+01	-1.375392e+01
5.500095e+01	-1.380177e+01
5.531863e+01	-1.385027e+01
5.563815e+01	-1.389782e+01
5.595951e+01	-1.394660e+01
5.628273e+01	-1.399394e+01
5.660782e+01	-1.404187e+01
5.693479e+01	-1.409024e+01
5.726364e+01	-1.413951e+01
5.759439e+01	-1.418554e+01
5.792705e+01	-1.423461e+01
5.826164e+01	-1.428362e+01
5.859815e+01	-1.433115e+01
5.893662e+01	-1.437921e+01
5.927703e+01	-1.442835e+01
5.961941e+01	-1.447611e+01
5.996377e+01	-1.452410e+01
6.031012e+01	-1.457169e+01
6.065847e+01	-1.462096e+01
6.100883e+01	-1.466914e+01
6.136121e+01	-1.471682e+01
6.171563e+01	-1.476447e+01
6.207210e+01	-1.481314e+01
6.243063e+01	-1.486229e+01
6.279122e+01	-1.491060e+01
6.315390e+01	-1.495818e+01
6.351868e+01	-1.500700e+01
6.388556e+01	-1.505590e+01
6.425456e+01	-1.510440e+01
6.462569e+01	-1.515368e+01
6.499897e+01	-1.520196e+01
6.537440e+01	-1.524979e+01
6.575200e+01	-1.529742e+01
6.613178e+01	-1.534707e+01
6.651375e+01	-1.539550e+01
6.689793e+01	-1.544365e+01
6.728433e+01	-1.549214e+01
6.767297e+01	-1.554112e+01
6.806384e+01	-1.558970e+01
6.845698e+01	-1.563910e+01
6.885238e+01	-1.568699e+01
6.925007e+01	-1.573555e+01
6.965005e+01	-1.578475e+01
7.005235e+01	-1.583366e+01
7.045697e+01	-1.588213e+01
7.086393e+01	-1.593065e+01
7.127323e+01	-1.597945e+01
7.168490e+01	-1.602951e+01
7.209895e+01	-1.607641e+01
7.251539e+01	-1.612518e+01
7.293424e+01	-1.617553e+01
7.335551e+01	-1.622287e+01
7.377920e+01	-1.627254e+01
7.420535e+01	-1.632210e+01
7.463396e+01	-1.636929e+01
7.506504e+01	-1.641876e+01
7.549861e+01	-1.646759e+01
7.593469e+01	-1.651796e+01
7.637328e+01	-1.656591e+01
7.681441e+01	-1.661604e+01
7.725809e+01	-1.666395e+01
7.770433e+01	-1.671348e+01
7.815315e+01	-1.676201e+01
7.860456e+01	-1.681079e+01
7.905857e+01	-1.686155e+01
7.951521e+01	-1.690867e+01
7.997449e+01	-1.695863e+01
8.043642e+01	-1.700537e+01
8.090102e+01	-1.705714e+01
8.136830e+01	-1.710498e+01
8.183828e+01	-1.715438e+01
8.231097e+01	-1.720384e+01
8.278640e+01	-1.725140e+01
8.326457e+01	-1.730150e+01
8.374550e+01	-1.735073e+01
8.422921e+01	-1.739905e+01
8.471572e+01	-1.744781e+01
8.520503e+01	-1.749762e+01
8.569717e+01	-1.754727e+01
8.619215e+01	-1.759618e+01
8.669000e+01	-1.764460e+01
8.719071e+01	-1.769444e+01
8.769432e+01	-1.774354e+01
8.820084e+01	-1.779305e+01
8.871029e+01	-1.784187e+01
8.922267e+01	-1.789165e+01
8.973802e+01	-1.794089e+01
9.025634e+01	-1.798996e+01
9.077766e+01	-1.803887e+01
9.130199e+01	-1.808698e+01
9.182935e+01	-1.813825e+01
9.235975e+01	-1.818499e+01
9.289321e+01	-1.823579e+01
9.342976e+01	-1.828508e+01
9.396941e+01	-1.833408e+01
9.451217e+01	-1.838436e+01
9.505807e+01	-1.843253e+01
9.560712e+01	-1.848262e+01
9.615934e+01	-1.853121e+01
9.671476e+01	-1.858078e+01
9.727338e+01	-1.863118e+01
9.783522e+01	-1.867946e+01
9.840032e+01	-1.872904e+01
9.896867e+01	-1.877796e+01
9.954031e+01	-1.882747e+01
1.001153e+02	-1.887834e+01
1.006935e+02	-1.892826e+01
1.012751e+02	-1.897775e+01
1.018601e+02	-1.902472e+01
1.024484e+02	-1.907483e+01
1.030402e+02	-1.912474e+01
1.036353e+02	-1.917256e+01
1.042339e+02	-1.922284e+01
1.048360e+02	-1.927149e+01
1.054415e+02	-1.932273e+01
1.060505e+02	-1.937082e+01
1.066631e+02	-1.942034e+01
1.072791e+02	-1.947033e+01
1.078988e+02	-1.951865e+01
1.085220e+02	-1.956904e+01
1.091488e+02	-1.961749e+01
1.097793e+02	-1.966790e+01
1.104133e+02	-1.971748e+01
1.110511e+02	-1.976703e+01
1.116925e+02	-1.981722e+01
1.123376e+02	-1.986666e+01
1.129865e+02	-1.991544e+01
1.136391e+02	-1.996568e+01
1.142955e+02	-2.001500e+01
1.149556e+02	-2.006372e+01
1.156196e+02	-2.011419e+01
1.162874e+02	-2.016431e+01
1.169591e+02	-2.021354e+01
1.176347e+02	-2.026391e+01
1.183141e+02	-2.031205e+01
1.189975e+02	-2.036152e+01
1.196848e+02	-2.041237e+01
1.203761e+02	-2.046091e+01
1.210714e+02	-2.051034e+01
1.217707e+02	-2.056069e+01
1.224740e+02	-2.060893e+01
1.231814e+02	-2.065914e+01
1.238929e+02	-2.070874e+01
1.246085e+02	-2.075842e+01
1.253283e+02	-2.080866e+01
1.260522e+02	-2.085758e+01
1.267802e+02	-2.090857e+01
1.275125e+02	-2.095834e+01
1.282490e+02	-2.100807e+01
1.289898e+02	-2.105706e+01
1.297348e+02	-2.110488e+01
1.304842e+02	-2.115593e+01
1.312378e+02	-2.120624e+01
1.319959e+02	-2.125321e+01
1.327583e+02	-2.130385e+01
1.335251e+02	-2.135396e+01
1.342963e+02	-2.140225e+01
1.350720e+02	-2.145359e+01
1.358522e+02	-2.150213e+01
1.366368e+02	-2.155366e+01
1.374260e+02	-2.160340e+01
1.382198e+02	-2.165232e+01
1.390182e+02	-2.170363e+01
1.398211e+02	-2.175194e+01
1.406287e+02	-2.180155e+01
1.414410e+02	-2.185087e+01
1.422579e+02	-2.190142e+01
1.430796e+02	-2.195136e+01
1.439060e+02	-2.199787e+01
1.447372e+02	-2.204785e+01
1.455732e+02	-2.210246e+01
1.464141e+02	-2.214927e+01
1.472597e+02	-2.219850e+01
1.481103e+02	-2.224870e+01
1.489658e+02	-2.229898e+01
1.498262e+02	-2.234802e+01
1.506916e+02	-2.239943e+01
1.515620e+02	-2.244772e+01
1.524374e+02	-2.249977e+01
1.533179e+02	-2.254744e+01
1.542034e+02	-2.259583e+01
1.550941e+02	-2.264835e+01
1.559899e+02	-2.269821e+01
1.568909e+02	-2.274831e+01
1.577971e+02	-2.279742e+01
1.587085e+02	-2.284651e+01
1.596252e+02	-2.289503e+01
1.605472e+02	-2.294564e+01
1.614745e+02	-2.299419e+01
1.624072e+02	-2.304556e+01
1.633453e+02	-2.309376e+01
1.642887e+02	-2.314614e+01
1.652377e+02	-2.319462e+01
1.661921e+02	-2.324500e+01
1.671520e+02	-2.329325e+01
1.681175e+02	-2.334575e+01
1.690885e+02	-2.339168e+01
1.700651e+02	-2.344521e+01
1.710474e+02	-2.349226e+01
1.720354e+02	-2.354183e+01
1.730291e+02	-2.359461e+01
1.740285e+02	-2.364409e+01
1.750337e+02	-2.369141e+01
1.760446e+02	-2.374124e+01
1.770615e+02	-2.379078e+01
1.780842e+02	-2.384444e+01
1.791128e+02	-2.389236e+01
1.801473e+02	-2.394362e+01
1.811878e+02	-2.399256e+01
1.822344e+02	-2.404024e+01
1.832870e+02	-2.409188e+01
1.843456e+02	-2.414201e+01
1.854104e+02	-2.418908e+01
1.864813e+02	-2.424073e+01
1.875584e+02	-2.429087e+01
1.886418e+02	-2.434137e+01
1.897313e+02	-2.439157e+01
1.908272e+02	-2.444188e+01
1.919294e+02	-2.449117e+01
1.930380e+02	-2.454143e+01
1.941530e+02	-2.459240e+01
1.952744e+02	-2.464098e+01
1.964023e+02	-2.469166e+01
1.975367e+02	-2.473569e+01
1.986777e+02	-2.478740e+01
1.998252e+02	-2.484032e+01
2.009794e+02	-2.488893e+01
2.021403e+02	-2.493767e+01
2.033078e+02	-2.499134e+01
2.044821e+02	-2.504264e+01
2.056632e+02	-2.509001e+01
2.068511e+02	-2.513893e+01
2.080459e+02	-2.518939e+01
2.092475e+02	-2.524040e+01
2.104561e+02	-2.528890e+01
2.116717e+02	-2.534036e+01
2.128943e+02	-2.538818e+01
2.141240e+02	-2.543763e+01
2.153608e+02	-2.548908e+01
2.166047e+02	-2.553991e+01
2.178558e+02	-2.558761e+01
2.191141e+02	-2.563823e+01
2.203797e+02	-2.568787e+01
2.216526e+02	-2.574046e+01
2.229329e+02	-2.578884e+01
2.242205e+02	-2.583754e+01
2.255156e+02	-2.588715e+01
2.268182e+02	-2.593981e+01
2.281283e+02	-2.599030e+01
2.294459e+02	-2.603418e+01
2.307712e+02	-2.609071e+01
2.321041e+02	-2.613629e+01
2.334447e+02	-2.618573e+01
2.347931e+02	-2.623617e+01
2.361493e+02	-2.628876e+01
2.375133e+02	-2.633644e+01
2.388851e+02	-2.638641e+01
2.402649e+02	-2.643923e+01
2.416527e+02	-2.648929e+01
2.430484e+02	-2.653764e+01
2.444523e+02	-2.658638e+01
2.458642e+02	-2.663822e+01
2.472843e+02	-2.668757e+01
2.487126e+02	-2.673510e+01
2.501492e+02	-2.678693e+01
2.515940e+02	-2.684015e+01
2.530472e+02	-2.688996e+01
2.545088e+02	-2.693898e+01
2.559789e+02	-2.698543e+01
2.574574e+02	-2.703835e+01
2.589444e+02	-2.708722e+01
2.604401e+02	-2.713971e+01
2.619444e+02	-2.718702e+01
2.634574e+02	-2.723822e+01
2.649791e+02	-2.728749e+01
2.665096e+02	-2.733342e+01
2.680489e+02	-2.739004e+01
2.695972e+02	-2.743784e+01
2.711544e+02	-2.748781e+01
2.727205e+02	-2.754027e+01
2.742958e+02	-2.758689e+01
2.758801e+02	-2.763421e+01
2.774736e+02	-2.768401e+01
2.790762e+02	-2.773847e+01
2.806882e+02	-2.778945e+01
2.823094e+02	-2.783673e+01
2.839400e+02	-2.788716e+01
2.855800e+02	-2.793663e+01
2.872295e+02	-2.798598e+01
2.888886e+02	-2.803759e+01
2.905572e+02	-2.808726e+01
2.922354e+02	-2.813442e+01
2.939234e+02	-2.819244e+01
2.956211e+02	-2.823630e+01
2.973286e+02	-2.829265e+01
2.990459e+02	-2.833748e+01
3.007732e+02	-2.838398e+01
3.025104e+02	-2.844062e+01
3.042577e+02	-2.849424e+01
3.060151e+02	-2.853834e+01
3.077826e+02	-2.858356e+01
3.095604e+02	-2.863742e+01
3.113484e+02	-2.869001e+01
3.131467e+02	-2.873682e+01
3.149554e+02	-2.878804e+01
3.167746e+02	-2.884025e+01
3.186043e+02	-2.888941e+01
3.204445e+02	-2.893736e+01
3.222954e+02	-2.898579e+01
3.241570e+02	-2.904066e+01
3.260293e+02	-2.908804e+01
3.279124e+02	-2.913576e+01
3.298064e+02	-2.918923e+01
3.317114e+02	-2.923651e+01
3.336273e+02	-2.928876e+01
3.355544e+02	-2.933903e+01
3.374925e+02	-2.938979e+01
3.394418e+02	-2.944027e+01
3.414024e+02	-2.948972e+01
3.433744e+02	-2.953561e+01
3.453577e+02	-2.958515e+01
3.473525e+02	-2.964068e+01
3.493588e+02	-2.968953e+01
3.513766e+02	-2.973676e+01
3.534062e+02	-2.978970e+01
3.554474e+02	-2.983570e+01
3.575005e+02	-2.988950e+01
3.595654e+02	-2.993357e+01
3.616422e+02	-2.999179e+01
3.637311e+02	-3.003365e+01
3.658320e+02	-3.008947e+01
3.679450e+02	-3.013830e+01
3.700702e+02	-3.019037e+01
3.722077e+02	-3.023957e+01
3.743576e+02	-3.028485e+01
3.765199e+02	-3.034176e+01
3.786946e+02	-3.038957e+01
3.808820e+02	-3.043874e+01
3.830819e+02	-3.048796e+01
3.852946e+02	-3.054190e+01
3.875200e+02	-3.059148e+01
3.897583e+02	-3.063901e+01
3.920096e+02	-3.069601e+01
3.942738e+02	-3.074310e+01
3.965511e+02	-3.078861e+01
3.988416e+02	-3.084172e+01
4.011452e+02	-3.089322e+01
4.034622e+02	-3.094122e+01
4.057926e+02	-3.098694e+01
4.081365e+02	-3.104458e+01
4.104938e+02	-3.109483e+01
4.128648e+02	-3.114690e+01
4.152495e+02	-3.119592e+01
4.176480e+02	-3.123588e+01
4.200603e+02	-3.128908e+01
4.224866e+02	-3.134175e+01
4.249268e+02	-3.139520e+01
4.273812e+02	-3.143974e+01
4.298497e+02	-3.149155e+01
4.323325e+02	-3.153875e+01
4.348297e+02	-3.159455e+01
4.373412e+02	-3.164384e+01
4.398673e+02	-3.169120e+01
4.424079e+02	-3.174210e+01
4.449633e+02	-3.179559e+01
4.475334e+02	-3.184128e+01
4.501183e+02	-3.189139e+01
4.527182e+02	-3.194517e+01
4.553330e+02	-3.200012e+01
4.579630e+02	-3.204698e+01
4.606082e+02	-3.209521e+01
4.632687e+02	-3.215117e+01
4.659445e+02	-3.219511e+01
4.686358e+02	-3.224135e+01
4.713426e+02	-3.229953e+01
4.740650e+02	-3.234390e+01
4.768032e+02	-3.239835e+01
4.795572e+02	-3.244433e+01
4.823271e+02	-3.249893e+01
4.851130e+02	-3.254653e+01
4.879150e+02	-3.259871e+01
4.907332e+02	-3.264766e+01
4.935676e+02	-3.270316e+01
4.964185e+02	-3.275271e+01
4.992858e+02	-3.279663e+01
5.021696e+02	-3.285117e+01
5.050701e+02	-3.290303e+01
5.079874e+02	-3.295335e+01
5.109215e+02	-3.299760e+01
5.138726e+02	-3.305608e+01
5.168407e+02	-3.310012e+01
5.198259e+02	-3.315672e+01
5.228284e+02	-3.319499e+01
5.258482e+02	-3.324846e+01
5.288855e+02	-3.329409e+01
5.319403e+02	-3.335020e+01
5.350128e+02	-3.339218e+01
5.381030e+02	-3.344856e+01
5.412111e+02	-3.350832e+01
5.443371e+02	-3.355124e+01
5.474812e+02	-3.359952e+01
5.506434e+02	-3.365726e+01
5.538239e+02	-3.371115e+01
5.570228e+02	-3.374253e+01
5.602401e+02	-3.380821e+01
5.634760e+02	-3.385224e+01
5.667306e+02	-3.391424e+01
5.700040e+02	-3.395551e+01
5.732964e+02	-3.400396e+01
5.766077e+02	-3.405422e+01
5.799382e+02	-3.411341e+01
5.832879e+02	-3.415760e+01
5.866569e+02	-3.421520e+01
5.900454e+02	-3.425309e+01
5.934535e+02	-3.429915e+01
5.968813e+02	-3.435836e+01
6.003288e+02	-3.440615e+01
6.037963e+02	-3.445948e+01
6.072838e+02	-3.449960e+01
6.107914e+02	-3.455274e+01
6.143194e+02	-3.461394e+01
6.178676e+02	-3.466280e+01
6.214364e+02	-3.471452e+01
6.250258e+02	-3.475829e+01
6.286359e+02	-3.480789e+01
6.322669e+02	-3.485893e+01
6.359189e+02	-3.490718e+01
6.395919e+02	-3.496160e+01
6.432862e+02	-3.501758e+01
6.470017e+02	-3.507286e+01
6.507388e+02	-3.511771e+01
6.544974e+02	-3.516857e+01
6.582778e+02	-3.521737e+01
6.620800e+02	-3.526668e+01
6.659041e+02	-3.531636e+01
6.697504e+02	-3.536050e+01
6.736188e+02	-3.541823e+01
6.775096e+02	-3.546483e+01
6.814229e+02	-3.552089e+01
6.853587e+02	-3.557935e+01
6.893173e+02	-3.561743e+01
6.932988e+02	-3.567809e+01
6.973033e+02	-3.571547e+01
7.013309e+02	-3.576789e+01
