Frequency(Hz)	Magnitude(dB)
1.000000e+01	-2.045993e+00
1.005776e+01	-2.064691e+00
1.011585e+01	-2.083809e+00
1.017428e+01	-2.102637e+00
1.023305e+01	-2.122142e+00
1.029215e+01	-2.141354e+00
1.035160e+01	-2.161113e+00
1.041139e+01	-2.180851e+00
1.047153e+01	-2.200364e+00
1.053201e+01	-2.220668e+00
1.059284e+01	-2.240703e+00
1.065403e+01	-2.261011e+00
1.071556e+01	-2.281311e+00
1.077746e+01	-2.301680e+00
1.083971e+01	-2.322442e+00
1.090232e+01	-2.343195e+00
1.096529e+01	-2.364355e+00
1.102862e+01	-2.385218e+00
1.109232e+01	-2.406482e+00
1.115639e+01	-2.427915e+00
1.122083e+01	-2.449144e+00
1.128564e+01	-2.470908e+00
1.135083e+01	-2.492498e+00
1.141639e+01	-2.514572e+00
1.148233e+01	-2.536550e+00
1.154865e+01	-2.558971e+00
1.161536e+01	-2.581142e+00
1.168245e+01	-2.603741e+00
1.174992e+01	-2.626267e+00
1.181779e+01	-2.649280e+00
1.188605e+01	-2.671880e+00
1.195470e+01	-2.694978e+00
1.202375e+01	-2.718122e+00
1.209320e+01	-2.741554e+00
1.216305e+01	-2.765100e+00
1.223330e+01	-2.788596e+00
1.230396e+01	-2.812459e+00
1.237503e+01	-2.836449e+00
1.244651e+01	-2.860489e+00
1.251840e+01	-2.884697e+00
1.259070e+01	-2.908989e+00
1.266343e+01	-2.933484e+00
1.273657e+01	-2.958316e+00
1.281014e+01	-2.983177e+00
1.288413e+01	-3.007998e+00
1.295855e+01	-3.032830e+00
1.303339e+01	-3.058218e+00
1.310867e+01	-3.083291e+00
1.318439e+01	-3.109175e+00
1.326054e+01	-3.134545e+00
1.333713e+01	-3.160458e+00
1.341417e+01	-3.186508e+00
1.349165e+01	-3.212484e+00
1.356958e+01	-3.238708e+00
1.364795e+01	-3.265011e+00
1.372678e+01	-3.291774e+00
1.380607e+01	-3.318148e+00
1.388581e+01	-3.345198e+00
1.396602e+01	-3.371886e+00
1.404668e+01	-3.399256e+00
1.412782e+01	-3.426212e+00
1.420942e+01	-3.453342e+00
1.429149e+01	-3.481224e+00
1.437404e+01	-3.508761e+00
1.445706e+01	-3.536432e+00
1.454057e+01	-3.564593e+00
1.462455e+01	-3.592666e+00
1.470902e+01	-3.620929e+00
1.479398e+01	-3.649274e+00
1.487943e+01	-3.677947e+00
1.496537e+01	-3.706183e+00
1.505181e+01	-3.735057e+00
1.513875e+01	-3.764058e+00
1.522619e+01	-3.793398e+00
1.531414e+01	-3.822529e+00
1.540259e+01	-3.851637e+00
1.549156e+01	-3.881314e+00
1.558103e+01	-3.910779e+00
1.567103e+01	-3.940654e+00
1.576155e+01	-3.970461e+00
1.585258e+01	-4.000846e+00
1.594415e+01	-4.030872e+00
1.603624e+01	-4.060909e+00
1.612886e+01	-4.091477e+00
1.622202e+01	-4.122240e+00
1.631572e+01	-4.152889e+00
1.640996e+01	-4.183614e+00
1.650474e+01	-4.214531e+00
1.660008e+01	-4.245895e+00
1.669596e+01	-4.277278e+00
1.679239e+01	-4.308569e+00
1.688938e+01	-4.340170e+00
1.698694e+01	-4.371675e+00
1.708505e+01	-4.403489e+00
1.718373e+01	-4.435325e+00
1.728299e+01	-4.467582e+00
1.738281e+01	-4.499686e+00
1.748322e+01	-4.531753e+00
1.758420e+01	-4.564444e+00
1.768576e+01	-4.597349e+00
1.778792e+01	-4.629888e+00
1.789066e+01	-4.662685e+00
1.799399e+01	-4.695360e+00
1.809793e+01	-4.728943e+00
1.820246e+01	-4.761976e+00
1.830760e+01	-4.795347e+00
1.841334e+01	-4.828697e+00
1.851969e+01	-4.862796e+00
1.862666e+01	-4.896188e+00
1.873425e+01	-4.930457e+00
1.884246e+01	-4.964446e+00
1.895129e+01	-4.998421e+00
1.906075e+01	-5.032874e+00
1.917085e+01	-5.067267e+00
1.928158e+01	-5.101750e+00
1.939295e+01	-5.136350e+00
1.950496e+01	-5.171025e+00
1.961762e+01	-5.205787e+00
1.973093e+01	-5.240659e+00
1.984490e+01	-5.276161e+00
1.995952e+01	-5.311111e+00
2.007480e+01	-5.346427e+00
2.019076e+01	-5.382137e+00
2.030738e+01	-5.417374e+00
2.042467e+01	-5.453298e+00
2.054264e+01	-5.489219e+00
2.066130e+01	-5.525455e+00
2.078064e+01	-5.561110e+00
2.090066e+01	-5.597340e+00
2.102139e+01	-5.633729e+00
2.114280e+01	-5.670246e+00
2.126492e+01	-5.706288e+00
2.138775e+01	-5.743252e+00
2.151128e+01	-5.780051e+00
2.163553e+01	-5.816871e+00
2.176050e+01	-5.853939e+00
2.188619e+01	-5.890916e+00
2.201260e+01	-5.928256e+00
2.213974e+01	-5.965721e+00
2.226762e+01	-6.002841e+00
2.239624e+01	-6.040181e+00
2.252560e+01	-6.078050e+00
2.265571e+01	-6.115761e+00
2.278656e+01	-6.153457e+00
2.291818e+01	-6.191508e+00
2.305055e+01	-6.229947e+00
2.318369e+01	-6.267488e+00
2.331760e+01	-6.306265e+00
2.345228e+01	-6.344242e+00
2.358774e+01	-6.382815e+00
2.372398e+01	-6.421272e+00
2.386101e+01	-6.460186e+00
2.399883e+01	-6.499076e+00
2.413745e+01	-6.537826e+00
2.427686e+01	-6.576721e+00
2.441709e+01	-6.615563e+00
2.455812e+01	-6.655139e+00
2.469997e+01	-6.693923e+00
2.484263e+01	-6.733662e+00
2.498612e+01	-6.773254e+00
2.513044e+01	-6.812560e+00
2.527559e+01	-6.852192e+00
2.542158e+01	-6.892365e+00
2.556842e+01	-6.931962e+00
2.571610e+01	-6.972095e+00
2.586463e+01	-7.012057e+00
2.601403e+01	-7.052049e+00
2.616428e+01	-7.092031e+00
2.631541e+01	-7.132259e+00
2.646740e+01	-7.172897e+00
2.662028e+01	-7.213404e+00
2.677404e+01	-7.253881e+00
2.692868e+01	-7.294980e+00
2.708422e+01	-7.334982e+00
2.724066e+01	-7.376021e+00
2.739800e+01	-7.417352e+00
2.755625e+01	-7.457818e+00
2.771541e+01	-7.499034e+00
2.787550e+01	-7.540362e+00
2.803650e+01	-7.581473e+00
2.819844e+01	-7.623026e+00
2.836131e+01	-7.664316e+00
2.852513e+01	-7.705964e+00
2.868989e+01	-7.747561e+00
2.885560e+01	-7.788887e+00
2.902227e+01	-7.830584e+00
2.918990e+01	-7.872753e+00
2.935850e+01	-7.914762e+00
2.952807e+01	-7.956133e+00
2.969863e+01	-7.998512e+00
2.987016e+01	-8.040715e+00
3.004269e+01	-8.082962e+00
3.021622e+01	-8.124965e+00
3.039075e+01	-8.167596e+00
3.056628e+01	-8.209971e+00
3.074283e+01	-8.252372e+00
3.092040e+01	-8.294884e+00
3.109900e+01	-8.337877e+00
3.127862e+01	-8.380611e+00
3.145929e+01	-8.422831e+00
3.164099e+01	-8.466186e+00
3.182375e+01	-8.509028e+00
3.200756e+01	-8.551971e+00
3.219244e+01	-8.595031e+00
3.237838e+01	-8.638286e+00
3.256540e+01	-8.681200e+00
3.275349e+01	-8.725185e+00
3.294268e+01	-8.767945e+00
3.313295e+01	-8.811694e+00
3.332433e+01	-8.854908e+00
3.351681e+01	-8.898722e+00
3.371040e+01	-8.942277e+00
3.390511e+01	-8.985596e+00
3.410094e+01	-9.029705e+00
3.429791e+01	-9.073446e+00
3.449601e+01	-9.117028e+00
3.469526e+01	-9.160982e+00
3.489566e+01	-9.205188e+00
3.509721e+01	-9.249059e+00
3.529993e+01	-9.293408e+00
3.550382e+01	-9.337373e+00
3.570889e+01	-9.381798e+00
3.591515e+01	-9.425816e+00
3.612259e+01	-9.470660e+00
3.633123e+01	-9.515139e+00
3.654108e+01	-9.559407e+00
3.675214e+01	-9.603925e+00
3.696442e+01	-9.648311e+00
3.717792e+01	-9.693275e+00
3.739266e+01	-9.737515e+00
3.760864e+01	-9.781963e+00
3.782587e+01	-9.827303e+00
3.804435e+01	-9.872583e+00
3.826409e+01	-9.916455e+00
3.848510e+01	-9.961697e+00
3.870739e+01	-1.000669e+01
3.893096e+01	-1.005223e+01
3.915583e+01	-1.009699e+01
3.938199e+01	-1.014212e+01
3.960946e+01	-1.018751e+01
3.983824e+01	-1.023350e+01
4.006834e+01	-1.027806e+01
4.029978e+01	-1.032389e+01
4.053255e+01	-1.036876e+01
4.076666e+01	-1.041421e+01
4.100213e+01	-1.045991e+01
4.123896e+01	-1.050534e+01
4.147715e+01	-1.055037e+01
4.171672e+01	-1.059624e+01
4.195767e+01	-1.064182e+01
4.220002e+01	-1.068774e+01
4.244377e+01	-1.073400e+01
4.268892e+01	-1.077951e+01
4.293549e+01	-1.082557e+01
4.318348e+01	-1.087145e+01
4.343291e+01	-1.091710e+01
4.368377e+01	-1.096319e+01
4.393609e+01	-1.100903e+01
4.418986e+01	-1.105544e+01
4.444510e+01	-1.110142e+01
4.470182e+01	-1.114728e+01
4.496001e+01	-1.119363e+01
4.521970e+01	-1.123978e+01
4.548089e+01	-1.128596e+01
4.574358e+01	-1.133266e+01
4.600779e+01	-1.137937e+01
4.627353e+01	-1.142543e+01
4.654081e+01	-1.147234e+01
4.680963e+01	-1.151865e+01
4.708000e+01	-1.156469e+01
4.735193e+01	-1.161140e+01
4.762543e+01	-1.165818e+01
4.790051e+01	-1.170442e+01
4.817719e+01	-1.175086e+01
4.845545e+01	-1.179765e+01
4.873533e+01	-1.184441e+01
4.901682e+01	-1.189168e+01
4.929994e+01	-1.193808e+01
4.958470e+01	-1.198525e+01
4.987110e+01	-1.203182e+01
5.015915e+01	-1.207921e+01
5.044887e+01	-1.212590e+01
5.074026e+01	-1.217261e+01
5.103333e+01	-1.222011e+01
5.132810e+01	-1.226634e+01
5.162457e+01	-1.231342e+01
5.192275e+01	-1.236133e+01
5.222265e+01	-1.240822e+01
5.252429e+01	-1.245582e+01
5.282767e+01	-1.250221e+01
5.313280e+01	-1.254993e+01
5.343969e+01	-1.259679e+01
5.374836e+01	-1.264451e+01
5.405880e+01	-1.269161e+01
5.437105e+01	-1.273942e+01
5.468509e+01	-1.278640e+01
5.500095e+01	-1.283385e+01
5.531863e+01	-1.288057e+01
5.563815e+01	-1.292861e+01
5.595951e+01	-1.297638e+01
5.628273e+01	-1.302389e+01
5.660782e+01	-1.307095e+01
5.693479e+01	-1.311879e+01
5.726364e+01	-1.316633e+01
5.759439e+01	-1.321468e+01
5.792705e+01	-1.326203e+01
5.826164e+01	-1.330996e+01
5.859815e+01	-1.335760e+01
5.893662e+01	-1.340506e+01
5.927703e+01	-1.345257e+01
5.961941e+01	-1.350057e+01
5.996377e+01	-1.354906e+01
6.031012e+01	-1.359624e+01
6.065847e+01	-1.364404e+01
6.100883e+01	-1.369223e+01
6.136121e+01	-1.374010e+01
6.171563e+01	-1.378769e+01
6.207210e+01	-1.383525e+01
6.243063e+01	-1.388390e+01
6.279122e+01	-1.393131e+01
6.315390e+01	-1.397957e+01
6.351868e+01	-1.402766e+01
6.388556e+01	-1.407536e+01
6.425456e+01	-1.412388e+01
6.462569e+01	-1.417185e+01
6.499897e+01	-1.421951e+01
6.537440e+01	-1.426803e+01
6.575200e+01	-1.431577e+01
6.613178e+01	-1.436378e+01
6.651375e+01	-1.441279e+01
6.689793e+01	-1.446026e+01
6.728433e+01	-1.450862e+01
6.767297e+01	-1.455778e+01
6.806384e+01	-1.460549e+01
6.845698e+01	-1.465455e+01
6.885238e+01	-1.470311e+01
6.925007e+01	-1.475065e+01
6.965005e+01	-1.479953e+01
7.005235e+01	-1.484711e+01
7.045697e+01	-1.489532e+01
7.086393e+01	-1.494406e+01
7.127323e+01	-1.499198e+01
7.168490e+01	-1.504121e+01
7.209895e+01	-1.508944e+01
7.251539e+01	-1.513882e+01
7.293424e+01	-1.518737e+01
7.335551e+01	-1.523465e+01
7.377920e+01	-1.528395e+01
7.420535e+01	-1.533298e+01
7.463396e+01	-1.537999e+01
7.506504e+01	-1.542972e+01
7.549861e+01	-1.547730e+01
7.593469e+01	-1.552679e+01
7.637328e+01	-1.557540e+01
7.681441e+01	-1.562403e+01
7.725809e+01	-1.567251e+01
7.770433e+01	-1.572155e+01
7.815315e+01	-1.577031e+01
7.860456e+01	-1.581950e+01
7.905857e+01	-1.586735e+01
7.951521e+01	-1.591570e+01
7.997449e+01	-1.596630e+01
8.043642e+01	-1.601380e+01
8.090102e+01	-1.606250e+01
8.136830e+01	-1.611160e+01
8.183828e+01	-1.616016e+01
8.231097e+01	-1.620802e+01
8.278640e+01	-1.625786e+01
8.326457e+01	-1.630709e+01
8.374550e+01	-1.635614e+01
8.422921e+01	-1.640390e+01
8.471572e+01	-1.645439e+01
8.520503e+01	-1.650289e+01
8.569717e+01	-1.655096e+01
8.619215e+01	-1.660019e+01
8.669000e+01	-1.664815e+01
8.719071e+01	-1.669842e+01
8.769432e+01	-1.674794e+01
8.820084e+01	-1.679556e+01
8.871029e+01	-1.684480e+01
8.922267e+01	-1.689331e+01
8.973802e+01	-1.694174e+01
9.025634e+01	-1.699206e+01
9.077766e+01	-1.703976e+01
9.130199e+01	-1.709072e+01
9.182935e+01	-1.713860e+01
9.235975e+01	-1.718844e+01
9.289321e+01	-1.723699e+01
9.342976e+01	-1.728582e+01
9.396941e+01	-1.733476e+01
9.451217e+01	-1.738411e+01
9.505807e+01	-1.743328e+01
9.560712e+01	-1.748268e+01
9.615934e+01	-1.753218e+01
9.671476e+01	-1.758174e+01
9.727338e+01	-1.763120e+01
9.783522e+01	-1.767941e+01
9.840032e+01	-1.772716e+01
9.896867e+01	-1.777838e+01
9.954031e+01	-1.782685e+01
1.001153e+02	-1.787574e+01
1.006935e+02	-1.792601e+01
1.012751e+02	-1.797492e+01
1.018601e+02	-1.802406e+01
1.024484e+02	-1.807258e+01
1.030402e+02	-1.812136e+01
1.036353e+02	-1.817263e+01
1.042339e+02	-1.822083e+01
1.048360e+02	-1.826929e+01
1.054415e+02	-1.832012e+01
1.060505e+02	-1.836770e+01
1.066631e+02	-1.841783e+01
1.072791e+02	-1.846830e+01
1.078988e+02	-1.851736e+01
1.085220e+02	-1.856546e+01
1.091488e+02	-1.861555e+01
1.097793e+02	-1.866413e+01
1.104133e+02	-1.871408e+01
1.110511e+02	-1.876236e+01
1.116925e+02	-1.881357e+01
1.123376e+02	-1.886305e+01
1.129865e+02	-1.891147e+01
1.136391e+02	-1.896080e+01
1.142955e+02	-1.901115e+01
1.149556e+02	-1.906040e+01
1.156196e+02	-1.910936e+01
1.162874e+02	-1.915901e+01
1.169591e+02	-1.920951e+01
1.176347e+02	-1.925731e+01
1.183141e+02	-1.930629e+01
1.189975e+02	-1.935736e+01
1.196848e+02	-1.940508e+01
1.203761e+02	-1.945410e+01
1.210714e+02	-1.950529e+01
1.217707e+02	-1.955449e+01
1.224740e+02	-1.960630e+01
1.231814e+02	-1.965280e+01
1.238929e+02	-1.970353e+01
1.246085e+02	-1.975123e+01
1.253283e+02	-1.980321e+01
1.260522e+02	-1.985141e+01
1.267802e+02	-1.990171e+01
1.275125e+02	-1.995018e+01
1.282490e+02	-2.000179e+01
1.289898e+02	-2.004879e+01
1.297348e+02	-2.010008e+01
1.304842e+02	-2.014893e+01
1.312378e+02	-2.019719e+01
1.319959e+02	-2.024755e+01
1.327583e+02	-2.029801e+01
1.335251e+02	-2.034765e+01
1.342963e+02	-2.039618e+01
1.350720e+02	-2.044439e+01
1.358522e+02	-2.049646e+01
1.366368e+02	-2.054422e+01
1.374260e+02	-2.059514e+01
1.382198e+02	-2.064336e+01
1.390182e+02	-2.069439e+01
1.398211e+02	-2.074137e+01
1.406287e+02	-2.079369e+01
1.414410e+02	-2.084404e+01
1.422579e+02	-2.089037e+01
1.430796e+02	-2.094231e+01
1.439060e+02	-2.099181e+01
1.447372e+02	-2.104050e+01
1.455732e+02	-2.108929e+01
1.464141e+02	-2.114067e+01
1.472597e+02	-2.119141e+01
1.481103e+02	-2.123893e+01
1.489658e+02	-2.128902e+01
1.498262e+02	-2.133988e+01
1.506916e+02	-2.138647e+01
1.515620e+02	-2.143769e+01
1.524374e+02	-2.148682e+01
1.533179e+02	-2.153884e+01
1.542034e+02	-2.158769e+01
1.550941e+02	-2.163773e+01
1.559899e+02	-2.168767e+01
1.568909e+02	-2.173796e+01
1.577971e+02	-2.178794e+01
1.587085e+02	-2.183629e+01
1.596252e+02	-2.188679e+01
1.605472e+02	-2.193604e+01
1.614745e+02	-2.198312e+01
1.624072e+02	-2.203556e+01
1.633453e+02	-2.208584e+01
1.642887e+02	-2.213377e+01
1.652377e+02	-2.218449e+01
1.661921e+02	-2.223522e+01
1.671520e+02	-2.228329e+01
1.681175e+02	-2.233430e+01
1.690885e+02	-2.238415e+01
1.700651e+02	-2.243322e+01
1.710474e+02	-2.248213e+01
1.720354e+02	-2.253354e+01
1.730291e+02	-2.258385e+01
1.740285e+02	-2.263280e+01
1.750337e+02	-2.268218e+01
1.760446e+02	-2.273305e+01
1.770615e+02	-2.278201e+01
1.780842e+02	-2.283169e+01
1.791128e+02	-2.287982e+01
1.801473e+02	-2.292987e+01
1.811878e+02	-2.298333e+01
1.822344e+02	-2.302892e+01
1.832870e+02	-2.308107e+01
1.843456e+02	-2.313215e+01
1.854104e+02	-2.318219e+01
1.864813e+02	-2.322878e+01
1.875584e+02	-2.327845e+01
1.886418e+02	-2.333007e+01
1.897313e+02	-2.337860e+01
1.908272e+02	-2.343104e+01
1.919294e+02	-2.348025e+01
1.930380e+02	-2.352889e+01
1.941530e+02	-2.357704e+01
1.952744e+02	-2.362866e+01
1.964023e+02	-2.367876e+01
1.975367e+02	-2.372822e+01
1.986777e+02	-2.377813e+01
1.998252e+02	-2.383033e+01
2.009794e+02	-2.388055e+01
2.021403e+02	-2.392931e+01
2.033078e+02	-2.397760e+01
2.044821e+02	-2.402702e+01
2.056632e+02	-2.407766e+01
2.068511e+02	-2.412915e+01
2.080459e+02	-2.417802e+01
2.092475e+02	-2.422534e+01
2.104561e+02	-2.427605e+01
2.116717e+02	-2.432634e+01
2.128943e+02	-2.437379e+01
2.141240e+02	-2.442662e+01
2.153608e+02	-2.447638e+01
2.166047e+02	-2.452530e+01
2.178558e+02	-2.457379e+01
2.191141e+02	-2.462205e+01
2.203797e+02	-2.467612e+01
2.216526e+02	-2.472504e+01
2.229329e+02	-2.477565e+01
2.242205e+02	-2.482481e+01
2.255156e+02	-2.487440e+01
2.268182e+02	-2.492732e+01
2.281283e+02	-2.497401e+01
2.294459e+02	-2.502304e+01
2.307712e+02	-2.507324e+01
2.321041e+02	-2.512423e+01
2.334447e+02	-2.517333e+01
2.347931e+02	-2.522343e+01
2.361493e+02	-2.527370e+01
2.375133e+02	-2.532328e+01
2.388851e+02	-2.536977e+01
2.402649e+02	-2.542555e+01
2.416527e+02	-2.547240e+01
2.430484e+02	-2.552456e+01
2.444523e+02	-2.557793e+01
2.458642e+02	-2.562605e+01
2.472843e+02	-2.567376e+01
2.487126e+02	-2.572198e+01
2.501492e+02	-2.577355e+01
2.515940e+02	-2.582131e+01
2.530472e+02	-2.587276e+01
2.545088e+02	-2.592496e+01
2.559789e+02	-2.597189e+01
2.574574e+02	-2.602440e+01
2.589444e+02	-2.607059e+01
2.604401e+02	-2.612538e+01
2.619444e+02	-2.617201e+01
2.634574e+02	-2.622472e+01
2.649791e+02	-2.627369e+01
2.665096e+02	-2.632515e+01
2.680489e+02	-2.637226e+01
2.695972e+02	-2.642479e+01
2.711544e+02	-2.647162e+01
2.727205e+02	-2.652535e+01
2.742958e+02	-2.657149e+01
2.758801e+02	-2.662402e+01
2.774736e+02	-2.667494e+01
2.790762e+02	-2.671932e+01
2.806882e+02	-2.677282e+01
2.823094e+02	-2.682145e+01
2.839400e+02	-2.687556e+01
2.855800e+02	-2.692355e+01
2.872295e+02	-2.697361e+01
2.888886e+02	-2.702508e+01
2.905572e+02	-2.707050e+01
2.922354e+02	-2.712523e+01
2.939234e+02	-2.717431e+01
2.956211e+02	-2.721933e+01
2.973286e+02	-2.727405e+01
2.990459e+02	-2.732532e+01
3.007732e+02	-2.736765e+01
3.025104e+02	-2.742482e+01
3.042577e+02	-2.747240e+01
3.060151e+02	-2.752676e+01
3.077826e+02	-2.757176e+01
3.095604e+02	-2.762620e+01
3.113484e+02	-2.767602e+01
3.131467e+02	-2.772196e+01
3.149554e+02	-2.777335e+01
3.167746e+02	-2.782137e+01
3.186043e+02	-2.787382e+01
3.204445e+02	-2.792405e+01
3.222954e+02	-2.797515e+01
3.241570e+02	-2.802289e+01
3.260293e+02	-2.807137e+01
3.279124e+02	-2.812548e+01
3.298064e+02	-2.817292e+01
3.317114e+02	-2.822231e+01
3.336273e+02	-2.827202e+01
3.355544e+02	-2.832513e+01
3.374925e+02	-2.837827e+01
3.394418e+02	-2.842535e+01
3.414024e+02	-2.847154e+01
3.433744e+02	-2.852415e+01
3.453577e+02	-2.857479e+01
3.473525e+02	-2.861980e+01
3.493588e+02	-2.867580e+01
3.513766e+02	-2.872387e+01
3.534062e+02	-2.877679e+01
3.554474e+02	-2.882508e+01
3.575005e+02	-2.887296e+01
3.595654e+02	-2.892479e+01
3.616422e+02	-2.897829e+01
3.637311e+02	-2.902244e+01
3.658320e+02	-2.907353e+01
3.679450e+02	-2.912422e+01
3.700702e+02	-2.917566e+01
3.722077e+02	-2.922249e+01
3.743576e+02	-2.927342e+01
3.765199e+02	-2.932944e+01
3.786946e+02	-2.937405e+01
3.808820e+02	-2.942321e+01
3.830819e+02	-2.947628e+01
3.852946e+02	-2.952292e+01
3.875200e+02	-2.957564e+01
3.897583e+02	-2.962399e+01
3.920096e+02	-2.967659e+01
3.942738e+02	-2.972164e+01
3.965511e+02	-2.977618e+01
3.988416e+02	-2.982402e+01
4.011452e+02	-2.987402e+01
4.034622e+02	-2.991959e+01
4.057926e+02	-2.997569e+01
4.081365e+02	-3.002007e+01
4.104938e+02	-3.007882e+01
4.128648e+02	-3.012721e+01
4.152495e+02	-3.017278e+01
4.176480e+02	-3.022837e+01
4.200603e+02	-3.027641e+01
4.224866e+02	-3.033430e+01
4.249268e+02	-3.037862e+01
4.273812e+02	-3.042058e+01
4.298497e+02	-3.047480e+01
4.323325e+02	-3.053985e+01
4.348297e+02	-3.057853e+01
4.373412e+02	-3.062561e+01
4.398673e+02	-3.068046e+01
4.424079e+02	-3.072539e+01
4.449633e+02	-3.078203e+01
4.475334e+02	-3.083136e+01
4.501183e+02	-3.087409e+01
4.527182e+02	-3.092769e+01
4.553330e+02	-3.097971e+01
4.579630e+02	-3.102372e+01
4.606082e+02	-3.108152e+01
4.632687e+02	-3.112613e+01
4.659445e+02	-3.117572e+01
4.686358e+02	-3.123010e+01
4.713426e+02	-3.128392e+01
4.740650e+02	-3.132973e+01
4.768032e+02	-3.138577e+01
4.795572e+02	-3.143156e+01
4.823271e+02	-3.148376e+01
4.851130e+02	-3.153107e+01
4.879150e+02	-3.157944e+01
4.907332e+02	-3.162355e+01
4.935676e+02	-3.168148e+01
4.964185e+02	-3.173172e+01
4.992858e+02	-3.178570e+01
5.021696e+02	-3.182406e+01
5.050701e+02	-3.188190e+01
5.079874e+02	-3.192481e+01
5.109215e+02	-3.198261e+01
5.138726e+02	-3.203743e+01
5.168407e+02	-3.208219e+01
5.198259e+02	-3.212855e+01
5.228284e+02	-3.217988e+01
5.258482e+02	-3.222798e+01
5.288855e+02	-3.228206e+01
5.319403e+02	-3.232923e+01
5.350128e+02	-3.238619e+01
5.381030e+02	-3.243728e+01
5.412111e+02	-3.248697e+01
5.443371e+02	-3.253815e+01
5.474812e+02	-3.258287e+01
5.506434e+02	-3.263499e+01
5.538239e+02	-3.267867e+01
5.570228e+02	-3.273533e+01
5.602401e+02	-3.279273e+01
5.634760e+02	-3.283885e+01
5.667306e+02	-3.289060e+01
5.700040e+02	-3.293990e+01
5.732964e+02	-3.298187e+01
5.766077e+02	-3.303787e+01
5.799382e+02	-3.308334e+01
5.832879e+02	-3.313898e+01
5.866569e+02	-3.318087e+01
5.900454e+02	-3.323372e+01
5.934535e+02	-3.329169e+01
5.968813e+02	-3.334280e+01
6.003288e+02	-3.339237e+01
6.037963e+02	-3.344864e+01
6.072838e+02	-3.348952e+01
6.107914e+02	-3.353917e+01
6.143194e+02	-3.359460e+01
6.178676e+02	-3.363361e+01
6.214364e+02	-3.368572e+01
6.250258e+02	-3.374407e+01
6.286359e+02	-3.379451e+01
6.322669e+02	-3.384337e+01
6.359189e+02	-3.389506e+01
6.395919e+02	-3.394116e+01
6.432862e+02	-3.399477e+01
6.470017e+02	-3.404280e+01
6.507388e+02	-3.409176e+01
6.544974e+02	-3.414538e+01
6.582778e+02	-3.419511e+01
6.620800e+02	-3.425375e+01
6.659041e+02	-3.429801e+01
6.697504e+02	-3.435090e+01
6.736188e+02	-3.439257e+01
6.775096e+02	-3.444299e+01
6.814229e+02	-3.449641e+01
6.853587e+02	-3.453665e+01
6.893173e+02	-3.459332e+01
6.932988e+02	-3.464574e+01
6.973033e+02	-3.469916e+01
7.013309e+02	-3.474553e+01
