Frequency(Hz)	Magnitude(dB)
1.000000e+01	-1.891909e+00
1.005776e+01	-1.909530e+00
1.011585e+01	-1.927597e+00
1.017428e+01	-1.945595e+00
1.023305e+01	-1.963619e+00
1.029215e+01	-1.981728e+00
1.035160e+01	-2.000226e+00
1.041139e+01	-2.018952e+00
1.047153e+01	-2.037499e+00
1.053201e+01	-2.056352e+00
1.059284e+01	-2.075123e+00
1.065403e+01	-2.094256e+00
1.071556e+01	-2.113464e+00
1.077746e+01	-2.133026e+00
1.083971e+01	-2.152320e+00
1.090232e+01	-2.172009e+00
1.096529e+01	-2.191772e+00
1.102862e+01	-2.211661e+00
1.109232e+01	-2.231696e+00
1.115639e+01	-2.251771e+00
1.122083e+01	-2.272350e+00
1.128564e+01	-2.292556e+00
1.135083e+01	-2.313356e+00
1.141639e+01	-2.333848e+00
1.148233e+01	-2.354727e+00
1.154865e+01	-2.375640e+00
1.161536e+01	-2.396865e+00
1.168245e+01	-2.418360e+00
1.174992e+01	-2.439763e+00
1.181779e+01	-2.461366e+00
1.188605e+01	-2.482944e+00
1.195470e+01	-2.504547e+00
1.202375e+01	-2.526664e+00
1.209320e+01	-2.548905e+00
1.216305e+01	-2.571323e+00
1.223330e+01	-2.593408e+00
1.230396e+01	-2.616288e+00
1.237503e+01	-2.638874e+00
1.244651e+01	-2.661780e+00
1.251840e+01	-2.684442e+00
1.259070e+01	-2.707715e+00
1.266343e+01	-2.731126e+00
1.273657e+01	-2.754610e+00
1.281014e+01	-2.778163e+00
1.288413e+01	-2.801737e+00
1.295855e+01	-2.825792e+00
1.303339e+01	-2.849834e+00
1.310867e+01	-2.873556e+00
1.318439e+01	-2.898236e+00
1.326054e+01	-2.922753e+00
1.333713e+01	-2.947040e+00
1.341417e+01	-2.971818e+00
1.349165e+01	-2.996915e+00
1.356958e+01	-3.021713e+00
1.364795e+01	-3.046629e+00
1.372678e+01	-3.072225e+00
1.380607e+01	-3.097611e+00
1.388581e+01	-3.123121e+00
1.396602e+01	-3.148801e+00
1.404668e+01	-3.174593e+00
1.412782e+01	-3.200778e+00
1.420942e+01	-3.227079e+00
1.429149e+01	-3.252942e+00
1.437404e+01	-3.279608e+00
1.445706e+01	-3.306054e+00
1.454057e+01	-3.333145e+00
1.462455e+01	-3.359720e+00
1.470902e+01	-3.386734e+00
1.479398e+01	-3.414057e+00
1.487943e+01	-3.441470e+00
1.496537e+01	-3.468704e+00
1.505181e+01	-3.496356e+00
1.513875e+01	-3.524089e+00
1.522619e+01	-3.552029e+00
1.531414e+01	-3.580022e+00
1.540259e+01	-3.608268e+00
1.549156e+01	-3.636586e+00
1.558103e+01	-3.665129e+00
1.567103e+01	-3.693482e+00
1.576155e+01	-3.722247e+00
1.585258e+01	-3.751011e+00
1.594415e+01	-3.780278e+00
1.603624e+01	-3.809323e+00
1.612886e+01	-3.838424e+00
1.622202e+01	-3.867836e+00
1.631572e+01	-3.897572e+00
1.640996e+01	-3.927192e+00
1.650474e+01	-3.957126e+00
1.660008e+01	-3.987145e+00
1.669596e+01	-4.017189e+00
1.679239e+01	-4.047463e+00
1.688938e+01	-4.078189e+00
1.698694e+01	-4.108279e+00
1.708505e+01	-4.139144e+00
1.718373e+01	-4.169816e+00
1.728299e+01	-4.200564e+00
1.738281e+01	-4.231682e+00
1.748322e+01	-4.262951e+00
1.758420e+01	-4.294408e+00
1.768576e+01	-4.326125e+00
1.778792e+01	-4.357525e+00
1.789066e+01	-4.389025e+00
1.799399e+01	-4.420967e+00
1.809793e+01	-4.453249e+00
1.820246e+01	-4.485347e+00
1.830760e+01	-4.517815e+00
1.841334e+01	-4.550151e+00
1.851969e+01	-4.582611e+00
1.862666e+01	-4.614974e+00
1.873425e+01	-4.648023e+00
1.884246e+01	-4.680910e+00
1.895129e+01	-4.713883e+00
1.906075e+01	-4.747071e+00
1.917085e+01	-4.780855e+00
1.928158e+01	-4.814011e+00
1.939295e+01	-4.847637e+00
1.950496e+01	-4.881364e+00
1.961762e+01	-4.915139e+00
1.973093e+01	-4.948948e+00
1.984490e+01	-4.983041e+00
1.995952e+01	-5.017172e+00
2.007480e+01	-5.051937e+00
2.019076e+01	-5.086369e+00
2.030738e+01	-5.120527e+00
2.042467e+01	-5.155667e+00
2.054264e+01	-5.190577e+00
2.066130e+01	-5.225117e+00
2.078064e+01	-5.260129e+00
2.090066e+01	-5.295556e+00
2.102139e+01	-5.330716e+00
2.114280e+01	-5.366065e+00
2.126492e+01	-5.401509e+00
2.138775e+01	-5.437568e+00
2.151128e+01	-5.473194e+00
2.163553e+01	-5.508939e+00
2.176050e+01	-5.544981e+00
2.188619e+01	-5.581191e+00
2.201260e+01	-5.617134e+00
2.213974e+01	-5.653729e+00
2.226762e+01	-5.690227e+00
2.239624e+01	-5.726924e+00
2.252560e+01	-5.763815e+00
2.265571e+01	-5.800273e+00
2.278656e+01	-5.837416e+00
2.291818e+01	-5.874761e+00
2.305055e+01	-5.911363e+00
2.318369e+01	-5.948730e+00
2.331760e+01	-5.986003e+00
2.345228e+01	-6.023572e+00
2.358774e+01	-6.061273e+00
2.372398e+01	-6.098854e+00
2.386101e+01	-6.136821e+00
2.399883e+01	-6.174678e+00
2.413745e+01	-6.212626e+00
2.427686e+01	-6.250830e+00
2.441709e+01	-6.288866e+00
2.455812e+01	-6.327201e+00
2.469997e+01	-6.365565e+00
2.484263e+01	-6.404026e+00
2.498612e+01	-6.442783e+00
2.513044e+01	-6.481445e+00
2.527559e+01	-6.520120e+00
2.542158e+01	-6.559390e+00
2.556842e+01	-6.598472e+00
2.571610e+01	-6.637338e+00
2.586463e+01	-6.676567e+00
2.601403e+01	-6.715588e+00
2.616428e+01	-6.755405e+00
2.631541e+01	-6.794613e+00
2.646740e+01	-6.834619e+00
2.662028e+01	-6.874215e+00
2.677404e+01	-6.913913e+00
2.692868e+01	-6.953759e+00
2.708422e+01	-6.993882e+00
2.724066e+01	-7.034104e+00
2.739800e+01	-7.074325e+00
2.755625e+01	-7.114675e+00
2.771541e+01	-7.154611e+00
2.787550e+01	-7.195020e+00
2.803650e+01	-7.235605e+00
2.819844e+01	-7.276404e+00
2.836131e+01	-7.317050e+00
2.852513e+01	-7.357623e+00
2.868989e+01	-7.398612e+00
2.885560e+01	-7.439422e+00
2.902227e+01	-7.480929e+00
2.918990e+01	-7.521739e+00
2.935850e+01	-7.563242e+00
2.952807e+01	-7.604319e+00
2.969863e+01	-7.645520e+00
2.987016e+01	-7.687497e+00
3.004269e+01	-7.728893e+00
3.021622e+01	-7.770370e+00
3.039075e+01	-7.811801e+00
3.056628e+01	-7.854239e+00
3.074283e+01	-7.896149e+00
3.092040e+01	-7.937614e+00
3.109900e+01	-7.979866e+00
3.127862e+01	-8.021911e+00
3.145929e+01	-8.063834e+00
3.164099e+01	-8.106009e+00
3.182375e+01	-8.148944e+00
3.200756e+01	-8.190913e+00
3.219244e+01	-8.233602e+00
3.237838e+01	-8.275944e+00
3.256540e+01	-8.318538e+00
3.275349e+01	-8.360970e+00
3.294268e+01	-8.403694e+00
3.313295e+01	-8.447321e+00
3.332433e+01	-8.489868e+00
3.351681e+01	-8.532558e+00
3.371040e+01	-8.575760e+00
3.390511e+01	-8.618709e+00
3.410094e+01	-8.662597e+00
3.429791e+01	-8.705014e+00
3.449601e+01	-8.749149e+00
3.469526e+01	-8.791873e+00
3.489566e+01	-8.835992e+00
3.509721e+01	-8.878936e+00
3.529993e+01	-8.922298e+00
3.550382e+01	-8.966182e+00
3.570889e+01	-9.009613e+00
3.591515e+01	-9.053647e+00
3.612259e+01	-9.097965e+00
3.633123e+01	-9.141342e+00
3.654108e+01	-9.185259e+00
3.675214e+01	-9.229500e+00
3.696442e+01	-9.273530e+00
3.717792e+01	-9.317456e+00
3.739266e+01	-9.361812e+00
3.760864e+01	-9.405791e+00
3.782587e+01	-9.450100e+00
3.804435e+01	-9.494614e+00
3.826409e+01	-9.539340e+00
3.848510e+01	-9.584098e+00
3.870739e+01	-9.628378e+00
3.893096e+01	-9.672837e+00
3.915583e+01	-9.717457e+00
3.938199e+01	-9.762384e+00
3.960946e+01	-9.806657e+00
3.983824e+01	-9.851744e+00
4.006834e+01	-9.897090e+00
4.029978e+01	-9.941482e+00
4.053255e+01	-9.986846e+00
4.076666e+01	-1.003148e+01
4.100213e+01	-1.007698e+01
4.123896e+01	-1.012207e+01
4.147715e+01	-1.016711e+01
4.171672e+01	-1.021212e+01
4.195767e+01	-1.025763e+01
4.220002e+01	-1.030248e+01
4.244377e+01	-1.034847e+01
4.268892e+01	-1.039382e+01
4.293549e+01	-1.043896e+01
4.318348e+01	-1.048472e+01
4.343291e+01	-1.052978e+01
4.368377e+01	-1.057563e+01
4.393609e+01	-1.062182e+01
4.418986e+01	-1.066746e+01
4.444510e+01	-1.071311e+01
4.470182e+01	-1.075851e+01
4.496001e+01	-1.080484e+01
4.521970e+01	-1.085058e+01
4.548089e+01	-1.089688e+01
4.574358e+01	-1.094247e+01
4.600779e+01	-1.098864e+01
4.627353e+01	-1.103489e+01
4.654081e+01	-1.108064e+01
4.680963e+01	-1.112691e+01
4.708000e+01	-1.117309e+01
4.735193e+01	-1.121960e+01
4.762543e+01	-1.126570e+01
4.790051e+01	-1.131231e+01
4.817719e+01	-1.135833e+01
4.845545e+01	-1.140463e+01
4.873533e+01	-1.145092e+01
4.901682e+01	-1.149736e+01
4.929994e+01	-1.154412e+01
4.958470e+01	-1.159101e+01
4.987110e+01	-1.163671e+01
5.015915e+01	-1.168446e+01
5.044887e+01	-1.172970e+01
5.074026e+01	-1.177734e+01
5.103333e+01	-1.182403e+01
5.132810e+01	-1.187105e+01
5.162457e+01	-1.191674e+01
5.192275e+01	-1.196397e+01
5.222265e+01	-1.201124e+01
5.252429e+01	-1.205791e+01
5.282767e+01	-1.210516e+01
5.313280e+01	-1.215236e+01
5.343969e+01	-1.219876e+01
5.374836e+01	-1.224512e+01
5.405880e+01	-1.229241e+01
5.437105e+01	-1.234021e+01
5.468509e+01	-1.238695e+01
5.500095e+01	-1.243480e+01
5.531863e+01	-1.248117e+01
5.563815e+01	-1.252827e+01
5.595951e+01	-1.257560e+01
5.628273e+01	-1.262304e+01
5.660782e+01	-1.267079e+01
5.693479e+01	-1.271853e+01
5.726364e+01	-1.276553e+01
5.759439e+01	-1.281244e+01
5.792705e+01	-1.286019e+01
5.826164e+01	-1.290771e+01
5.859815e+01	-1.295475e+01
5.893662e+01	-1.300275e+01
5.927703e+01	-1.305046e+01
5.961941e+01	-1.309753e+01
5.996377e+01	-1.314522e+01
6.031012e+01	-1.319253e+01
6.065847e+01	-1.324071e+01
6.100883e+01	-1.328820e+01
6.136121e+01	-1.333609e+01
6.171563e+01	-1.338401e+01
6.207210e+01	-1.343167e+01
6.243063e+01	-1.347863e+01
6.279122e+01	-1.352652e+01
6.315390e+01	-1.357503e+01
6.351868e+01	-1.362272e+01
6.388556e+01	-1.367056e+01
6.425456e+01	-1.371873e+01
6.462569e+01	-1.376690e+01
6.499897e+01	-1.381399e+01
6.537440e+01	-1.386235e+01
6.575200e+01	-1.391066e+01
6.613178e+01	-1.395767e+01
6.651375e+01	-1.400649e+01
6.689793e+01	-1.405379e+01
6.728433e+01	-1.410236e+01
6.767297e+01	-1.415000e+01
6.806384e+01	-1.419813e+01
6.845698e+01	-1.424687e+01
6.885238e+01	-1.429503e+01
6.925007e+01	-1.434222e+01
6.965005e+01	-1.439129e+01
7.005235e+01	-1.443928e+01
7.045697e+01	-1.448789e+01
7.086393e+01	-1.453622e+01
7.127323e+01	-1.458393e+01
7.168490e+01	-1.463201e+01
7.209895e+01	-1.468076e+01
7.251539e+01	-1.472863e+01
7.293424e+01	-1.477785e+01
7.335551e+01	-1.482554e+01
7.377920e+01	-1.487407e+01
7.420535e+01	-1.492252e+01
7.463396e+01	-1.497120e+01
7.506504e+01	-1.501984e+01
7.549861e+01	-1.506767e+01
7.593469e+01	-1.511616e+01
7.637328e+01	-1.516582e+01
7.681441e+01	-1.521420e+01
7.725809e+01	-1.526133e+01
7.770433e+01	-1.530989e+01
7.815315e+01	-1.535909e+01
7.860456e+01	-1.540655e+01
7.905857e+01	-1.545641e+01
7.951521e+01	-1.550623e+01
7.997449e+01	-1.555341e+01
8.043642e+01	-1.560092e+01
8.090102e+01	-1.564953e+01
8.136830e+01	-1.569943e+01
8.183828e+01	-1.574877e+01
8.231097e+01	-1.579640e+01
8.278640e+01	-1.584523e+01
8.326457e+01	-1.589442e+01
8.374550e+01	-1.594254e+01
8.422921e+01	-1.599183e+01
8.471572e+01	-1.604073e+01
8.520503e+01	-1.608937e+01
8.569717e+01	-1.613703e+01
8.619215e+01	-1.618690e+01
8.669000e+01	-1.623496e+01
8.719071e+01	-1.628392e+01
8.769432e+01	-1.633274e+01
8.820084e+01	-1.638264e+01
8.871029e+01	-1.643203e+01
8.922267e+01	-1.648031e+01
8.973802e+01	-1.652950e+01
9.025634e+01	-1.657835e+01
9.077766e+01	-1.662706e+01
9.130199e+01	-1.667663e+01
9.182935e+01	-1.672445e+01
9.235975e+01	-1.677380e+01
9.289321e+01	-1.682282e+01
9.342976e+01	-1.687254e+01
9.396941e+01	-1.692108e+01
9.451217e+01	-1.696906e+01
9.505807e+01	-1.701888e+01
9.560712e+01	-1.706841e+01
9.615934e+01	-1.711707e+01
9.671476e+01	-1.716662e+01
9.727338e+01	-1.721461e+01
9.783522e+01	-1.726382e+01
9.840032e+01	-1.731345e+01
9.896867e+01	-1.736252e+01
9.954031e+01	-1.741096e+01
1.001153e+02	-1.746057e+01
1.006935e+02	-1.750867e+01
1.012751e+02	-1.755972e+01
1.018601e+02	-1.760915e+01
1.024484e+02	-1.765841e+01
1.030402e+02	-1.770666e+01
1.036353e+02	-1.775544e+01
1.042339e+02	-1.780483e+01
1.048360e+02	-1.785359e+01
1.054415e+02	-1.790280e+01
1.060505e+02	-1.795220e+01
1.066631e+02	-1.800209e+01
1.072791e+02	-1.805130e+01
1.078988e+02	-1.810049e+01
1.085220e+02	-1.815059e+01
1.091488e+02	-1.819810e+01
1.097793e+02	-1.824857e+01
1.104133e+02	-1.829648e+01
1.110511e+02	-1.834688e+01
1.116925e+02	-1.839649e+01
1.123376e+02	-1.844416e+01
1.129865e+02	-1.849417e+01
1.136391e+02	-1.854345e+01
1.142955e+02	-1.859361e+01
1.149556e+02	-1.864228e+01
1.156196e+02	-1.869274e+01
1.162874e+02	-1.874121e+01
1.169591e+02	-1.879017e+01
1.176347e+02	-1.884051e+01
1.183141e+02	-1.889048e+01
1.189975e+02	-1.893887e+01
1.196848e+02	-1.898783e+01
1.203761e+02	-1.903682e+01
1.210714e+02	-1.908546e+01
1.217707e+02	-1.913731e+01
1.224740e+02	-1.918609e+01
1.231814e+02	-1.923533e+01
1.238929e+02	-1.928465e+01
1.246085e+02	-1.933475e+01
1.253283e+02	-1.938385e+01
1.260522e+02	-1.943406e+01
1.267802e+02	-1.948146e+01
1.275125e+02	-1.953159e+01
1.282490e+02	-1.958179e+01
1.289898e+02	-1.963035e+01
1.297348e+02	-1.968007e+01
1.304842e+02	-1.972956e+01
1.312378e+02	-1.977795e+01
1.319959e+02	-1.982823e+01
1.327583e+02	-1.987815e+01
1.335251e+02	-1.992936e+01
1.342963e+02	-1.997755e+01
1.350720e+02	-2.002779e+01
1.358522e+02	-2.007628e+01
1.366368e+02	-2.012478e+01
1.374260e+02	-2.017566e+01
1.382198e+02	-2.022686e+01
1.390182e+02	-2.027791e+01
1.398211e+02	-2.032388e+01
1.406287e+02	-2.037586e+01
1.414410e+02	-2.042377e+01
1.422579e+02	-2.047149e+01
1.430796e+02	-2.052365e+01
1.439060e+02	-2.057417e+01
1.447372e+02	-2.062285e+01
1.455732e+02	-2.067128e+01
1.464141e+02	-2.071937e+01
1.472597e+02	-2.076953e+01
1.481103e+02	-2.081968e+01
1.489658e+02	-2.086814e+01
1.498262e+02	-2.091940e+01
1.506916e+02	-2.097033e+01
1.515620e+02	-2.101860e+01
1.524374e+02	-2.106900e+01
1.533179e+02	-2.111699e+01
1.542034e+02	-2.116750e+01
1.550941e+02	-2.121669e+01
1.559899e+02	-2.126807e+01
1.568909e+02	-2.131901e+01
1.577971e+02	-2.136697e+01
1.587085e+02	-2.141684e+01
1.596252e+02	-2.146620e+01
1.605472e+02	-2.151482e+01
1.614745e+02	-2.156338e+01
1.624072e+02	-2.161511e+01
1.633453e+02	-2.166525e+01
1.642887e+02	-2.171500e+01
1.652377e+02	-2.176448e+01
1.661921e+02	-2.181447e+01
1.671520e+02	-2.186348e+01
1.681175e+02	-2.191311e+01
1.690885e+02	-2.196285e+01
1.700651e+02	-2.201159e+01
1.710474e+02	-2.206260e+01
1.720354e+02	-2.211350e+01
1.730291e+02	-2.216214e+01
1.740285e+02	-2.221124e+01
1.750337e+02	-2.225999e+01
1.760446e+02	-2.231009e+01
1.770615e+02	-2.236120e+01
1.780842e+02	-2.241012e+01
1.791128e+02	-2.245995e+01
1.801473e+02	-2.251121e+01
1.811878e+02	-2.255897e+01
1.822344e+02	-2.260956e+01
1.832870e+02	-2.266003e+01
1.843456e+02	-2.270811e+01
1.854104e+02	-2.276038e+01
1.864813e+02	-2.281069e+01
1.875584e+02	-2.286133e+01
1.886418e+02	-2.290906e+01
1.897313e+02	-2.295986e+01
1.908272e+02	-2.300972e+01
1.919294e+02	-2.305565e+01
1.930380e+02	-2.310713e+01
1.941530e+02	-2.315933e+01
1.952744e+02	-2.320650e+01
1.964023e+02	-2.325710e+01
1.975367e+02	-2.330545e+01
1.986777e+02	-2.335860e+01
1.998252e+02	-2.340696e+01
2.009794e+02	-2.345671e+01
2.021403e+02	-2.350569e+01
2.033078e+02	-2.355791e+01
2.044821e+02	-2.360614e+01
2.056632e+02	-2.365529e+01
2.068511e+02	-2.370794e+01
2.080459e+02	-2.375611e+01
2.092475e+02	-2.380665e+01
2.104561e+02	-2.385294e+01
2.116717e+02	-2.390521e+01
2.128943e+02	-2.395461e+01
2.141240e+02	-2.400479e+01
2.153608e+02	-2.405371e+01
2.166047e+02	-2.410624e+01
2.178558e+02	-2.415596e+01
2.191141e+02	-2.420512e+01
2.203797e+02	-2.425462e+01
2.216526e+02	-2.430365e+01
2.229329e+02	-2.435397e+01
2.242205e+02	-2.440524e+01
2.255156e+02	-2.445575e+01
2.268182e+02	-2.450327e+01
2.281283e+02	-2.455317e+01
2.294459e+02	-2.460603e+01
2.307712e+02	-2.465292e+01
2.321041e+02	-2.470360e+01
2.334447e+02	-2.475188e+01
2.347931e+02	-2.480005e+01
2.361493e+02	-2.485187e+01
2.375133e+02	-2.490269e+01
2.388851e+02	-2.495293e+01
2.402649e+02	-2.500119e+01
2.416527e+02	-2.505193e+01
2.430484e+02	-2.510301e+01
2.444523e+02	-2.515090e+01
2.458642e+02	-2.520280e+01
2.472843e+02	-2.525575e+01
2.487126e+02	-2.530418e+01
2.501492e+02	-2.535051e+01
2.515940e+02	-2.540229e+01
2.530472e+02	-2.545066e+01
2.545088e+02	-2.550234e+01
2.559789e+02	-2.555025e+01
2.574574e+02	-2.559828e+01
2.589444e+02	-2.565055e+01
2.604401e+02	-2.569538e+01
2.619444e+02	-2.575213e+01
2.634574e+02	-2.580177e+01
2.649791e+02	-2.585183e+01
2.665096e+02	-2.590204e+01
2.680489e+02	-2.594812e+01
2.695972e+02	-2.600466e+01
2.711544e+02	-2.605356e+01
2.727205e+02	-2.610097e+01
2.742958e+02	-2.615076e+01
2.758801e+02	-2.620056e+01
2.774736e+02	-2.625114e+01
2.790762e+02	-2.630083e+01
2.806882e+02	-2.634907e+01
2.823094e+02	-2.640155e+01
2.839400e+02	-2.645052e+01
2.855800e+02	-2.649856e+01
2.872295e+02	-2.654836e+01
2.888886e+02	-2.660020e+01
2.905572e+02	-2.665209e+01
2.922354e+02	-2.669950e+01
2.939234e+02	-2.674863e+01
2.956211e+02	-2.680106e+01
2.973286e+02	-2.685351e+01
2.990459e+02	-2.689963e+01
3.007732e+02	-2.694863e+01
3.025104e+02	-2.699959e+01
3.042577e+02	-2.704769e+01
3.060151e+02	-2.709718e+01
3.077826e+02	-2.715077e+01
3.095604e+02	-2.720177e+01
3.113484e+02	-2.724968e+01
3.131467e+02	-2.730233e+01
3.149554e+02	-2.734976e+01
3.167746e+02	-2.739889e+01
3.186043e+02	-2.745094e+01
3.204445e+02	-2.749943e+01
3.222954e+02	-2.754911e+01
3.241570e+02	-2.759947e+01
3.260293e+02	-2.764952e+01
3.279124e+02	-2.770064e+01
3.298064e+02	-2.774743e+01
3.317114e+02	-2.779872e+01
3.336273e+02	-2.785068e+01
3.355544e+02	-2.790580e+01
3.374925e+02	-2.794948e+01
3.394418e+02	-2.800373e+01
3.414024e+02	-2.805172e+01
3.433744e+02	-2.809967e+01
3.453577e+02	-2.815178e+01
3.473525e+02	-2.820195e+01
3.493588e+02	-2.825074e+01
3.513766e+02	-2.829820e+01
3.534062e+02	-2.834892e+01
3.554474e+02	-2.840231e+01
3.575005e+02	-2.844711e+01
3.595654e+02	-2.850242e+01
3.616422e+02	-2.854999e+01
3.637311e+02	-2.860746e+01
3.658320e+02	-2.865253e+01
3.679450e+02	-2.870014e+01
3.700702e+02	-2.875075e+01
3.722077e+02	-2.880065e+01
3.743576e+02	-2.884919e+01
3.765199e+02	-2.889984e+01
3.786946e+02	-2.895282e+01
3.808820e+02	-2.900270e+01
3.830819e+02	-2.904919e+01
3.852946e+02	-2.910302e+01
3.875200e+02	-2.914576e+01
3.897583e+02	-2.920183e+01
3.920096e+02	-2.925527e+01
3.942738e+02	-2.930165e+01
3.965511e+02	-2.934813e+01
3.988416e+02	-2.940357e+01
4.011452e+02	-2.945318e+01
4.034622e+02	-2.949973e+01
4.057926e+02	-2.955272e+01
4.081365e+02	-2.960756e+01
4.104938e+02	-2.965663e+01
4.128648e+02	-2.970589e+01
4.152495e+02	-2.975210e+01
4.176480e+02	-2.980018e+01
4.200603e+02	-2.985629e+01
4.224866e+02	-2.989620e+01
4.249268e+02	-2.995137e+01
4.273812e+02	-3.000643e+01
4.298497e+02	-3.005687e+01
4.323325e+02	-3.010506e+01
4.348297e+02	-3.015666e+01
4.373412e+02	-3.020338e+01
4.398673e+02	-3.025227e+01
4.424079e+02	-3.030403e+01
4.449633e+02	-3.035438e+01
4.475334e+02	-3.040608e+01
4.501183e+02	-3.045728e+01
4.527182e+02	-3.050342e+01
4.553330e+02	-3.055463e+01
4.579630e+02	-3.060619e+01
4.606082e+02	-3.065502e+01
4.632687e+02	-3.070461e+01
4.659445e+02	-3.075465e+01
4.686358e+02	-3.080676e+01
4.713426e+02	-3.084670e+01
4.740650e+02	-3.090494e+01
4.768032e+02	-3.094922e+01
4.795572e+02	-3.100886e+01
4.823271e+02	-3.105516e+01
4.851130e+02	-3.110629e+01
4.879150e+02	-3.115790e+01
4.907332e+02	-3.120669e+01
4.935676e+02	-3.125937e+01
4.964185e+02	-3.130547e+01
4.992858e+02	-3.135344e+01
5.021696e+02	-3.140743e+01
5.050701e+02	-3.146213e+01
5.079874e+02	-3.150177e+01
5.109215e+02	-3.155499e+01
5.138726e+02	-3.160975e+01
5.168407e+02	-3.165357e+01
5.198259e+02	-3.170904e+01
5.228284e+02	-3.175887e+01
5.258482e+02	-3.180910e+01
5.288855e+02	-3.185511e+01
5.319403e+02	-3.190605e+01
5.350128e+02	-3.195388e+01
5.381030e+02	-3.201773e+01
5.412111e+02	-3.205822e+01
5.443371e+02	-3.210957e+01
5.474812e+02	-3.215738e+01
5.506434e+02	-3.221237e+01
5.538239e+02	-3.225572e+01
5.570228e+02	-3.231226e+01
5.602401e+02	-3.236243e+01
5.634760e+02	-3.241116e+01
5.667306e+02	-3.245746e+01
5.700040e+02	-3.251498e+01
5.732964e+02	-3.255411e+01
5.766077e+02	-3.260984e+01
5.799382e+02	-3.265815e+01
5.832879e+02	-3.271088e+01
5.866569e+02	-3.276417e+01
5.900454e+02	-3.281371e+01
5.934535e+02	-3.286703e+01
5.968813e+02	-3.291706e+01
6.003288e+02	-3.297028e+01
6.037963e+02	-3.301254e+01
6.072838e+02	-3.306821e+01
6.107914e+02	-3.310821e+01
6.143194e+02	-3.316504e+01
6.178676e+02	-3.321026e+01
6.214364e+02	-3.326652e+01
6.250258e+02	-3.331063e+01
6.286359e+02	-3.337031e+01
6.322669e+02	-3.341849e+01
6.359189e+02	-3.346428e+01
6.395919e+02	-3.351969e+01
6.432862e+02	-3.356845e+01
6.470017e+02	-3.361206e+01
6.507388e+02	-3.367129e+01
6.544974e+02	-3.371847e+01
6.582778e+02	-3.376519e+01
6.620800e+02	-3.381679e+01
6.659041e+02	-3.386799e+01
6.697504e+02	-3.392231e+01
6.736188e+02	-3.397136e+01
6.775096e+02	-3.401380e+01
6.814229e+02	-3.406655e+01
6.853587e+02	-3.412201e+01
6.893173e+02	-3.416859e+01
6.932988e+02	-3.422614e+01
6.973033e+02	-3.426952e+01
7.013309e+02	-3.431642e+01
