Frequency(Hz)	Magnitude(dB)
1.000000e+01	-2.231551e+00
1.005776e+01	-2.251757e+00
1.011585e+01	-2.272079e+00
1.017428e+01	-2.292276e+00
1.023305e+01	-2.313302e+00
1.029215e+01	-2.333886e+00
1.035160e+01	-2.354712e+00
1.041139e+01	-2.375965e+00
1.047153e+01	-2.396887e+00
1.053201e+01	-2.418417e+00
1.059284e+01	-2.439581e+00
1.065403e+01	-2.460981e+00
1.071556e+01	-2.483031e+00
1.077746e+01	-2.504830e+00
1.083971e+01	-2.526960e+00
1.090232e+01	-2.548973e+00
1.096529e+01	-2.571070e+00
1.102862e+01	-2.593691e+00
1.109232e+01	-2.616122e+00
1.115639e+01	-2.638842e+00
1.122083e+01	-2.661864e+00
1.128564e+01	-2.684712e+00
1.135083e+01	-2.707841e+00
1.141639e+01	-2.731159e+00
1.148233e+01	-2.754699e+00
1.154865e+01	-2.778040e+00
1.161536e+01	-2.801718e+00
1.168245e+01	-2.825638e+00
1.174992e+01	-2.849657e+00
1.181779e+01	-2.873753e+00
1.188605e+01	-2.898100e+00
1.195470e+01	-2.922409e+00
1.202375e+01	-2.947411e+00
1.209320e+01	-2.971902e+00
1.216305e+01	-2.996741e+00
1.223330e+01	-3.021856e+00
1.230396e+01	-3.046815e+00
1.237503e+01	-3.072246e+00
1.244651e+01	-3.097414e+00
1.251840e+01	-3.123233e+00
1.259070e+01	-3.149016e+00
1.266343e+01	-3.174800e+00
1.273657e+01	-3.200970e+00
1.281014e+01	-3.226889e+00
1.288413e+01	-3.253329e+00
1.295855e+01	-3.279902e+00
1.303339e+01	-3.306478e+00
1.310867e+01	-3.333389e+00
1.318439e+01	-3.359919e+00
1.326054e+01	-3.386974e+00
1.333713e+01	-3.414165e+00
1.341417e+01	-3.441564e+00
1.349165e+01	-3.468948e+00
1.356958e+01	-3.496460e+00
1.364795e+01	-3.524046e+00
1.372678e+01	-3.552011e+00
1.380607e+01	-3.579907e+00
1.388581e+01	-3.608066e+00
1.396602e+01	-3.636363e+00
1.404668e+01	-3.664654e+00
1.412782e+01	-3.693354e+00
1.420942e+01	-3.722284e+00
1.429149e+01	-3.751234e+00
1.437404e+01	-3.780327e+00
1.445706e+01	-3.809241e+00
1.454057e+01	-3.838653e+00
1.462455e+01	-3.868166e+00
1.470902e+01	-3.897365e+00
1.479398e+01	-3.927171e+00
1.487943e+01	-3.957020e+00
1.496537e+01	-3.986968e+00
1.505181e+01	-4.017054e+00
1.513875e+01	-4.047458e+00
1.522619e+01	-4.077810e+00
1.531414e+01	-4.108293e+00
1.540259e+01	-4.139311e+00
1.549156e+01	-4.169825e+00
1.558103e+01	-4.200743e+00
1.567103e+01	-4.231902e+00
1.576155e+01	-4.263296e+00
1.585258e+01	-4.294576e+00
1.594415e+01	-4.325887e+00
1.603624e+01	-4.357575e+00
1.612886e+01	-4.389477e+00
1.622202e+01	-4.421250e+00
1.631572e+01	-4.452979e+00
1.640996e+01	-4.485272e+00
1.650474e+01	-4.517566e+00
1.660008e+01	-4.550110e+00
1.669596e+01	-4.582653e+00
1.679239e+01	-4.615413e+00
1.688938e+01	-4.648164e+00
1.698694e+01	-4.681083e+00
1.708505e+01	-4.714382e+00
1.718373e+01	-4.747349e+00
1.728299e+01	-4.780630e+00
1.738281e+01	-4.814133e+00
1.748322e+01	-4.847489e+00
1.758420e+01	-4.881550e+00
1.768576e+01	-4.914962e+00
1.778792e+01	-4.948952e+00
1.789066e+01	-4.983278e+00
1.799399e+01	-5.017535e+00
1.809793e+01	-5.051812e+00
1.820246e+01	-5.086213e+00
1.830760e+01	-5.120816e+00
1.841334e+01	-5.155518e+00
1.851969e+01	-5.190574e+00
1.862666e+01	-5.225379e+00
1.873425e+01	-5.260252e+00
1.884246e+01	-5.295330e+00
1.895129e+01	-5.330682e+00
1.906075e+01	-5.366164e+00
1.917085e+01	-5.401846e+00
1.928158e+01	-5.437465e+00
1.939295e+01	-5.473344e+00
1.950496e+01	-5.509011e+00
1.961762e+01	-5.545261e+00
1.973093e+01	-5.581252e+00
1.984490e+01	-5.617669e+00
1.995952e+01	-5.653816e+00
2.007480e+01	-5.690402e+00
2.019076e+01	-5.726999e+00
2.030738e+01	-5.763526e+00
2.042467e+01	-5.800739e+00
2.054264e+01	-5.837413e+00
2.066130e+01	-5.874477e+00
2.078064e+01	-5.911610e+00
2.090066e+01	-5.948682e+00
2.102139e+01	-5.986401e+00
2.114280e+01	-6.023527e+00
2.126492e+01	-6.061209e+00
2.138775e+01	-6.099033e+00
2.151128e+01	-6.136676e+00
2.163553e+01	-6.174608e+00
2.176050e+01	-6.212311e+00
2.188619e+01	-6.250845e+00
2.201260e+01	-6.288899e+00
2.213974e+01	-6.327241e+00
2.226762e+01	-6.365843e+00
2.239624e+01	-6.404269e+00
2.252560e+01	-6.442643e+00
2.265571e+01	-6.481651e+00
2.278656e+01	-6.520359e+00
2.291818e+01	-6.559415e+00
2.305055e+01	-6.598454e+00
2.318369e+01	-6.637569e+00
2.331760e+01	-6.676640e+00
2.345228e+01	-6.716031e+00
2.358774e+01	-6.755400e+00
2.372398e+01	-6.794586e+00
2.386101e+01	-6.834949e+00
2.399883e+01	-6.874370e+00
2.413745e+01	-6.913837e+00
2.427686e+01	-6.954064e+00
2.441709e+01	-6.993974e+00
2.455812e+01	-7.033873e+00
2.469997e+01	-7.074497e+00
2.484263e+01	-7.114665e+00
2.498612e+01	-7.154979e+00
2.513044e+01	-7.195314e+00
2.527559e+01	-7.235527e+00
2.542158e+01	-7.276314e+00
2.556842e+01	-7.316998e+00
2.571610e+01	-7.357725e+00
2.586463e+01	-7.398815e+00
2.601403e+01	-7.439327e+00
2.616428e+01	-7.481065e+00
2.631541e+01	-7.521941e+00
2.646740e+01	-7.562894e+00
2.662028e+01	-7.604510e+00
2.677404e+01	-7.645652e+00
2.692868e+01	-7.687112e+00
2.708422e+01	-7.728883e+00
2.724066e+01	-7.770271e+00
2.739800e+01	-7.812179e+00
2.755625e+01	-7.854061e+00
2.771541e+01	-7.896128e+00
2.787550e+01	-7.937381e+00
2.803650e+01	-7.979956e+00
2.819844e+01	-8.021857e+00
2.836131e+01	-8.064042e+00
2.852513e+01	-8.106289e+00
2.868989e+01	-8.148308e+00
2.885560e+01	-8.191029e+00
2.902227e+01	-8.233219e+00
2.918990e+01	-8.276131e+00
2.935850e+01	-8.318158e+00
2.952807e+01	-8.361294e+00
2.969863e+01	-8.404026e+00
2.987016e+01	-8.447145e+00
3.004269e+01	-8.489669e+00
3.021622e+01	-8.532586e+00
3.039075e+01	-8.576146e+00
3.056628e+01	-8.619413e+00
3.074283e+01	-8.661756e+00
3.092040e+01	-8.705448e+00
3.109900e+01	-8.748645e+00
3.127862e+01	-8.792073e+00
3.145929e+01	-8.835000e+00
3.164099e+01	-8.879443e+00
3.182375e+01	-8.922766e+00
3.200756e+01	-8.965871e+00
3.219244e+01	-9.009798e+00
3.237838e+01	-9.053733e+00
3.256540e+01	-9.098090e+00
3.275349e+01	-9.141264e+00
3.294268e+01	-9.185359e+00
3.313295e+01	-9.229647e+00
3.332433e+01	-9.273554e+00
3.351681e+01	-9.317531e+00
3.371040e+01	-9.362507e+00
3.390511e+01	-9.405887e+00
3.410094e+01	-9.450160e+00
3.429791e+01	-9.494643e+00
3.449601e+01	-9.539417e+00
3.469526e+01	-9.583894e+00
3.489566e+01	-9.628074e+00
3.509721e+01	-9.672822e+00
3.529993e+01	-9.717466e+00
3.550382e+01	-9.762039e+00
3.570889e+01	-9.807052e+00
3.591515e+01	-9.851900e+00
3.612259e+01	-9.896734e+00
3.633123e+01	-9.941735e+00
3.654108e+01	-9.987206e+00
3.675214e+01	-1.003163e+01
3.696442e+01	-1.007711e+01
3.717792e+01	-1.012214e+01
3.739266e+01	-1.016699e+01
3.760864e+01	-1.021225e+01
3.782587e+01	-1.025774e+01
3.804435e+01	-1.030329e+01
3.826409e+01	-1.034838e+01
3.848510e+01	-1.039366e+01
3.870739e+01	-1.043994e+01
3.893096e+01	-1.048491e+01
3.915583e+01	-1.053074e+01
3.938199e+01	-1.057571e+01
3.960946e+01	-1.062141e+01
3.983824e+01	-1.066796e+01
4.006834e+01	-1.071326e+01
4.029978e+01	-1.075879e+01
4.053255e+01	-1.080468e+01
4.076666e+01	-1.085053e+01
4.100213e+01	-1.089647e+01
4.123896e+01	-1.094297e+01
4.147715e+01	-1.098881e+01
4.171672e+01	-1.103486e+01
4.195767e+01	-1.108039e+01
4.220002e+01	-1.112677e+01
4.244377e+01	-1.117310e+01
4.268892e+01	-1.121917e+01
4.293549e+01	-1.126523e+01
4.318348e+01	-1.131194e+01
4.343291e+01	-1.135838e+01
4.368377e+01	-1.140432e+01
4.393609e+01	-1.145098e+01
4.418986e+01	-1.149805e+01
4.444510e+01	-1.154420e+01
4.470182e+01	-1.159133e+01
4.496001e+01	-1.163723e+01
4.521970e+01	-1.168420e+01
4.548089e+01	-1.173017e+01
4.574358e+01	-1.177781e+01
4.600779e+01	-1.182388e+01
4.627353e+01	-1.187089e+01
4.654081e+01	-1.191763e+01
4.680963e+01	-1.196447e+01
4.708000e+01	-1.201096e+01
4.735193e+01	-1.205879e+01
4.762543e+01	-1.210431e+01
4.790051e+01	-1.215236e+01
4.817719e+01	-1.219837e+01
4.845545e+01	-1.224528e+01
4.873533e+01	-1.229291e+01
4.901682e+01	-1.233969e+01
4.929994e+01	-1.238690e+01
4.958470e+01	-1.243465e+01
4.987110e+01	-1.248143e+01
5.015915e+01	-1.252914e+01
5.044887e+01	-1.257533e+01
5.074026e+01	-1.262341e+01
5.103333e+01	-1.266994e+01
5.132810e+01	-1.271834e+01
5.162457e+01	-1.276537e+01
5.192275e+01	-1.281183e+01
5.222265e+01	-1.286044e+01
5.252429e+01	-1.290841e+01
5.282767e+01	-1.295515e+01
5.313280e+01	-1.300289e+01
5.343969e+01	-1.305004e+01
5.374836e+01	-1.309748e+01
5.405880e+01	-1.314556e+01
5.437105e+01	-1.319318e+01
5.468509e+01	-1.324015e+01
5.500095e+01	-1.328868e+01
5.531863e+01	-1.333627e+01
5.563815e+01	-1.338415e+01
5.595951e+01	-1.343169e+01
5.628273e+01	-1.347950e+01
5.660782e+01	-1.352669e+01
5.693479e+01	-1.357459e+01
5.726364e+01	-1.362283e+01
5.759439e+01	-1.366934e+01
5.792705e+01	-1.371746e+01
5.826164e+01	-1.376521e+01
5.859815e+01	-1.381414e+01
5.893662e+01	-1.386217e+01
5.927703e+01	-1.390977e+01
5.961941e+01	-1.395816e+01
5.996377e+01	-1.400591e+01
6.031012e+01	-1.405334e+01
6.065847e+01	-1.410174e+01
6.100883e+01	-1.415086e+01
6.136121e+01	-1.419848e+01
6.171563e+01	-1.424640e+01
6.207210e+01	-1.429469e+01
6.243063e+01	-1.434251e+01
6.279122e+01	-1.439161e+01
6.315390e+01	-1.443878e+01
6.351868e+01	-1.448788e+01
6.388556e+01	-1.453695e+01
6.425456e+01	-1.458377e+01
6.462569e+01	-1.463239e+01
6.499897e+01	-1.468141e+01
6.537440e+01	-1.472957e+01
6.575200e+01	-1.477715e+01
6.613178e+01	-1.482638e+01
6.651375e+01	-1.487443e+01
6.689793e+01	-1.492224e+01
6.728433e+01	-1.497079e+01
6.767297e+01	-1.502023e+01
6.806384e+01	-1.506760e+01
6.845698e+01	-1.511621e+01
6.885238e+01	-1.516569e+01
6.925007e+01	-1.521329e+01
6.965005e+01	-1.526151e+01
7.005235e+01	-1.531079e+01
7.045697e+01	-1.535784e+01
7.086393e+01	-1.540737e+01
7.127323e+01	-1.545644e+01
7.168490e+01	-1.550431e+01
7.209895e+01	-1.555275e+01
7.251539e+01	-1.560159e+01
7.293424e+01	-1.565085e+01
7.335551e+01	-1.569896e+01
7.377920e+01	-1.574849e+01
7.420535e+01	-1.579611e+01
7.463396e+01	-1.584584e+01
7.506504e+01	-1.589474e+01
7.549861e+01	-1.594315e+01
7.593469e+01	-1.599231e+01
7.637328e+01	-1.603981e+01
7.681441e+01	-1.608990e+01
7.725809e+01	-1.613818e+01
7.770433e+01	-1.618756e+01
7.815315e+01	-1.623617e+01
7.860456e+01	-1.628475e+01
7.905857e+01	-1.633252e+01
7.951521e+01	-1.638204e+01
7.997449e+01	-1.643141e+01
8.043642e+01	-1.648087e+01
8.090102e+01	-1.652909e+01
8.136830e+01	-1.657678e+01
8.183828e+01	-1.662681e+01
8.231097e+01	-1.667642e+01
8.278640e+01	-1.672532e+01
8.326457e+01	-1.677371e+01
8.374550e+01	-1.682333e+01
8.422921e+01	-1.687054e+01
8.471572e+01	-1.692107e+01
8.520503e+01	-1.697123e+01
8.569717e+01	-1.701883e+01
8.619215e+01	-1.706837e+01
8.669000e+01	-1.711717e+01
8.719071e+01	-1.716731e+01
8.769432e+01	-1.721590e+01
8.820084e+01	-1.726340e+01
8.871029e+01	-1.731402e+01
8.922267e+01	-1.736345e+01
8.973802e+01	-1.741196e+01
9.025634e+01	-1.746003e+01
9.077766e+01	-1.750959e+01
9.130199e+01	-1.755894e+01
9.182935e+01	-1.760818e+01
9.235975e+01	-1.765758e+01
9.289321e+01	-1.770705e+01
9.342976e+01	-1.775587e+01
9.396941e+01	-1.780527e+01
9.451217e+01	-1.785346e+01
9.505807e+01	-1.790482e+01
9.560712e+01	-1.795332e+01
9.615934e+01	-1.800192e+01
9.671476e+01	-1.805126e+01
9.727338e+01	-1.810071e+01
9.783522e+01	-1.814945e+01
9.840032e+01	-1.819939e+01
9.896867e+01	-1.824891e+01
9.954031e+01	-1.829613e+01
1.001153e+02	-1.834735e+01
1.006935e+02	-1.839493e+01
1.012751e+02	-1.844603e+01
1.018601e+02	-1.849533e+01
1.024484e+02	-1.854443e+01
1.030402e+02	-1.859319e+01
1.036353e+02	-1.864257e+01
1.042339e+02	-1.869267e+01
1.048360e+02	-1.874181e+01
1.054415e+02	-1.879027e+01
1.060505e+02	-1.883888e+01
1.066631e+02	-1.889063e+01
1.072791e+02	-1.893784e+01
1.078988e+02	-1.899034e+01
1.085220e+02	-1.903710e+01
1.091488e+02	-1.908806e+01
1.097793e+02	-1.913468e+01
1.104133e+02	-1.918594e+01
1.110511e+02	-1.923533e+01
1.116925e+02	-1.928560e+01
1.123376e+02	-1.933512e+01
1.129865e+02	-1.938442e+01
1.136391e+02	-1.943298e+01
1.142955e+02	-1.948319e+01
1.149556e+02	-1.953301e+01
1.156196e+02	-1.958275e+01
1.162874e+02	-1.963232e+01
1.169591e+02	-1.968113e+01
1.176347e+02	-1.973003e+01
1.183141e+02	-1.978089e+01
1.189975e+02	-1.982929e+01
1.196848e+02	-1.988056e+01
1.203761e+02	-1.992893e+01
1.210714e+02	-1.997696e+01
1.217707e+02	-2.002697e+01
1.224740e+02	-2.007639e+01
1.231814e+02	-2.012504e+01
1.238929e+02	-2.017567e+01
1.246085e+02	-2.022322e+01
1.253283e+02	-2.027544e+01
1.260522e+02	-2.032302e+01
1.267802e+02	-2.037488e+01
1.275125e+02	-2.042460e+01
1.282490e+02	-2.047287e+01
1.289898e+02	-2.052278e+01
1.297348e+02	-2.057307e+01
1.304842e+02	-2.062223e+01
1.312378e+02	-2.067112e+01
1.319959e+02	-2.072122e+01
1.327583e+02	-2.077048e+01
1.335251e+02	-2.082046e+01
1.342963e+02	-2.087080e+01
1.350720e+02	-2.091958e+01
1.358522e+02	-2.096883e+01
1.366368e+02	-2.101997e+01
1.374260e+02	-2.106640e+01
1.382198e+02	-2.111754e+01
1.390182e+02	-2.116724e+01
1.398211e+02	-2.121682e+01
1.406287e+02	-2.126646e+01
1.414410e+02	-2.131546e+01
1.422579e+02	-2.136545e+01
1.430796e+02	-2.141429e+01
1.439060e+02	-2.146438e+01
1.447372e+02	-2.151595e+01
1.455732e+02	-2.156416e+01
1.464141e+02	-2.161506e+01
1.472597e+02	-2.166459e+01
1.481103e+02	-2.171409e+01
1.489658e+02	-2.176427e+01
1.498262e+02	-2.181201e+01
1.506916e+02	-2.186502e+01
1.515620e+02	-2.191367e+01
1.524374e+02	-2.196317e+01
1.533179e+02	-2.201385e+01
1.542034e+02	-2.206236e+01
1.550941e+02	-2.211224e+01
1.559899e+02	-2.216454e+01
1.568909e+02	-2.221175e+01
1.577971e+02	-2.225890e+01
1.587085e+02	-2.231230e+01
1.596252e+02	-2.236135e+01
1.605472e+02	-2.240923e+01
1.614745e+02	-2.246054e+01
1.624072e+02	-2.251001e+01
1.633453e+02	-2.256062e+01
1.642887e+02	-2.260898e+01
1.652377e+02	-2.265920e+01
1.661921e+02	-2.271148e+01
1.671520e+02	-2.275886e+01
1.681175e+02	-2.280936e+01
1.690885e+02	-2.285811e+01
1.700651e+02	-2.290930e+01
1.710474e+02	-2.295817e+01
1.720354e+02	-2.300716e+01
1.730291e+02	-2.305732e+01
1.740285e+02	-2.310827e+01
1.750337e+02	-2.315882e+01
1.760446e+02	-2.320762e+01
1.770615e+02	-2.325682e+01
1.780842e+02	-2.330791e+01
1.791128e+02	-2.335761e+01
1.801473e+02	-2.340466e+01
1.811878e+02	-2.345750e+01
1.822344e+02	-2.350816e+01
1.832870e+02	-2.355612e+01
1.843456e+02	-2.360618e+01
1.854104e+02	-2.365434e+01
1.864813e+02	-2.370530e+01
1.875584e+02	-2.375537e+01
1.886418e+02	-2.380666e+01
1.897313e+02	-2.385384e+01
1.908272e+02	-2.390478e+01
1.919294e+02	-2.395495e+01
1.930380e+02	-2.400329e+01
1.941530e+02	-2.405293e+01
1.952744e+02	-2.410543e+01
1.964023e+02	-2.415502e+01
1.975367e+02	-2.420470e+01
1.986777e+02	-2.425576e+01
1.998252e+02	-2.430612e+01
2.009794e+02	-2.435410e+01
2.021403e+02	-2.440467e+01
2.033078e+02	-2.445167e+01
2.044821e+02	-2.450247e+01
2.056632e+02	-2.455213e+01
2.068511e+02	-2.460267e+01
2.080459e+02	-2.465219e+01
2.092475e+02	-2.470176e+01
2.104561e+02	-2.475334e+01
2.116717e+02	-2.480079e+01
2.128943e+02	-2.485224e+01
2.141240e+02	-2.490195e+01
2.153608e+02	-2.495331e+01
2.166047e+02	-2.500165e+01
2.178558e+02	-2.505373e+01
2.191141e+02	-2.510299e+01
2.203797e+02	-2.515123e+01
2.216526e+02	-2.519946e+01
2.229329e+02	-2.525254e+01
2.242205e+02	-2.530098e+01
2.255156e+02	-2.535123e+01
2.268182e+02	-2.540310e+01
2.281283e+02	-2.545339e+01
2.294459e+02	-2.550116e+01
2.307712e+02	-2.555132e+01
2.321041e+02	-2.559935e+01
2.334447e+02	-2.565238e+01
2.347931e+02	-2.570192e+01
2.361493e+02	-2.575118e+01
2.375133e+02	-2.580071e+01
2.388851e+02	-2.585337e+01
2.402649e+02	-2.590038e+01
2.416527e+02	-2.595144e+01
2.430484e+02	-2.600209e+01
2.444523e+02	-2.604988e+01
2.458642e+02	-2.609952e+01
2.472843e+02	-2.615046e+01
2.487126e+02	-2.620247e+01
2.501492e+02	-2.625159e+01
2.515940e+02	-2.630076e+01
2.530472e+02	-2.635050e+01
2.545088e+02	-2.639944e+01
2.559789e+02	-2.644951e+01
2.574574e+02	-2.649936e+01
2.589444e+02	-2.654997e+01
2.604401e+02	-2.660099e+01
2.619444e+02	-2.664999e+01
2.634574e+02	-2.670053e+01
2.649791e+02	-2.675223e+01
2.665096e+02	-2.680026e+01
2.680489e+02	-2.685248e+01
2.695972e+02	-2.689976e+01
2.711544e+02	-2.694929e+01
2.727205e+02	-2.700169e+01
2.742958e+02	-2.705065e+01
2.758801e+02	-2.710015e+01
2.774736e+02	-2.714954e+01
2.790762e+02	-2.720165e+01
2.806882e+02	-2.725171e+01
2.823094e+02	-2.729564e+01
2.839400e+02	-2.734721e+01
2.855800e+02	-2.739925e+01
2.872295e+02	-2.744985e+01
2.888886e+02	-2.750190e+01
2.905572e+02	-2.754809e+01
2.922354e+02	-2.760161e+01
2.939234e+02	-2.765444e+01
2.956211e+02	-2.770081e+01
2.973286e+02	-2.775277e+01
2.990459e+02	-2.780161e+01
3.007732e+02	-2.785374e+01
3.025104e+02	-2.790370e+01
3.042577e+02	-2.794669e+01
3.060151e+02	-2.799975e+01
3.077826e+02	-2.805103e+01
3.095604e+02	-2.809875e+01
3.113484e+02	-2.814976e+01
3.131467e+02	-2.820379e+01
3.149554e+02	-2.825395e+01
3.167746e+02	-2.829746e+01
3.186043e+02	-2.834832e+01
3.204445e+02	-2.840484e+01
3.222954e+02	-2.844773e+01
3.241570e+02	-2.849933e+01
3.260293e+02	-2.854627e+01
3.279124e+02	-2.860116e+01
3.298064e+02	-2.864633e+01
3.317114e+02	-2.870147e+01
3.336273e+02	-2.875122e+01
3.355544e+02	-2.879770e+01
3.374925e+02	-2.885094e+01
3.394418e+02	-2.890078e+01
3.414024e+02	-2.894927e+01
3.433744e+02	-2.899803e+01
3.453577e+02	-2.905467e+01
3.473525e+02	-2.910078e+01
3.493588e+02	-2.914715e+01
3.513766e+02	-2.919978e+01
3.534062e+02	-2.925279e+01
3.554474e+02	-2.929955e+01
3.575005e+02	-2.935077e+01
3.595654e+02	-2.939883e+01
3.616422e+02	-2.944900e+01
3.637311e+02	-2.949900e+01
3.658320e+02	-2.955035e+01
3.679450e+02	-2.959735e+01
3.700702e+02	-2.964793e+01
3.722077e+02	-2.969977e+01
3.743576e+02	-2.975378e+01
3.765199e+02	-2.980589e+01
3.786946e+02	-2.985197e+01
3.808820e+02	-2.989903e+01
3.830819e+02	-2.995144e+01
3.852946e+02	-3.000006e+01
3.875200e+02	-3.005433e+01
3.897583e+02	-3.010309e+01
3.920096e+02	-3.015400e+01
3.942738e+02	-3.020700e+01
3.965511e+02	-3.024725e+01
3.988416e+02	-3.030372e+01
4.011452e+02	-3.035877e+01
4.034622e+02	-3.040632e+01
4.057926e+02	-3.045066e+01
4.081365e+02	-3.050410e+01
4.104938e+02	-3.055755e+01
4.128648e+02	-3.060217e+01
4.152495e+02	-3.065124e+01
4.176480e+02	-3.070279e+01
4.200603e+02	-3.075734e+01
4.224866e+02	-3.080443e+01
4.249268e+02	-3.085249e+01
4.273812e+02	-3.089788e+01
4.298497e+02	-3.095503e+01
4.323325e+02	-3.100034e+01
4.348297e+02	-3.105867e+01
4.373412e+02	-3.110453e+01
4.398673e+02	-3.115764e+01
4.424079e+02	-3.120288e+01
4.449633e+02	-3.125583e+01
4.475334e+02	-3.130740e+01
4.501183e+02	-3.135403e+01
4.527182e+02	-3.140551e+01
4.553330e+02	-3.145170e+01
4.579630e+02	-3.150854e+01
4.606082e+02	-3.155768e+01
4.632687e+02	-3.160896e+01
4.659445e+02	-3.165618e+01
4.686358e+02	-3.171206e+01
4.713426e+02	-3.176193e+01
4.740650e+02	-3.180853e+01
4.768032e+02	-3.185430e+01
4.795572e+02	-3.191164e+01
4.823271e+02	-3.195978e+01
4.851130e+02	-3.201062e+01
4.879150e+02	-3.206388e+01
4.907332e+02	-3.210755e+01
4.935676e+02	-3.215805e+01
4.964185e+02	-3.221098e+01
4.992858e+02	-3.225537e+01
5.021696e+02	-3.231089e+01
5.050701e+02	-3.235899e+01
5.079874e+02	-3.241223e+01
5.109215e+02	-3.245722e+01
5.138726e+02	-3.250976e+01
5.168407e+02	-3.255332e+01
5.198259e+02	-3.260818e+01
5.228284e+02	-3.265926e+01
5.258482e+02	-3.271137e+01
5.288855e+02	-3.275605e+01
5.319403e+02	-3.280894e+01
5.350128e+02	-3.285693e+01
5.381030e+02	-3.291220e+01
5.412111e+02	-3.296597e+01
5.443371e+02	-3.300801e+01
5.474812e+02	-3.306572e+01
5.506434e+02	-3.310577e+01
5.538239e+02	-3.316185e+01
5.570228e+02	-3.322017e+01
5.602401e+02	-3.326182e+01
5.634760e+02	-3.331652e+01
5.667306e+02	-3.336548e+01
5.700040e+02	-3.341839e+01
5.732964e+02	-3.346799e+01
5.766077e+02	-3.352375e+01
5.799382e+02	-3.356854e+01
5.832879e+02	-3.361089e+01
5.866569e+02	-3.366634e+01
5.900454e+02	-3.371739e+01
5.934535e+02	-3.376816e+01
5.968813e+02	-3.381894e+01
6.003288e+02	-3.387331e+01
6.037963e+02	-3.391790e+01
6.072838e+02	-3.396977e+01
6.107914e+02	-3.401902e+01
6.143194e+02	-3.406083e+01
6.178676e+02	-3.411663e+01
6.214364e+02	-3.417081e+01
6.250258e+02	-3.421365e+01
6.286359e+02	-3.426794e+01
6.322669e+02	-3.432327e+01
6.359189e+02	-3.436605e+01
6.395919e+02	-3.441353e+01
6.432862e+02	-3.446643e+01
6.470017e+02	-3.451723e+01
6.507388e+02	-3.457281e+01
6.544974e+02	-3.462671e+01
6.582778e+02	-3.467308e+01
6.620800e+02	-3.472785e+01
6.659041e+02	-3.477545e+01
6.697504e+02	-3.483103e+01
6.736188e+02	-3.486371e+01
6.775096e+02	-3.492453e+01
6.814229e+02	-3.497677e+01
6.853587e+02	-3.502042e+01
6.893173e+02	-3.508445e+01
6.932988e+02	-3.512812e+01
6.973033e+02	-3.518053e+01
7.013309e+02	-3.522592e+01
