Frequency(Hz)	Magnitude(dB)
1.000000e+01	-1.654825e-05
1.005776e+01	-1.673996e-05
1.011585e+01	-1.693390e-05
1.017428e+01	-1.713008e-05
1.023305e+01	-1.732854e-05
1.029215e+01	-1.752930e-05
1.035160e+01	-1.773238e-05
1.041139e+01	-1.793781e-05
1.047153e+01	-1.814563e-05
1.053201e+01	-1.835585e-05
1.059284e+01	-1.856850e-05
1.065403e+01	-1.878363e-05
1.071556e+01	-1.900124e-05
1.077746e+01	-1.922137e-05
1.083971e+01	-1.944406e-05
1.090232e+01	-1.966932e-05
1.096529e+01	-1.989720e-05
1.102862e+01	-2.012771e-05
1.109232e+01	-2.036089e-05
1.115639e+01	-2.059678e-05
1.122083e+01	-2.083540e-05
1.128564e+01	-2.107678e-05
1.135083e+01	-2.132096e-05
1.141639e+01	-2.156797e-05
1.148233e+01	-2.181784e-05
1.154865e+01	-2.207061e-05
1.161536e+01	-2.232630e-05
1.168245e+01	-2.258496e-05
1.174992e+01	-2.284661e-05
1.181779e+01	-2.311129e-05
1.188605e+01	-2.337904e-05
1.195470e+01	-2.364989e-05
1.202375e+01	-2.392388e-05
1.209320e+01	-2.420105e-05
1.216305e+01	-2.448142e-05
1.223330e+01	-2.476505e-05
1.230396e+01	-2.505196e-05
1.237503e+01	-2.534219e-05
1.244651e+01	-2.563578e-05
1.251840e+01	-2.593278e-05
1.259070e+01	-2.623322e-05
1.266343e+01	-2.653714e-05
1.273657e+01	-2.684458e-05
1.281014e+01	-2.715558e-05
1.288413e+01	-2.747018e-05
1.295855e+01	-2.778843e-05
1.303339e+01	-2.811037e-05
1.310867e+01	-2.843603e-05
1.318439e+01	-2.876547e-05
1.326054e+01	-2.909872e-05
1.333713e+01	-2.943584e-05
1.341417e+01	-2.977686e-05
1.349165e+01	-3.012183e-05
1.356958e+01	-3.047080e-05
1.364795e+01	-3.082381e-05
1.372678e+01	-3.118092e-05
1.380607e+01	-3.154215e-05
1.388581e+01	-3.190758e-05
1.396602e+01	-3.227723e-05
1.404668e+01	-3.265117e-05
1.412782e+01	-3.302944e-05
1.420942e+01	-3.341210e-05
1.429149e+01	-3.379919e-05
1.437404e+01	-3.419076e-05
1.445706e+01	-3.458687e-05
1.454057e+01	-3.498756e-05
1.462455e+01	-3.539290e-05
1.470902e+01	-3.580294e-05
1.479398e+01	-3.621772e-05
1.487943e+01	-3.663731e-05
1.496537e+01	-3.706176e-05
1.505181e+01	-3.749113e-05
1.513875e+01	-3.792548e-05
1.522619e+01	-3.836485e-05
1.531414e+01	-3.880932e-05
1.540259e+01	-3.925893e-05
1.549156e+01	-3.971376e-05
1.558103e+01	-4.017385e-05
1.567103e+01	-4.063927e-05
1.576155e+01	-4.111009e-05
1.585258e+01	-4.158636e-05
1.594415e+01	-4.206814e-05
1.603624e+01	-4.255551e-05
1.612886e+01	-4.304853e-05
1.622202e+01	-4.354725e-05
1.631572e+01	-4.405176e-05
1.640996e+01	-4.456211e-05
1.650474e+01	-4.507837e-05
1.660008e+01	-4.560061e-05
1.669596e+01	-4.612891e-05
1.679239e+01	-4.666332e-05
1.688938e+01	-4.720392e-05
1.698694e+01	-4.775079e-05
1.708505e+01	-4.830399e-05
1.718373e+01	-4.886361e-05
1.728299e+01	-4.942970e-05
1.738281e+01	-5.000236e-05
1.748322e+01	-5.058164e-05
1.758420e+01	-5.116764e-05
1.768576e+01	-5.176043e-05
1.778792e+01	-5.236009e-05
1.789066e+01	-5.296669e-05
1.799399e+01	-5.358032e-05
1.809793e+01	-5.420106e-05
1.820246e+01	-5.482899e-05
1.830760e+01	-5.546419e-05
1.841334e+01	-5.610676e-05
1.851969e+01	-5.675677e-05
1.862666e+01	-5.741430e-05
1.873425e+01	-5.807946e-05
1.884246e+01	-5.875232e-05
1.895129e+01	-5.943298e-05
1.906075e+01	-6.012152e-05
1.917085e+01	-6.081804e-05
1.928158e+01	-6.152263e-05
1.939295e+01	-6.223538e-05
1.950496e+01	-6.295639e-05
1.961762e+01	-6.368575e-05
1.973093e+01	-6.442357e-05
1.984490e+01	-6.516993e-05
1.995952e+01	-6.592493e-05
2.007480e+01	-6.668869e-05
2.019076e+01	-6.746129e-05
2.030738e+01	-6.824284e-05
2.042467e+01	-6.903344e-05
2.054264e+01	-6.983321e-05
2.066130e+01	-7.064224e-05
2.078064e+01	-7.146064e-05
2.090066e+01	-7.228853e-05
2.102139e+01	-7.312600e-05
2.114280e+01	-7.397318e-05
2.126492e+01	-7.483017e-05
2.138775e+01	-7.569710e-05
2.151128e+01	-7.657406e-05
2.163553e+01	-7.746118e-05
2.176050e+01	-7.835859e-05
2.188619e+01	-7.926638e-05
2.201260e+01	-8.018470e-05
2.213974e+01	-8.111365e-05
2.226762e+01	-8.205337e-05
2.239624e+01	-8.300397e-05
2.252560e+01	-8.396558e-05
2.265571e+01	-8.493834e-05
2.278656e+01	-8.592236e-05
2.291818e+01	-8.691779e-05
2.305055e+01	-8.792475e-05
2.318369e+01	-8.894337e-05
2.331760e+01	-8.997379e-05
2.345228e+01	-9.101615e-05
2.358774e+01	-9.207059e-05
2.372398e+01	-9.313724e-05
2.386101e+01	-9.421625e-05
2.399883e+01	-9.530776e-05
2.413745e+01	-9.641191e-05
2.427686e+01	-9.752886e-05
2.441709e+01	-9.865875e-05
2.455812e+01	-9.980172e-05
2.469997e+01	-1.009579e-04
2.484263e+01	-1.021276e-04
2.498612e+01	-1.033107e-04
2.513044e+01	-1.045076e-04
2.527559e+01	-1.057183e-04
2.542158e+01	-1.069431e-04
2.556842e+01	-1.081820e-04
2.571610e+01	-1.094353e-04
2.586463e+01	-1.107032e-04
2.601403e+01	-1.119857e-04
2.616428e+01	-1.132830e-04
2.631541e+01	-1.145954e-04
2.646740e+01	-1.159230e-04
2.662028e+01	-1.172660e-04
2.677404e+01	-1.186246e-04
2.692868e+01	-1.199988e-04
2.708422e+01	-1.213890e-04
2.724066e+01	-1.227953e-04
2.739800e+01	-1.242179e-04
2.755625e+01	-1.256570e-04
2.771541e+01	-1.271128e-04
2.787550e+01	-1.285854e-04
2.803650e+01	-1.300751e-04
2.819844e+01	-1.315820e-04
2.836131e+01	-1.331064e-04
2.852513e+01	-1.346484e-04
2.868989e+01	-1.362084e-04
2.885560e+01	-1.377863e-04
2.902227e+01	-1.393826e-04
2.918990e+01	-1.409974e-04
2.935850e+01	-1.426308e-04
2.952807e+01	-1.442832e-04
2.969863e+01	-1.459548e-04
2.987016e+01	-1.476457e-04
3.004269e+01	-1.493561e-04
3.021622e+01	-1.510864e-04
3.039075e+01	-1.528368e-04
3.056628e+01	-1.546074e-04
3.074283e+01	-1.563986e-04
3.092040e+01	-1.582104e-04
3.109900e+01	-1.600433e-04
3.127862e+01	-1.618974e-04
3.145929e+01	-1.637730e-04
3.164099e+01	-1.656703e-04
3.182375e+01	-1.675896e-04
3.200756e+01	-1.695312e-04
3.219244e+01	-1.714952e-04
3.237838e+01	-1.734820e-04
3.256540e+01	-1.754918e-04
3.275349e+01	-1.775249e-04
3.294268e+01	-1.795815e-04
3.313295e+01	-1.816620e-04
3.332433e+01	-1.837665e-04
3.351681e+01	-1.858955e-04
3.371040e+01	-1.880491e-04
3.390511e+01	-1.902276e-04
3.410094e+01	-1.924314e-04
3.429791e+01	-1.946607e-04
3.449601e+01	-1.969159e-04
3.469526e+01	-1.991971e-04
3.489566e+01	-2.015048e-04
3.509721e+01	-2.038393e-04
3.529993e+01	-2.062008e-04
3.550382e+01	-2.085896e-04
3.570889e+01	-2.110061e-04
3.591515e+01	-2.134506e-04
3.612259e+01	-2.159234e-04
3.633123e+01	-2.184249e-04
3.654108e+01	-2.209554e-04
3.675214e+01	-2.235151e-04
3.696442e+01	-2.261045e-04
3.717792e+01	-2.287239e-04
3.739266e+01	-2.313737e-04
3.760864e+01	-2.340542e-04
3.782587e+01	-2.367657e-04
3.804435e+01	-2.395086e-04
3.826409e+01	-2.422833e-04
3.848510e+01	-2.450901e-04
3.870739e+01	-2.479295e-04
3.893096e+01	-2.508017e-04
3.915583e+01	-2.537073e-04
3.938199e+01	-2.566464e-04
3.960946e+01	-2.596197e-04
3.983824e+01	-2.626273e-04
4.006834e+01	-2.656699e-04
4.029978e+01	-2.687476e-04
4.053255e+01	-2.718610e-04
4.076666e+01	-2.750105e-04
4.100213e+01	-2.781965e-04
4.123896e+01	-2.814194e-04
4.147715e+01	-2.846796e-04
4.171672e+01	-2.879776e-04
4.195767e+01	-2.913138e-04
4.220002e+01	-2.946886e-04
4.244377e+01	-2.981025e-04
4.268892e+01	-3.015560e-04
4.293549e+01	-3.050495e-04
4.318348e+01	-3.085835e-04
4.343291e+01	-3.121584e-04
4.368377e+01	-3.157747e-04
4.393609e+01	-3.194329e-04
4.418986e+01	-3.231335e-04
4.444510e+01	-3.268769e-04
4.470182e+01	-3.306637e-04
4.496001e+01	-3.344944e-04
4.521970e+01	-3.383695e-04
4.548089e+01	-3.422894e-04
4.574358e+01	-3.462548e-04
4.600779e+01	-3.502661e-04
4.627353e+01	-3.543238e-04
4.654081e+01	-3.584286e-04
4.680963e+01	-3.625809e-04
4.708000e+01	-3.667814e-04
4.735193e+01	-3.710304e-04
4.762543e+01	-3.753287e-04
4.790051e+01	-3.796768e-04
4.817719e+01	-3.840753e-04
4.845545e+01	-3.885247e-04
4.873533e+01	-3.930257e-04
4.901682e+01	-3.975788e-04
4.929994e+01	-4.021846e-04
4.958470e+01	-4.068438e-04
4.987110e+01	-4.115570e-04
5.015915e+01	-4.163248e-04
5.044887e+01	-4.211478e-04
5.074026e+01	-4.260267e-04
5.103333e+01	-4.309621e-04
5.132810e+01	-4.359546e-04
5.162457e+01	-4.410050e-04
5.192275e+01	-4.461139e-04
5.222265e+01	-4.512820e-04
5.252429e+01	-4.565100e-04
5.282767e+01	-4.617985e-04
5.313280e+01	-4.671482e-04
5.343969e+01	-4.725600e-04
5.374836e+01	-4.780344e-04
5.405880e+01	-4.835723e-04
5.437105e+01	-4.891743e-04
5.468509e+01	-4.948412e-04
5.500095e+01	-5.005737e-04
5.531863e+01	-5.063727e-04
5.563815e+01	-5.122388e-04
5.595951e+01	-5.181729e-04
5.628273e+01	-5.241757e-04
5.660782e+01	-5.302480e-04
5.693479e+01	-5.363907e-04
5.726364e+01	-5.426046e-04
5.759439e+01	-5.488904e-04
5.792705e+01	-5.552490e-04
5.826164e+01	-5.616813e-04
5.859815e+01	-5.681881e-04
5.893662e+01	-5.747703e-04
5.927703e+01	-5.814287e-04
5.961941e+01	-5.881643e-04
5.996377e+01	-5.949779e-04
6.031012e+01	-6.018704e-04
6.065847e+01	-6.088427e-04
6.100883e+01	-6.158958e-04
6.136121e+01	-6.230307e-04
6.171563e+01	-6.302481e-04
6.207210e+01	-6.375492e-04
6.243063e+01	-6.449348e-04
6.279122e+01	-6.524060e-04
6.315390e+01	-6.599637e-04
6.351868e+01	-6.676090e-04
6.388556e+01	-6.753428e-04
6.425456e+01	-6.831662e-04
6.462569e+01	-6.910803e-04
6.499897e+01	-6.990860e-04
6.537440e+01	-7.071844e-04
6.575200e+01	-7.153767e-04
6.613178e+01	-7.236638e-04
6.651375e+01	-7.320470e-04
6.689793e+01	-7.405272e-04
6.728433e+01	-7.491057e-04
6.767297e+01	-7.577835e-04
6.806384e+01	-7.665619e-04
6.845698e+01	-7.754419e-04
6.885238e+01	-7.844248e-04
6.925007e+01	-7.935118e-04
6.965005e+01	-8.027040e-04
7.005235e+01	-8.120026e-04
7.045697e+01	-8.214090e-04
7.086393e+01	-8.309244e-04
7.127323e+01	-8.405499e-04
7.168490e+01	-8.502870e-04
7.209895e+01	-8.601368e-04
7.251539e+01	-8.701007e-04
7.293424e+01	-8.801800e-04
7.335551e+01	-8.903761e-04
7.377920e+01	-9.006903e-04
7.420535e+01	-9.111240e-04
7.463396e+01	-9.216784e-04
7.506504e+01	-9.323552e-04
7.549861e+01	-9.431556e-04
7.593469e+01	-9.540811e-04
7.637328e+01	-9.651332e-04
7.681441e+01	-9.763133e-04
7.725809e+01	-9.876228e-04
7.770433e+01	-9.990634e-04
7.815315e+01	-1.010636e-03
7.860456e+01	-1.022344e-03
7.905857e+01	-1.034186e-03
7.951521e+01	-1.046166e-03
7.997449e+01	-1.058285e-03
8.043642e+01	-1.070544e-03
8.090102e+01	-1.082945e-03
8.136830e+01	-1.095489e-03
8.183828e+01	-1.108179e-03
8.231097e+01	-1.121016e-03
8.278640e+01	-1.134002e-03
8.326457e+01	-1.147138e-03
8.374550e+01	-1.160426e-03
8.422921e+01	-1.173868e-03
8.471572e+01	-1.187466e-03
8.520503e+01	-1.201221e-03
8.569717e+01	-1.215135e-03
8.619215e+01	-1.229211e-03
8.669000e+01	-1.243450e-03
8.719071e+01	-1.257853e-03
8.769432e+01	-1.272424e-03
8.820084e+01	-1.287163e-03
8.871029e+01	-1.302073e-03
8.922267e+01	-1.317156e-03
8.973802e+01	-1.332413e-03
9.025634e+01	-1.347847e-03
9.077766e+01	-1.363460e-03
9.130199e+01	-1.379253e-03
9.182935e+01	-1.395230e-03
9.235975e+01	-1.411391e-03
9.289321e+01	-1.427740e-03
9.342976e+01	-1.444278e-03
9.396941e+01	-1.461007e-03
9.451217e+01	-1.477930e-03
9.505807e+01	-1.495050e-03
9.560712e+01	-1.512367e-03
9.615934e+01	-1.529885e-03
9.671476e+01	-1.547606e-03
9.727338e+01	-1.565533e-03
9.783522e+01	-1.583666e-03
9.840032e+01	-1.602010e-03
9.896867e+01	-1.620566e-03
9.954031e+01	-1.639338e-03
1.001153e+02	-1.658326e-03
1.006935e+02	-1.677535e-03
1.012751e+02	-1.696965e-03
1.018601e+02	-1.716621e-03
1.024484e+02	-1.736505e-03
1.030402e+02	-1.756619e-03
1.036353e+02	-1.776965e-03
1.042339e+02	-1.797548e-03
1.048360e+02	-1.818369e-03
1.054415e+02	-1.839430e-03
1.060505e+02	-1.860736e-03
1.066631e+02	-1.882288e-03
1.072791e+02	-1.904091e-03
1.078988e+02	-1.926145e-03
1.085220e+02	-1.948455e-03
1.091488e+02	-1.971023e-03
1.097793e+02	-1.993853e-03
1.104133e+02	-2.016947e-03
1.110511e+02	-2.040308e-03
1.116925e+02	-2.063940e-03
1.123376e+02	-2.087846e-03
1.129865e+02	-2.112028e-03
1.136391e+02	-2.136490e-03
1.142955e+02	-2.161236e-03
1.149556e+02	-2.186268e-03
1.156196e+02	-2.211590e-03
1.162874e+02	-2.237205e-03
1.169591e+02	-2.263117e-03
1.176347e+02	-2.289329e-03
1.183141e+02	-2.315845e-03
1.189975e+02	-2.342667e-03
1.196848e+02	-2.369800e-03
1.203761e+02	-2.397247e-03
1.210714e+02	-2.425012e-03
1.217707e+02	-2.453099e-03
1.224740e+02	-2.481510e-03
1.231814e+02	-2.510251e-03
1.238929e+02	-2.539324e-03
1.246085e+02	-2.568734e-03
1.253283e+02	-2.598485e-03
1.260522e+02	-2.628580e-03
1.267802e+02	-2.659023e-03
1.275125e+02	-2.689819e-03
1.282490e+02	-2.720972e-03
1.289898e+02	-2.752485e-03
1.297348e+02	-2.784363e-03
1.304842e+02	-2.816610e-03
1.312378e+02	-2.849231e-03
1.319959e+02	-2.882229e-03
1.327583e+02	-2.915609e-03
1.335251e+02	-2.949375e-03
1.342963e+02	-2.983533e-03
1.350720e+02	-3.018086e-03
1.358522e+02	-3.053039e-03
1.366368e+02	-3.088397e-03
1.374260e+02	-3.124164e-03
1.382198e+02	-3.160345e-03
1.390182e+02	-3.196945e-03
1.398211e+02	-3.233968e-03
1.406287e+02	-3.271420e-03
1.414410e+02	-3.309306e-03
1.422579e+02	-3.347631e-03
1.430796e+02	-3.386399e-03
1.439060e+02	-3.425615e-03
1.447372e+02	-3.465286e-03
1.455732e+02	-3.505416e-03
1.464141e+02	-3.546011e-03
1.472597e+02	-3.587075e-03
1.481103e+02	-3.628615e-03
1.489658e+02	-3.670636e-03
1.498262e+02	-3.713143e-03
1.506916e+02	-3.756142e-03
1.515620e+02	-3.799639e-03
1.524374e+02	-3.843639e-03
1.533179e+02	-3.888149e-03
1.542034e+02	-3.933173e-03
1.550941e+02	-3.978719e-03
1.559899e+02	-4.024792e-03
1.568909e+02	-4.071399e-03
1.577971e+02	-4.118545e-03
1.587085e+02	-4.166236e-03
1.596252e+02	-4.214480e-03
1.605472e+02	-4.263281e-03
1.614745e+02	-4.312648e-03
1.624072e+02	-4.362586e-03
1.633453e+02	-4.413102e-03
1.642887e+02	-4.464203e-03
1.652377e+02	-4.515895e-03
1.661921e+02	-4.568185e-03
1.671520e+02	-4.621080e-03
1.681175e+02	-4.674588e-03
1.690885e+02	-4.728714e-03
1.700651e+02	-4.783468e-03
1.710474e+02	-4.838854e-03
1.720354e+02	-4.894882e-03
1.730291e+02	-4.951558e-03
1.740285e+02	-5.008890e-03
1.750337e+02	-5.066885e-03
1.760446e+02	-5.125552e-03
1.770615e+02	-5.184897e-03
1.780842e+02	-5.244929e-03
1.791128e+02	-5.305656e-03
1.801473e+02	-5.367085e-03
1.811878e+02	-5.429225e-03
1.822344e+02	-5.492084e-03
1.832870e+02	-5.555671e-03
1.843456e+02	-5.619993e-03
1.854104e+02	-5.685059e-03
1.864813e+02	-5.750878e-03
1.875584e+02	-5.817459e-03
1.886418e+02	-5.884810e-03
1.897313e+02	-5.952940e-03
1.908272e+02	-6.021859e-03
1.919294e+02	-6.091574e-03
1.930380e+02	-6.162097e-03
1.941530e+02	-6.233435e-03
1.952744e+02	-6.305598e-03
1.964023e+02	-6.378596e-03
1.975367e+02	-6.452439e-03
1.986777e+02	-6.527136e-03
1.998252e+02	-6.602697e-03
2.009794e+02	-6.679132e-03
2.021403e+02	-6.756451e-03
2.033078e+02	-6.834664e-03
2.044821e+02	-6.913782e-03
2.056632e+02	-6.993815e-03
2.068511e+02	-7.074774e-03
2.080459e+02	-7.156670e-03
2.092475e+02	-7.239512e-03
2.104561e+02	-7.323313e-03
2.116717e+02	-7.408083e-03
2.128943e+02	-7.493833e-03
2.141240e+02	-7.580575e-03
2.153608e+02	-7.668320e-03
2.166047e+02	-7.757080e-03
2.178558e+02	-7.846866e-03
2.191141e+02	-7.937691e-03
2.203797e+02	-8.029566e-03
2.216526e+02	-8.122503e-03
2.229329e+02	-8.216515e-03
2.242205e+02	-8.311614e-03
2.255156e+02	-8.407813e-03
2.268182e+02	-8.505124e-03
2.281283e+02	-8.603560e-03
2.294459e+02	-8.703134e-03
2.307712e+02	-8.803860e-03
2.321041e+02	-8.905750e-03
2.334447e+02	-9.008818e-03
2.347931e+02	-9.113077e-03
2.361493e+02	-9.218542e-03
2.375133e+02	-9.325227e-03
2.388851e+02	-9.433144e-03
2.402649e+02	-9.542309e-03
2.416527e+02	-9.652736e-03
2.430484e+02	-9.764439e-03
2.444523e+02	-9.877433e-03
2.458642e+02	-9.991734e-03
2.472843e+02	-1.010736e-02
2.487126e+02	-1.022431e-02
2.501492e+02	-1.034262e-02
2.515940e+02	-1.046230e-02
2.530472e+02	-1.058336e-02
2.545088e+02	-1.070582e-02
2.559789e+02	-1.082969e-02
2.574574e+02	-1.095500e-02
2.589444e+02	-1.108175e-02
2.604401e+02	-1.120997e-02
2.619444e+02	-1.133967e-02
2.634574e+02	-1.147087e-02
2.649791e+02	-1.160359e-02
2.665096e+02	-1.173784e-02
2.680489e+02	-1.187363e-02
2.695972e+02	-1.201100e-02
2.711544e+02	-1.214996e-02
2.727205e+02	-1.229052e-02
2.742958e+02	-1.243270e-02
2.758801e+02	-1.257653e-02
2.774736e+02	-1.272202e-02
2.790762e+02	-1.286919e-02
2.806882e+02	-1.301805e-02
2.823094e+02	-1.316864e-02
2.839400e+02	-1.332097e-02
2.855800e+02	-1.347506e-02
2.872295e+02	-1.363092e-02
2.888886e+02	-1.378859e-02
2.905572e+02	-1.394808e-02
2.922354e+02	-1.410940e-02
2.939234e+02	-1.427260e-02
2.956211e+02	-1.443767e-02
2.973286e+02	-1.460465e-02
2.990459e+02	-1.477356e-02
3.007732e+02	-1.494442e-02
3.025104e+02	-1.511726e-02
3.042577e+02	-1.529208e-02
3.060151e+02	-1.546893e-02
3.077826e+02	-1.564782e-02
3.095604e+02	-1.582877e-02
3.113484e+02	-1.601181e-02
3.131467e+02	-1.619696e-02
3.149554e+02	-1.638425e-02
3.167746e+02	-1.657371e-02
3.186043e+02	-1.676535e-02
3.204445e+02	-1.695920e-02
3.222954e+02	-1.715528e-02
3.241570e+02	-1.735363e-02
3.260293e+02	-1.755427e-02
3.279124e+02	-1.775722e-02
3.298064e+02	-1.796252e-02
3.317114e+02	-1.817018e-02
3.336273e+02	-1.838024e-02
3.355544e+02	-1.859272e-02
3.374925e+02	-1.880766e-02
3.394418e+02	-1.902507e-02
3.414024e+02	-1.924499e-02
3.433744e+02	-1.946745e-02
3.453577e+02	-1.969247e-02
3.473525e+02	-1.992009e-02
3.493588e+02	-2.015033e-02
3.513766e+02	-2.038323e-02
3.534062e+02	-2.061881e-02
3.554474e+02	-2.085711e-02
3.575005e+02	-2.109815e-02
3.595654e+02	-2.134198e-02
3.616422e+02	-2.158861e-02
3.637311e+02	-2.183809e-02
3.658320e+02	-2.209045e-02
3.679450e+02	-2.234571e-02
3.700702e+02	-2.260391e-02
3.722077e+02	-2.286509e-02
3.743576e+02	-2.312928e-02
3.765199e+02	-2.339652e-02
3.786946e+02	-2.366683e-02
3.808820e+02	-2.394026e-02
3.830819e+02	-2.421684e-02
3.852946e+02	-2.449660e-02
3.875200e+02	-2.477959e-02
3.897583e+02	-2.506584e-02
3.920096e+02	-2.535538e-02
3.942738e+02	-2.564826e-02
3.965511e+02	-2.594451e-02
3.988416e+02	-2.624417e-02
4.011452e+02	-2.654728e-02
4.034622e+02	-2.685389e-02
4.057926e+02	-2.716402e-02
4.081365e+02	-2.747772e-02
4.104938e+02	-2.779504e-02
4.128648e+02	-2.811600e-02
4.152495e+02	-2.844067e-02
4.176480e+02	-2.876906e-02
4.200603e+02	-2.910124e-02
4.224866e+02	-2.943724e-02
4.249268e+02	-2.977710e-02
4.273812e+02	-3.012088e-02
4.298497e+02	-3.046861e-02
4.323325e+02	-3.082034e-02
4.348297e+02	-3.117612e-02
4.373412e+02	-3.153598e-02
4.398673e+02	-3.189999e-02
4.424079e+02	-3.226818e-02
4.449633e+02	-3.264061e-02
4.475334e+02	-3.301732e-02
4.501183e+02	-3.339836e-02
4.527182e+02	-3.378378e-02
4.553330e+02	-3.417362e-02
4.579630e+02	-3.456795e-02
4.606082e+02	-3.496682e-02
4.632687e+02	-3.537026e-02
4.659445e+02	-3.577834e-02
4.686358e+02	-3.619111e-02
4.713426e+02	-3.660862e-02
4.740650e+02	-3.703093e-02
4.768032e+02	-3.745809e-02
4.795572e+02	-3.789015e-02
4.823271e+02	-3.832718e-02
4.851130e+02	-3.876922e-02
4.879150e+02	-3.921634e-02
4.907332e+02	-3.966859e-02
4.935676e+02	-4.012603e-02
4.964185e+02	-4.058872e-02
4.992858e+02	-4.105673e-02
5.021696e+02	-4.153010e-02
5.050701e+02	-4.200890e-02
5.079874e+02	-4.249320e-02
5.109215e+02	-4.298305e-02
5.138726e+02	-4.347853e-02
5.168407e+02	-4.397968e-02
5.198259e+02	-4.448658e-02
5.228284e+02	-4.499929e-02
5.258482e+02	-4.551788e-02
5.288855e+02	-4.604242e-02
5.319403e+02	-4.657296e-02
5.350128e+02	-4.710959e-02
5.381030e+02	-4.765237e-02
5.412111e+02	-4.820136e-02
5.443371e+02	-4.875665e-02
5.474812e+02	-4.931829e-02
5.506434e+02	-4.988637e-02
5.538239e+02	-5.046095e-02
5.570228e+02	-5.104211e-02
5.602401e+02	-5.162993e-02
5.634760e+02	-5.222447e-02
5.667306e+02	-5.282582e-02
5.700040e+02	-5.343405e-02
5.732964e+02	-5.404924e-02
5.766077e+02	-5.467147e-02
5.799382e+02	-5.530081e-02
5.832879e+02	-5.593735e-02
5.866569e+02	-5.658117e-02
5.900454e+02	-5.723236e-02
5.934535e+02	-5.789098e-02
5.968813e+02	-5.855714e-02
6.003288e+02	-5.923090e-02
6.037963e+02	-5.991237e-02
6.072838e+02	-6.060162e-02
6.107914e+02	-6.129875e-02
6.143194e+02	-6.200384e-02
6.178676e+02	-6.271697e-02
6.214364e+02	-6.343825e-02
6.250258e+02	-6.416777e-02
6.286359e+02	-6.490561e-02
6.322669e+02	-6.565187e-02
6.359189e+02	-6.640664e-02
6.395919e+02	-6.717003e-02
6.432862e+02	-6.794212e-02
6.470017e+02	-6.872302e-02
6.507388e+02	-6.951281e-02
6.544974e+02	-7.031162e-02
6.582778e+02	-7.111952e-02
6.620800e+02	-7.193663e-02
6.659041e+02	-7.276306e-02
6.697504e+02	-7.359889e-02
6.736188e+02	-7.444424e-02
6.775096e+02	-7.529922e-02
6.814229e+02	-7.616393e-02
6.853587e+02	-7.703849e-02
6.893173e+02	-7.792299e-02
6.932988e+02	-7.881756e-02
6.973033e+02	-7.972230e-02
7.013309e+02	-8.063733e-02
