Frequency(Hz)	Magnitude(dB)
1.000000e+01	-1.710217e-05
1.005776e+01	-1.730031e-05
1.011585e+01	-1.750074e-05
1.017428e+01	-1.770349e-05
1.023305e+01	-1.790859e-05
1.029215e+01	-1.811606e-05
1.035160e+01	-1.832594e-05
1.041139e+01	-1.853825e-05
1.047153e+01	-1.875302e-05
1.053201e+01	-1.897028e-05
1.059284e+01	-1.919006e-05
1.065403e+01	-1.941238e-05
1.071556e+01	-1.963727e-05
1.077746e+01	-1.986478e-05
1.083971e+01	-2.009492e-05
1.090232e+01	-2.032772e-05
1.096529e+01	-2.056322e-05
1.102862e+01	-2.080145e-05
1.109232e+01	-2.104244e-05
1.115639e+01	-2.128622e-05
1.122083e+01	-2.153283e-05
1.128564e+01	-2.178229e-05
1.135083e+01	-2.203465e-05
1.141639e+01	-2.228992e-05
1.148233e+01	-2.254816e-05
1.154865e+01	-2.280938e-05
1.161536e+01	-2.307364e-05
1.168245e+01	-2.334095e-05
1.174992e+01	-2.361136e-05
1.181779e+01	-2.388490e-05
1.188605e+01	-2.416162e-05
1.195470e+01	-2.444154e-05
1.202375e+01	-2.472470e-05
1.209320e+01	-2.501114e-05
1.216305e+01	-2.530090e-05
1.223330e+01	-2.559402e-05
1.230396e+01	-2.589053e-05
1.237503e+01	-2.619048e-05
1.244651e+01	-2.649390e-05
1.251840e+01	-2.680084e-05
1.259070e+01	-2.711133e-05
1.266343e+01	-2.742542e-05
1.273657e+01	-2.774315e-05
1.281014e+01	-2.806457e-05
1.288413e+01	-2.838970e-05
1.295855e+01	-2.871860e-05
1.303339e+01	-2.905131e-05
1.310867e+01	-2.938788e-05
1.318439e+01	-2.972835e-05
1.326054e+01	-3.007276e-05
1.333713e+01	-3.042116e-05
1.341417e+01	-3.077359e-05
1.349165e+01	-3.113011e-05
1.356958e+01	-3.149076e-05
1.364795e+01	-3.185559e-05
1.372678e+01	-3.222464e-05
1.380607e+01	-3.259797e-05
1.388581e+01	-3.297563e-05
1.396602e+01	-3.335766e-05
1.404668e+01	-3.374412e-05
1.412782e+01	-3.413505e-05
1.420942e+01	-3.453051e-05
1.429149e+01	-3.493056e-05
1.437404e+01	-3.533523e-05
1.445706e+01	-3.574460e-05
1.454057e+01	-3.615871e-05
1.462455e+01	-3.657762e-05
1.470902e+01	-3.700138e-05
1.479398e+01	-3.743005e-05
1.487943e+01	-3.786368e-05
1.496537e+01	-3.830234e-05
1.505181e+01	-3.874608e-05
1.513875e+01	-3.919497e-05
1.522619e+01	-3.964905e-05
1.531414e+01	-4.010839e-05
1.540259e+01	-4.057306e-05
1.549156e+01	-4.104311e-05
1.558103e+01	-4.151860e-05
1.567103e+01	-4.199960e-05
1.576155e+01	-4.248618e-05
1.585258e+01	-4.297839e-05
1.594415e+01	-4.347630e-05
1.603624e+01	-4.397998e-05
1.612886e+01	-4.448950e-05
1.622202e+01	-4.500492e-05
1.631572e+01	-4.552631e-05
1.640996e+01	-4.605375e-05
1.650474e+01	-4.658729e-05
1.660008e+01	-4.712701e-05
1.669596e+01	-4.767299e-05
1.679239e+01	-4.822529e-05
1.688938e+01	-4.878399e-05
1.698694e+01	-4.934917e-05
1.708505e+01	-4.992089e-05
1.718373e+01	-5.049923e-05
1.728299e+01	-5.108427e-05
1.738281e+01	-5.167610e-05
1.748322e+01	-5.227478e-05
1.758420e+01	-5.288039e-05
1.768576e+01	-5.349302e-05
1.778792e+01	-5.411275e-05
1.789066e+01	-5.473965e-05
1.799399e+01	-5.537382e-05
1.809793e+01	-5.601534e-05
1.820246e+01	-5.666429e-05
1.830760e+01	-5.732076e-05
1.841334e+01	-5.798483e-05
1.851969e+01	-5.865660e-05
1.862666e+01	-5.933615e-05
1.873425e+01	-6.002357e-05
1.884246e+01	-6.071895e-05
1.895129e+01	-6.142239e-05
1.906075e+01	-6.213398e-05
1.917085e+01	-6.285382e-05
1.928158e+01	-6.358199e-05
1.939295e+01	-6.431860e-05
1.950496e+01	-6.506374e-05
1.961762e+01	-6.581752e-05
1.973093e+01	-6.658003e-05
1.984490e+01	-6.735137e-05
1.995952e+01	-6.813165e-05
2.007480e+01	-6.892097e-05
2.019076e+01	-6.971943e-05
2.030738e+01	-7.052714e-05
2.042467e+01	-7.134421e-05
2.054264e+01	-7.217075e-05
2.066130e+01	-7.300686e-05
2.078064e+01	-7.385266e-05
2.090066e+01	-7.470825e-05
2.102139e+01	-7.557376e-05
2.114280e+01	-7.644930e-05
2.126492e+01	-7.733498e-05
2.138775e+01	-7.823092e-05
2.151128e+01	-7.913723e-05
2.163553e+01	-8.005405e-05
2.176050e+01	-8.098149e-05
2.188619e+01	-8.191968e-05
2.201260e+01	-8.286873e-05
2.213974e+01	-8.382878e-05
2.226762e+01	-8.479995e-05
2.239624e+01	-8.578237e-05
2.252560e+01	-8.677617e-05
2.265571e+01	-8.778149e-05
2.278656e+01	-8.879845e-05
2.291818e+01	-8.982720e-05
2.305055e+01	-9.086786e-05
2.318369e+01	-9.192058e-05
2.331760e+01	-9.298549e-05
2.345228e+01	-9.406274e-05
2.358774e+01	-9.515247e-05
2.372398e+01	-9.625483e-05
2.386101e+01	-9.736996e-05
2.399883e+01	-9.849800e-05
2.413745e+01	-9.963911e-05
2.427686e+01	-1.007934e-04
2.441709e+01	-1.019612e-04
2.455812e+01	-1.031424e-04
2.469997e+01	-1.043373e-04
2.484263e+01	-1.055461e-04
2.498612e+01	-1.067688e-04
2.513044e+01	-1.080058e-04
2.527559e+01	-1.092570e-04
2.542158e+01	-1.105228e-04
2.556842e+01	-1.118032e-04
2.571610e+01	-1.130985e-04
2.586463e+01	-1.144087e-04
2.601403e+01	-1.157342e-04
2.616428e+01	-1.170750e-04
2.631541e+01	-1.184313e-04
2.646740e+01	-1.198033e-04
2.662028e+01	-1.211913e-04
2.677404e+01	-1.225953e-04
2.692868e+01	-1.240156e-04
2.708422e+01	-1.254523e-04
2.724066e+01	-1.269057e-04
2.739800e+01	-1.283759e-04
2.755625e+01	-1.298631e-04
2.771541e+01	-1.313676e-04
2.787550e+01	-1.328895e-04
2.803650e+01	-1.344291e-04
2.819844e+01	-1.359864e-04
2.836131e+01	-1.375618e-04
2.852513e+01	-1.391555e-04
2.868989e+01	-1.407676e-04
2.885560e+01	-1.423984e-04
2.902227e+01	-1.440481e-04
2.918990e+01	-1.457170e-04
2.935850e+01	-1.474051e-04
2.952807e+01	-1.491128e-04
2.969863e+01	-1.508403e-04
2.987016e+01	-1.525878e-04
3.004269e+01	-1.543555e-04
3.021622e+01	-1.561437e-04
3.039075e+01	-1.579527e-04
3.056628e+01	-1.597826e-04
3.074283e+01	-1.616337e-04
3.092040e+01	-1.635062e-04
3.109900e+01	-1.654004e-04
3.127862e+01	-1.673166e-04
3.145929e+01	-1.692550e-04
3.164099e+01	-1.712158e-04
3.182375e+01	-1.731993e-04
3.200756e+01	-1.752059e-04
3.219244e+01	-1.772356e-04
3.237838e+01	-1.792889e-04
3.256540e+01	-1.813660e-04
3.275349e+01	-1.834671e-04
3.294268e+01	-1.855926e-04
3.313295e+01	-1.877427e-04
3.332433e+01	-1.899177e-04
3.351681e+01	-1.921179e-04
3.371040e+01	-1.943436e-04
3.390511e+01	-1.965950e-04
3.410094e+01	-1.988726e-04
3.429791e+01	-2.011765e-04
3.449601e+01	-2.035072e-04
3.469526e+01	-2.058648e-04
3.489566e+01	-2.082497e-04
3.509721e+01	-2.106623e-04
3.529993e+01	-2.131028e-04
3.550382e+01	-2.155716e-04
3.570889e+01	-2.180690e-04
3.591515e+01	-2.205954e-04
3.612259e+01	-2.231509e-04
3.633123e+01	-2.257361e-04
3.654108e+01	-2.283513e-04
3.675214e+01	-2.309967e-04
3.696442e+01	-2.336728e-04
3.717792e+01	-2.363799e-04
3.739266e+01	-2.391184e-04
3.760864e+01	-2.418885e-04
3.782587e+01	-2.446908e-04
3.804435e+01	-2.475255e-04
3.826409e+01	-2.503931e-04
3.848510e+01	-2.532939e-04
3.870739e+01	-2.562283e-04
3.893096e+01	-2.591967e-04
3.915583e+01	-2.621995e-04
3.938199e+01	-2.652370e-04
3.960946e+01	-2.683098e-04
3.983824e+01	-2.714181e-04
4.006834e+01	-2.745625e-04
4.029978e+01	-2.777432e-04
4.053255e+01	-2.809609e-04
4.076666e+01	-2.842158e-04
4.100213e+01	-2.875084e-04
4.123896e+01	-2.908391e-04
4.147715e+01	-2.942085e-04
4.171672e+01	-2.976169e-04
4.195767e+01	-3.010647e-04
4.220002e+01	-3.045525e-04
4.244377e+01	-3.080807e-04
4.268892e+01	-3.116498e-04
4.293549e+01	-3.152602e-04
4.318348e+01	-3.189124e-04
4.343291e+01	-3.226070e-04
4.368377e+01	-3.263443e-04
4.393609e+01	-3.301250e-04
4.418986e+01	-3.339494e-04
4.444510e+01	-3.378182e-04
4.470182e+01	-3.417317e-04
4.496001e+01	-3.456906e-04
4.521970e+01	-3.496954e-04
4.548089e+01	-3.537466e-04
4.574358e+01	-3.578446e-04
4.600779e+01	-3.619902e-04
4.627353e+01	-3.661838e-04
4.654081e+01	-3.704259e-04
4.680963e+01	-3.747172e-04
4.708000e+01	-3.790582e-04
4.735193e+01	-3.834495e-04
4.762543e+01	-3.878917e-04
4.790051e+01	-3.923853e-04
4.817719e+01	-3.969310e-04
4.845545e+01	-4.015294e-04
4.873533e+01	-4.061810e-04
4.901682e+01	-4.108865e-04
4.929994e+01	-4.156465e-04
4.958470e+01	-4.204616e-04
4.987110e+01	-4.253326e-04
5.015915e+01	-4.302599e-04
5.044887e+01	-4.352443e-04
5.074026e+01	-4.402865e-04
5.103333e+01	-4.453871e-04
5.132810e+01	-4.505468e-04
5.162457e+01	-4.557662e-04
5.192275e+01	-4.610461e-04
5.222265e+01	-4.663872e-04
5.252429e+01	-4.717901e-04
5.282767e+01	-4.772556e-04
5.313280e+01	-4.827844e-04
5.343969e+01	-4.883773e-04
5.374836e+01	-4.940350e-04
5.405880e+01	-4.997582e-04
5.437105e+01	-5.055477e-04
5.468509e+01	-5.114042e-04
5.500095e+01	-5.173286e-04
5.531863e+01	-5.233217e-04
5.563815e+01	-5.293841e-04
5.595951e+01	-5.355168e-04
5.628273e+01	-5.417205e-04
5.660782e+01	-5.479961e-04
5.693479e+01	-5.543444e-04
5.726364e+01	-5.607662e-04
5.759439e+01	-5.672624e-04
5.792705e+01	-5.738339e-04
5.826164e+01	-5.804815e-04
5.859815e+01	-5.872061e-04
5.893662e+01	-5.940085e-04
5.927703e+01	-6.008898e-04
5.961941e+01	-6.078508e-04
5.996377e+01	-6.148924e-04
6.031012e+01	-6.220156e-04
6.065847e+01	-6.292213e-04
6.100883e+01	-6.365105e-04
6.136121e+01	-6.438841e-04
6.171563e+01	-6.513431e-04
6.207210e+01	-6.588885e-04
6.243063e+01	-6.665213e-04
6.279122e+01	-6.742426e-04
6.315390e+01	-6.820532e-04
6.351868e+01	-6.899544e-04
6.388556e+01	-6.979470e-04
6.425456e+01	-7.060323e-04
6.462569e+01	-7.142112e-04
6.499897e+01	-7.224848e-04
6.537440e+01	-7.308543e-04
6.575200e+01	-7.393207e-04
6.613178e+01	-7.478852e-04
6.651375e+01	-7.565489e-04
6.689793e+01	-7.653130e-04
6.728433e+01	-7.741786e-04
6.767297e+01	-7.831468e-04
6.806384e+01	-7.922190e-04
6.845698e+01	-8.013962e-04
6.885238e+01	-8.106797e-04
6.925007e+01	-8.200708e-04
6.965005e+01	-8.295706e-04
7.005235e+01	-8.391805e-04
7.045697e+01	-8.489017e-04
7.086393e+01	-8.587355e-04
7.127323e+01	-8.686832e-04
7.168490e+01	-8.787461e-04
7.209895e+01	-8.889255e-04
7.251539e+01	-8.992229e-04
7.293424e+01	-9.096396e-04
7.335551e+01	-9.201769e-04
7.377920e+01	-9.308362e-04
7.420535e+01	-9.416191e-04
7.463396e+01	-9.525268e-04
7.506504e+01	-9.635608e-04
7.549861e+01	-9.747227e-04
7.593469e+01	-9.860138e-04
7.637328e+01	-9.974358e-04
7.681441e+01	-1.008990e-03
7.725809e+01	-1.020678e-03
7.770433e+01	-1.032501e-03
7.815315e+01	-1.044462e-03
7.860456e+01	-1.056561e-03
7.905857e+01	-1.068800e-03
7.951521e+01	-1.081181e-03
7.997449e+01	-1.093705e-03
8.043642e+01	-1.106374e-03
8.090102e+01	-1.119190e-03
8.136830e+01	-1.132154e-03
8.183828e+01	-1.145269e-03
8.231097e+01	-1.158536e-03
8.278640e+01	-1.171956e-03
8.326457e+01	-1.185531e-03
8.374550e+01	-1.199264e-03
8.422921e+01	-1.213156e-03
8.471572e+01	-1.227209e-03
8.520503e+01	-1.241424e-03
8.569717e+01	-1.255804e-03
8.619215e+01	-1.270351e-03
8.669000e+01	-1.285066e-03
8.719071e+01	-1.299952e-03
8.769432e+01	-1.315010e-03
8.820084e+01	-1.330242e-03
8.871029e+01	-1.345651e-03
8.922267e+01	-1.361238e-03
8.973802e+01	-1.377006e-03
9.025634e+01	-1.392957e-03
9.077766e+01	-1.409092e-03
9.130199e+01	-1.425414e-03
9.182935e+01	-1.441925e-03
9.235975e+01	-1.458627e-03
9.289321e+01	-1.475523e-03
9.342976e+01	-1.492614e-03
9.396941e+01	-1.509904e-03
9.451217e+01	-1.527393e-03
9.505807e+01	-1.545085e-03
9.560712e+01	-1.562982e-03
9.615934e+01	-1.581086e-03
9.671476e+01	-1.599400e-03
9.727338e+01	-1.617926e-03
9.783522e+01	-1.636667e-03
9.840032e+01	-1.655625e-03
9.896867e+01	-1.674802e-03
9.954031e+01	-1.694201e-03
1.001153e+02	-1.713825e-03
1.006935e+02	-1.733676e-03
1.012751e+02	-1.753757e-03
1.018601e+02	-1.774071e-03
1.024484e+02	-1.794620e-03
1.030402e+02	-1.815406e-03
1.036353e+02	-1.836434e-03
1.042339e+02	-1.857705e-03
1.048360e+02	-1.879222e-03
1.054415e+02	-1.900989e-03
1.060505e+02	-1.923007e-03
1.066631e+02	-1.945281e-03
1.072791e+02	-1.967812e-03
1.078988e+02	-1.990605e-03
1.085220e+02	-2.013661e-03
1.091488e+02	-2.036984e-03
1.097793e+02	-2.060578e-03
1.104133e+02	-2.084444e-03
1.110511e+02	-2.108587e-03
1.116925e+02	-2.133010e-03
1.123376e+02	-2.157715e-03
1.129865e+02	-2.182707e-03
1.136391e+02	-2.207988e-03
1.142955e+02	-2.233561e-03
1.149556e+02	-2.259431e-03
1.156196e+02	-2.285600e-03
1.162874e+02	-2.312072e-03
1.169591e+02	-2.338851e-03
1.176347e+02	-2.365940e-03
1.183141e+02	-2.393342e-03
1.189975e+02	-2.421062e-03
1.196848e+02	-2.449103e-03
1.203761e+02	-2.477468e-03
1.210714e+02	-2.506162e-03
1.217707e+02	-2.535188e-03
1.224740e+02	-2.564550e-03
1.231814e+02	-2.594252e-03
1.238929e+02	-2.624298e-03
1.246085e+02	-2.654692e-03
1.253283e+02	-2.685438e-03
1.260522e+02	-2.716540e-03
1.267802e+02	-2.748002e-03
1.275125e+02	-2.779828e-03
1.282490e+02	-2.812022e-03
1.289898e+02	-2.844590e-03
1.297348e+02	-2.877534e-03
1.304842e+02	-2.910860e-03
1.312378e+02	-2.944571e-03
1.319959e+02	-2.978673e-03
1.327583e+02	-3.013170e-03
1.335251e+02	-3.048066e-03
1.342963e+02	-3.083366e-03
1.350720e+02	-3.119075e-03
1.358522e+02	-3.155197e-03
1.366368e+02	-3.191737e-03
1.374260e+02	-3.228701e-03
1.382198e+02	-3.266092e-03
1.390182e+02	-3.303916e-03
1.398211e+02	-3.342178e-03
1.406287e+02	-3.380883e-03
1.414410e+02	-3.420036e-03
1.422579e+02	-3.459642e-03
1.430796e+02	-3.499707e-03
1.439060e+02	-3.540235e-03
1.447372e+02	-3.581233e-03
1.455732e+02	-3.622705e-03
1.464141e+02	-3.664657e-03
1.472597e+02	-3.707095e-03
1.481103e+02	-3.750024e-03
1.489658e+02	-3.793450e-03
1.498262e+02	-3.837379e-03
1.506916e+02	-3.881816e-03
1.515620e+02	-3.926768e-03
1.524374e+02	-3.972239e-03
1.533179e+02	-4.018237e-03
1.542034e+02	-4.064768e-03
1.550941e+02	-4.111837e-03
1.559899e+02	-4.159451e-03
1.568909e+02	-4.207616e-03
1.577971e+02	-4.256338e-03
1.587085e+02	-4.305624e-03
1.596252e+02	-4.355481e-03
1.605472e+02	-4.405915e-03
1.614745e+02	-4.456932e-03
1.624072e+02	-4.508540e-03
1.633453e+02	-4.560745e-03
1.642887e+02	-4.613554e-03
1.652377e+02	-4.666975e-03
1.661921e+02	-4.721014e-03
1.671520e+02	-4.775678e-03
1.681175e+02	-4.830974e-03
1.690885e+02	-4.886911e-03
1.700651e+02	-4.943495e-03
1.710474e+02	-5.000733e-03
1.720354e+02	-5.058634e-03
1.730291e+02	-5.117205e-03
1.740285e+02	-5.176454e-03
1.750337e+02	-5.236388e-03
1.760446e+02	-5.297016e-03
1.770615e+02	-5.358345e-03
1.780842e+02	-5.420384e-03
1.791128e+02	-5.483141e-03
1.801473e+02	-5.546624e-03
1.811878e+02	-5.610841e-03
1.822344e+02	-5.675802e-03
1.832870e+02	-5.741514e-03
1.843456e+02	-5.807986e-03
1.854104e+02	-5.875227e-03
1.864813e+02	-5.943247e-03
1.875584e+02	-6.012053e-03
1.886418e+02	-6.081655e-03
1.897313e+02	-6.152063e-03
1.908272e+02	-6.223285e-03
1.919294e+02	-6.295331e-03
1.930380e+02	-6.368210e-03
1.941530e+02	-6.441933e-03
1.952744e+02	-6.516508e-03
1.964023e+02	-6.591946e-03
1.975367e+02	-6.668256e-03
1.986777e+02	-6.745450e-03
1.998252e+02	-6.823536e-03
2.009794e+02	-6.902525e-03
2.021403e+02	-6.982428e-03
2.033078e+02	-7.063256e-03
2.044821e+02	-7.145018e-03
2.056632e+02	-7.227725e-03
2.068511e+02	-7.311390e-03
2.080459e+02	-7.396022e-03
2.092475e+02	-7.481632e-03
2.104561e+02	-7.568233e-03
2.116717e+02	-7.655836e-03
2.128943e+02	-7.744451e-03
2.141240e+02	-7.834091e-03
2.153608e+02	-7.924768e-03
2.166047e+02	-8.016494e-03
2.178558e+02	-8.109280e-03
2.191141e+02	-8.203139e-03
2.203797e+02	-8.298083e-03
2.216526e+02	-8.394126e-03
2.229329e+02	-8.491278e-03
2.242205e+02	-8.589554e-03
2.255156e+02	-8.688967e-03
2.268182e+02	-8.789528e-03
2.281283e+02	-8.891253e-03
2.294459e+02	-8.994153e-03
2.307712e+02	-9.098243e-03
2.321041e+02	-9.203536e-03
2.334447e+02	-9.310047e-03
2.347931e+02	-9.417789e-03
2.361493e+02	-9.526776e-03
2.375133e+02	-9.637024e-03
2.388851e+02	-9.748545e-03
2.402649e+02	-9.861356e-03
2.416527e+02	-9.975471e-03
2.430484e+02	-1.009090e-02
2.444523e+02	-1.020767e-02
2.458642e+02	-1.032579e-02
2.472843e+02	-1.044527e-02
2.487126e+02	-1.056614e-02
2.501492e+02	-1.068840e-02
2.515940e+02	-1.081207e-02
2.530472e+02	-1.093717e-02
2.545088e+02	-1.106372e-02
2.559789e+02	-1.119173e-02
2.574574e+02	-1.132122e-02
2.589444e+02	-1.145220e-02
2.604401e+02	-1.158470e-02
2.619444e+02	-1.171873e-02
2.634574e+02	-1.185431e-02
2.649791e+02	-1.199146e-02
2.665096e+02	-1.213019e-02
2.680489e+02	-1.227052e-02
2.695972e+02	-1.241247e-02
2.711544e+02	-1.255606e-02
2.727205e+02	-1.270132e-02
2.742958e+02	-1.284825e-02
2.758801e+02	-1.299687e-02
2.774736e+02	-1.314722e-02
2.790762e+02	-1.329929e-02
2.806882e+02	-1.345313e-02
2.823094e+02	-1.360874e-02
2.839400e+02	-1.376615e-02
2.855800e+02	-1.392538e-02
2.872295e+02	-1.408645e-02
2.888886e+02	-1.424937e-02
2.905572e+02	-1.441418e-02
2.922354e+02	-1.458089e-02
2.939234e+02	-1.474953e-02
2.956211e+02	-1.492011e-02
2.973286e+02	-1.509266e-02
2.990459e+02	-1.526721e-02
3.007732e+02	-1.544376e-02
3.025104e+02	-1.562236e-02
3.042577e+02	-1.580302e-02
3.060151e+02	-1.598576e-02
3.077826e+02	-1.617062e-02
3.095604e+02	-1.635760e-02
3.113484e+02	-1.654675e-02
3.131467e+02	-1.673808e-02
3.149554e+02	-1.693161e-02
3.167746e+02	-1.712738e-02
3.186043e+02	-1.732541e-02
3.204445e+02	-1.752572e-02
3.222954e+02	-1.772834e-02
3.241570e+02	-1.793331e-02
3.260293e+02	-1.814063e-02
3.279124e+02	-1.835035e-02
3.298064e+02	-1.856249e-02
3.317114e+02	-1.877707e-02
3.336273e+02	-1.899413e-02
3.355544e+02	-1.921370e-02
3.374925e+02	-1.943579e-02
3.394418e+02	-1.966045e-02
3.414024e+02	-1.988770e-02
3.433744e+02	-2.011756e-02
3.453577e+02	-2.035008e-02
3.473525e+02	-2.058528e-02
3.493588e+02	-2.082319e-02
3.513766e+02	-2.106385e-02
3.534062e+02	-2.130728e-02
3.554474e+02	-2.155351e-02
3.575005e+02	-2.180259e-02
3.595654e+02	-2.205453e-02
3.616422e+02	-2.230938e-02
3.637311e+02	-2.256717e-02
3.658320e+02	-2.282792e-02
3.679450e+02	-2.309169e-02
3.700702e+02	-2.335849e-02
3.722077e+02	-2.362836e-02
3.743576e+02	-2.390135e-02
3.765199e+02	-2.417748e-02
3.786946e+02	-2.445679e-02
3.808820e+02	-2.473932e-02
3.830819e+02	-2.502510e-02
3.852946e+02	-2.531417e-02
3.875200e+02	-2.560658e-02
3.897583e+02	-2.590235e-02
3.920096e+02	-2.620152e-02
3.942738e+02	-2.650415e-02
3.965511e+02	-2.681025e-02
3.988416e+02	-2.711988e-02
4.011452e+02	-2.743308e-02
4.034622e+02	-2.774988e-02
4.057926e+02	-2.807032e-02
4.081365e+02	-2.839446e-02
4.104938e+02	-2.872232e-02
4.128648e+02	-2.905396e-02
4.152495e+02	-2.938942e-02
4.176480e+02	-2.972873e-02
4.200603e+02	-3.007195e-02
4.224866e+02	-3.041912e-02
4.249268e+02	-3.077028e-02
4.273812e+02	-3.112548e-02
4.298497e+02	-3.148476e-02
4.323325e+02	-3.184818e-02
4.348297e+02	-3.221578e-02
4.373412e+02	-3.258760e-02
4.398673e+02	-3.296370e-02
4.424079e+02	-3.334412e-02
4.449633e+02	-3.372892e-02
4.475334e+02	-3.411814e-02
4.501183e+02	-3.451183e-02
4.527182e+02	-3.491004e-02
4.553330e+02	-3.531284e-02
4.579630e+02	-3.572026e-02
4.606082e+02	-3.613236e-02
4.632687e+02	-3.654920e-02
4.659445e+02	-3.697082e-02
4.686358e+02	-3.739729e-02
4.713426e+02	-3.782865e-02
4.740650e+02	-3.826497e-02
4.768032e+02	-3.870630e-02
4.795572e+02	-3.915269e-02
4.823271e+02	-3.960421e-02
4.851130e+02	-4.006092e-02
4.879150e+02	-4.052286e-02
4.907332e+02	-4.099011e-02
4.935676e+02	-4.146272e-02
4.964185e+02	-4.194075e-02
4.992858e+02	-4.242426e-02
5.021696e+02	-4.291332e-02
5.050701e+02	-4.340799e-02
5.079874e+02	-4.390834e-02
5.109215e+02	-4.441442e-02
5.138726e+02	-4.492630e-02
5.168407e+02	-4.544406e-02
5.198259e+02	-4.596775e-02
5.228284e+02	-4.649744e-02
5.258482e+02	-4.703320e-02
5.288855e+02	-4.757510e-02
5.319403e+02	-4.812321e-02
5.350128e+02	-4.867760e-02
5.381030e+02	-4.923833e-02
5.412111e+02	-4.980550e-02
5.443371e+02	-5.037915e-02
5.474812e+02	-5.095938e-02
5.506434e+02	-5.154624e-02
5.538239e+02	-5.213983e-02
5.570228e+02	-5.274021e-02
5.602401e+02	-5.334746e-02
5.634760e+02	-5.396165e-02
5.667306e+02	-5.458288e-02
5.700040e+02	-5.521121e-02
5.732964e+02	-5.584672e-02
5.766077e+02	-5.648951e-02
5.799382e+02	-5.713964e-02
5.832879e+02	-5.779721e-02
5.866569e+02	-5.846229e-02
5.900454e+02	-5.913497e-02
5.934535e+02	-5.981534e-02
5.968813e+02	-6.050348e-02
6.003288e+02	-6.119949e-02
6.037963e+02	-6.190344e-02
6.072838e+02	-6.261543e-02
6.107914e+02	-6.333555e-02
6.143194e+02	-6.406389e-02
6.178676e+02	-6.480054e-02
6.214364e+02	-6.554560e-02
6.250258e+02	-6.629917e-02
6.286359e+02	-6.706132e-02
6.322669e+02	-6.783217e-02
6.359189e+02	-6.861181e-02
6.395919e+02	-6.940034e-02
6.432862e+02	-7.019786e-02
6.470017e+02	-7.100447e-02
6.507388e+02	-7.182027e-02
6.544974e+02	-7.264536e-02
6.582778e+02	-7.347986e-02
6.620800e+02	-7.432385e-02
6.659041e+02	-7.517746e-02
6.697504e+02	-7.604078e-02
6.736188e+02	-7.691393e-02
6.775096e+02	-7.779702e-02
6.814229e+02	-7.869015e-02
6.853587e+02	-7.959344e-02
6.893173e+02	-8.050701e-02
6.932988e+02	-8.143096e-02
6.973033e+02	-8.236541e-02
7.013309e+02	-8.331049e-02
