Frequency(Hz)	Magnitude(dB)
1.000000e+01	-1.746664e-05
1.005776e+01	-1.766899e-05
1.011585e+01	-1.787369e-05
1.017428e+01	-1.808076e-05
1.023305e+01	-1.829023e-05
1.029215e+01	-1.850213e-05
1.035160e+01	-1.871648e-05
1.041139e+01	-1.893332e-05
1.047153e+01	-1.915267e-05
1.053201e+01	-1.937455e-05
1.059284e+01	-1.959901e-05
1.065403e+01	-1.982607e-05
1.071556e+01	-2.005576e-05
1.077746e+01	-2.028811e-05
1.083971e+01	-2.052316e-05
1.090232e+01	-2.076092e-05
1.096529e+01	-2.100144e-05
1.102862e+01	-2.124475e-05
1.109232e+01	-2.149088e-05
1.115639e+01	-2.173985e-05
1.122083e+01	-2.199172e-05
1.128564e+01	-2.224649e-05
1.135083e+01	-2.250423e-05
1.141639e+01	-2.276494e-05
1.148233e+01	-2.302868e-05
1.154865e+01	-2.329547e-05
1.161536e+01	-2.356536e-05
1.168245e+01	-2.383837e-05
1.174992e+01	-2.411454e-05
1.181779e+01	-2.439391e-05
1.188605e+01	-2.467652e-05
1.195470e+01	-2.496241e-05
1.202375e+01	-2.525160e-05
1.209320e+01	-2.554415e-05
1.216305e+01	-2.584008e-05
1.223330e+01	-2.613945e-05
1.230396e+01	-2.644228e-05
1.237503e+01	-2.674862e-05
1.244651e+01	-2.705851e-05
1.251840e+01	-2.737199e-05
1.259070e+01	-2.768910e-05
1.266343e+01	-2.800989e-05
1.273657e+01	-2.833439e-05
1.281014e+01	-2.866265e-05
1.288413e+01	-2.899471e-05
1.295855e+01	-2.933062e-05
1.303339e+01	-2.967042e-05
1.310867e+01	-3.001416e-05
1.318439e+01	-3.036188e-05
1.326054e+01	-3.071363e-05
1.333713e+01	-3.106946e-05
1.341417e+01	-3.142941e-05
1.349165e+01	-3.179352e-05
1.356958e+01	-3.216186e-05
1.364795e+01	-3.253446e-05
1.372678e+01	-3.291138e-05
1.380607e+01	-3.329267e-05
1.388581e+01	-3.367837e-05
1.396602e+01	-3.406854e-05
1.404668e+01	-3.446323e-05
1.412782e+01	-3.486250e-05
1.420942e+01	-3.526639e-05
1.429149e+01	-3.567496e-05
1.437404e+01	-3.608826e-05
1.445706e+01	-3.650635e-05
1.454057e+01	-3.692929e-05
1.462455e+01	-3.735712e-05
1.470902e+01	-3.778991e-05
1.479398e+01	-3.822772e-05
1.487943e+01	-3.867059e-05
1.496537e+01	-3.911860e-05
1.505181e+01	-3.957180e-05
1.513875e+01	-4.003025e-05
1.522619e+01	-4.049401e-05
1.531414e+01	-4.096314e-05
1.540259e+01	-4.143771e-05
1.549156e+01	-4.191777e-05
1.558103e+01	-4.240340e-05
1.567103e+01	-4.289465e-05
1.576155e+01	-4.339159e-05
1.585258e+01	-4.389430e-05
1.594415e+01	-4.440282e-05
1.603624e+01	-4.491724e-05
1.612886e+01	-4.543761e-05
1.622202e+01	-4.596402e-05
1.631572e+01	-4.649652e-05
1.640996e+01	-4.703519e-05
1.650474e+01	-4.758011e-05
1.660008e+01	-4.813133e-05
1.669596e+01	-4.868894e-05
1.679239e+01	-4.925302e-05
1.688938e+01	-4.982362e-05
1.698694e+01	-5.040084e-05
1.708505e+01	-5.098474e-05
1.718373e+01	-5.157541e-05
1.728299e+01	-5.217292e-05
1.738281e+01	-5.277736e-05
1.748322e+01	-5.338880e-05
1.758420e+01	-5.400732e-05
1.768576e+01	-5.463300e-05
1.778792e+01	-5.526594e-05
1.789066e+01	-5.590620e-05
1.799399e+01	-5.655389e-05
1.809793e+01	-5.720908e-05
1.820246e+01	-5.787186e-05
1.830760e+01	-5.854231e-05
1.841334e+01	-5.922054e-05
1.851969e+01	-5.990662e-05
1.862666e+01	-6.060065e-05
1.873425e+01	-6.130272e-05
1.884246e+01	-6.201292e-05
1.895129e+01	-6.273136e-05
1.906075e+01	-6.345811e-05
1.917085e+01	-6.419329e-05
1.928158e+01	-6.493698e-05
1.939295e+01	-6.568928e-05
1.950496e+01	-6.645031e-05
1.961762e+01	-6.722015e-05
1.973093e+01	-6.799890e-05
1.984490e+01	-6.878668e-05
1.995952e+01	-6.958359e-05
2.007480e+01	-7.038973e-05
2.019076e+01	-7.120521e-05
2.030738e+01	-7.203013e-05
2.042467e+01	-7.286462e-05
2.054264e+01	-7.370877e-05
2.066130e+01	-7.456270e-05
2.078064e+01	-7.542652e-05
2.090066e+01	-7.630035e-05
2.102139e+01	-7.718430e-05
2.114280e+01	-7.807849e-05
2.126492e+01	-7.898305e-05
2.138775e+01	-7.989808e-05
2.151128e+01	-8.082371e-05
2.163553e+01	-8.176007e-05
2.176050e+01	-8.270727e-05
2.188619e+01	-8.366545e-05
2.201260e+01	-8.463473e-05
2.213974e+01	-8.561524e-05
2.226762e+01	-8.660710e-05
2.239624e+01	-8.761046e-05
2.252560e+01	-8.862544e-05
2.265571e+01	-8.965218e-05
2.278656e+01	-9.069082e-05
2.291818e+01	-9.174148e-05
2.305055e+01	-9.280432e-05
2.318369e+01	-9.387947e-05
2.331760e+01	-9.496708e-05
2.345228e+01	-9.606729e-05
2.358774e+01	-9.718024e-05
2.372398e+01	-9.830609e-05
2.386101e+01	-9.944498e-05
2.399883e+01	-1.005971e-04
2.413745e+01	-1.017625e-04
2.427686e+01	-1.029414e-04
2.441709e+01	-1.041340e-04
2.455812e+01	-1.053404e-04
2.469997e+01	-1.065608e-04
2.484263e+01	-1.077953e-04
2.498612e+01	-1.090442e-04
2.513044e+01	-1.103074e-04
2.527559e+01	-1.115854e-04
2.542158e+01	-1.128781e-04
2.556842e+01	-1.141858e-04
2.571610e+01	-1.155087e-04
2.586463e+01	-1.168469e-04
2.601403e+01	-1.182005e-04
2.616428e+01	-1.195699e-04
2.631541e+01	-1.209551e-04
2.646740e+01	-1.223564e-04
2.662028e+01	-1.237739e-04
2.677404e+01	-1.252079e-04
2.692868e+01	-1.266584e-04
2.708422e+01	-1.281258e-04
2.724066e+01	-1.296101e-04
2.739800e+01	-1.311117e-04
2.755625e+01	-1.326306e-04
2.771541e+01	-1.341671e-04
2.787550e+01	-1.357215e-04
2.803650e+01	-1.372938e-04
2.819844e+01	-1.388844e-04
2.836131e+01	-1.404934e-04
2.852513e+01	-1.421210e-04
2.868989e+01	-1.437675e-04
2.885560e+01	-1.454330e-04
2.902227e+01	-1.471179e-04
2.918990e+01	-1.488223e-04
2.935850e+01	-1.505464e-04
2.952807e+01	-1.522905e-04
2.969863e+01	-1.540548e-04
2.987016e+01	-1.558395e-04
3.004269e+01	-1.576449e-04
3.021622e+01	-1.594713e-04
3.039075e+01	-1.613187e-04
3.056628e+01	-1.631876e-04
3.074283e+01	-1.650782e-04
3.092040e+01	-1.669906e-04
3.109900e+01	-1.689252e-04
3.127862e+01	-1.708822e-04
3.145929e+01	-1.728619e-04
3.164099e+01	-1.748645e-04
3.182375e+01	-1.768903e-04
3.200756e+01	-1.789396e-04
3.219244e+01	-1.810126e-04
3.237838e+01	-1.831097e-04
3.256540e+01	-1.852310e-04
3.275349e+01	-1.873769e-04
3.294268e+01	-1.895477e-04
3.313295e+01	-1.917436e-04
3.332433e+01	-1.939649e-04
3.351681e+01	-1.962120e-04
3.371040e+01	-1.984851e-04
3.390511e+01	-2.007846e-04
3.410094e+01	-2.031107e-04
3.429791e+01	-2.054637e-04
3.449601e+01	-2.078440e-04
3.469526e+01	-2.102519e-04
3.489566e+01	-2.126876e-04
3.509721e+01	-2.151516e-04
3.529993e+01	-2.176442e-04
3.550382e+01	-2.201656e-04
3.570889e+01	-2.227162e-04
3.591515e+01	-2.252963e-04
3.612259e+01	-2.279064e-04
3.633123e+01	-2.305467e-04
3.654108e+01	-2.332176e-04
3.675214e+01	-2.359194e-04
3.696442e+01	-2.386525e-04
3.717792e+01	-2.414173e-04
3.739266e+01	-2.442141e-04
3.760864e+01	-2.470433e-04
3.782587e+01	-2.499053e-04
3.804435e+01	-2.528004e-04
3.826409e+01	-2.557291e-04
3.848510e+01	-2.586917e-04
3.870739e+01	-2.616886e-04
3.893096e+01	-2.647203e-04
3.915583e+01	-2.677870e-04
3.938199e+01	-2.708893e-04
3.960946e+01	-2.740275e-04
3.983824e+01	-2.772021e-04
4.006834e+01	-2.804135e-04
4.029978e+01	-2.836620e-04
4.053255e+01	-2.869482e-04
4.076666e+01	-2.902725e-04
4.100213e+01	-2.936353e-04
4.123896e+01	-2.970370e-04
4.147715e+01	-3.004781e-04
4.171672e+01	-3.039591e-04
4.195767e+01	-3.074805e-04
4.220002e+01	-3.110426e-04
4.244377e+01	-3.146460e-04
4.268892e+01	-3.182911e-04
4.293549e+01	-3.219785e-04
4.318348e+01	-3.257085e-04
4.343291e+01	-3.294818e-04
4.368377e+01	-3.332988e-04
4.393609e+01	-3.371600e-04
4.418986e+01	-3.410659e-04
4.444510e+01	-3.450171e-04
4.470182e+01	-3.490141e-04
4.496001e+01	-3.530574e-04
4.521970e+01	-3.571475e-04
4.548089e+01	-3.612849e-04
4.574358e+01	-3.654703e-04
4.600779e+01	-3.697042e-04
4.627353e+01	-3.739872e-04
4.654081e+01	-3.783197e-04
4.680963e+01	-3.827025e-04
4.708000e+01	-3.871360e-04
4.735193e+01	-3.916209e-04
4.762543e+01	-3.961577e-04
4.790051e+01	-4.007471e-04
4.817719e+01	-4.053896e-04
4.845545e+01	-4.100860e-04
4.873533e+01	-4.148367e-04
4.901682e+01	-4.196425e-04
4.929994e+01	-4.245039e-04
4.958470e+01	-4.294217e-04
4.987110e+01	-4.343964e-04
5.015915e+01	-4.394287e-04
5.044887e+01	-4.445194e-04
5.074026e+01	-4.496690e-04
5.103333e+01	-4.548782e-04
5.132810e+01	-4.601479e-04
5.162457e+01	-4.654785e-04
5.192275e+01	-4.708709e-04
5.222265e+01	-4.763258e-04
5.252429e+01	-4.818438e-04
5.282767e+01	-4.874258e-04
5.313280e+01	-4.930725e-04
5.343969e+01	-4.987845e-04
5.374836e+01	-5.045627e-04
5.405880e+01	-5.104079e-04
5.437105e+01	-5.163208e-04
5.468509e+01	-5.223021e-04
5.500095e+01	-5.283528e-04
5.531863e+01	-5.344735e-04
5.563815e+01	-5.406651e-04
5.595951e+01	-5.469285e-04
5.628273e+01	-5.532644e-04
5.660782e+01	-5.596737e-04
5.693479e+01	-5.661573e-04
5.726364e+01	-5.727159e-04
5.759439e+01	-5.793506e-04
5.792705e+01	-5.860621e-04
5.826164e+01	-5.928513e-04
5.859815e+01	-5.997191e-04
5.893662e+01	-6.066666e-04
5.927703e+01	-6.136945e-04
5.961941e+01	-6.208038e-04
5.996377e+01	-6.279955e-04
6.031012e+01	-6.352704e-04
6.065847e+01	-6.426297e-04
6.100883e+01	-6.500741e-04
6.136121e+01	-6.576049e-04
6.171563e+01	-6.652228e-04
6.207210e+01	-6.729290e-04
6.243063e+01	-6.807245e-04
6.279122e+01	-6.886102e-04
6.315390e+01	-6.965873e-04
6.351868e+01	-7.046568e-04
6.388556e+01	-7.128198e-04
6.425456e+01	-7.210773e-04
6.462569e+01	-7.294305e-04
6.499897e+01	-7.378804e-04
6.537440e+01	-7.464282e-04
6.575200e+01	-7.550751e-04
6.613178e+01	-7.638220e-04
6.651375e+01	-7.726703e-04
6.689793e+01	-7.816211e-04
6.728433e+01	-7.906756e-04
6.767297e+01	-7.998350e-04
6.806384e+01	-8.091004e-04
6.845698e+01	-8.184732e-04
6.885238e+01	-8.279545e-04
6.925007e+01	-8.375457e-04
6.965005e+01	-8.472479e-04
7.005235e+01	-8.570625e-04
7.045697e+01	-8.669909e-04
7.086393e+01	-8.770342e-04
7.127323e+01	-8.871938e-04
7.168490e+01	-8.974711e-04
7.209895e+01	-9.078675e-04
7.251539e+01	-9.183843e-04
7.293424e+01	-9.290229e-04
7.335551e+01	-9.397847e-04
7.377920e+01	-9.506712e-04
7.420535e+01	-9.616837e-04
7.463396e+01	-9.728238e-04
7.506504e+01	-9.840930e-04
7.549861e+01	-9.954927e-04
7.593469e+01	-1.007024e-03
7.637328e+01	-1.018690e-03
7.681441e+01	-1.030490e-03
7.725809e+01	-1.042427e-03
7.770433e+01	-1.054502e-03
7.815315e+01	-1.066718e-03
7.860456e+01	-1.079074e-03
7.905857e+01	-1.091574e-03
7.951521e+01	-1.104219e-03
7.997449e+01	-1.117010e-03
8.043642e+01	-1.129949e-03
8.090102e+01	-1.143038e-03
8.136830e+01	-1.156279e-03
8.183828e+01	-1.169673e-03
8.231097e+01	-1.183222e-03
8.278640e+01	-1.196928e-03
8.326457e+01	-1.210793e-03
8.374550e+01	-1.224818e-03
8.422921e+01	-1.239006e-03
8.471572e+01	-1.253358e-03
8.520503e+01	-1.267876e-03
8.569717e+01	-1.282563e-03
8.619215e+01	-1.297419e-03
8.669000e+01	-1.312448e-03
8.719071e+01	-1.327651e-03
8.769432e+01	-1.343030e-03
8.820084e+01	-1.358587e-03
8.871029e+01	-1.374324e-03
8.922267e+01	-1.390243e-03
8.973802e+01	-1.406347e-03
9.025634e+01	-1.422637e-03
9.077766e+01	-1.439116e-03
9.130199e+01	-1.455786e-03
9.182935e+01	-1.472649e-03
9.235975e+01	-1.489707e-03
9.289321e+01	-1.506962e-03
9.342976e+01	-1.524418e-03
9.396941e+01	-1.542075e-03
9.451217e+01	-1.559938e-03
9.505807e+01	-1.578007e-03
9.560712e+01	-1.596285e-03
9.615934e+01	-1.614775e-03
9.671476e+01	-1.633479e-03
9.727338e+01	-1.652400e-03
9.783522e+01	-1.671539e-03
9.840032e+01	-1.690901e-03
9.896867e+01	-1.710487e-03
9.954031e+01	-1.730299e-03
1.001153e+02	-1.750341e-03
1.006935e+02	-1.770615e-03
1.012751e+02	-1.791124e-03
1.018601e+02	-1.811870e-03
1.024484e+02	-1.832857e-03
1.030402e+02	-1.854086e-03
1.036353e+02	-1.875562e-03
1.042339e+02	-1.897286e-03
1.048360e+02	-1.919262e-03
1.054415e+02	-1.941492e-03
1.060505e+02	-1.963979e-03
1.066631e+02	-1.986727e-03
1.072791e+02	-2.009739e-03
1.078988e+02	-2.033017e-03
1.085220e+02	-2.056564e-03
1.091488e+02	-2.080384e-03
1.097793e+02	-2.104480e-03
1.104133e+02	-2.128855e-03
1.110511e+02	-2.153513e-03
1.116925e+02	-2.178455e-03
1.123376e+02	-2.203687e-03
1.129865e+02	-2.229211e-03
1.136391e+02	-2.255030e-03
1.142955e+02	-2.281148e-03
1.149556e+02	-2.307569e-03
1.156196e+02	-2.334296e-03
1.162874e+02	-2.361332e-03
1.169591e+02	-2.388681e-03
1.176347e+02	-2.416347e-03
1.183141e+02	-2.444333e-03
1.189975e+02	-2.472643e-03
1.196848e+02	-2.501281e-03
1.203761e+02	-2.530250e-03
1.210714e+02	-2.559555e-03
1.217707e+02	-2.589200e-03
1.224740e+02	-2.619187e-03
1.231814e+02	-2.649522e-03
1.238929e+02	-2.680208e-03
1.246085e+02	-2.711249e-03
1.253283e+02	-2.742650e-03
1.260522e+02	-2.774414e-03
1.267802e+02	-2.806546e-03
1.275125e+02	-2.839050e-03
1.282490e+02	-2.871930e-03
1.289898e+02	-2.905191e-03
1.297348e+02	-2.938837e-03
1.304842e+02	-2.972872e-03
1.312378e+02	-3.007302e-03
1.319959e+02	-3.042130e-03
1.327583e+02	-3.077361e-03
1.335251e+02	-3.113001e-03
1.342963e+02	-3.149052e-03
1.350720e+02	-3.185522e-03
1.358522e+02	-3.222413e-03
1.366368e+02	-3.259732e-03
1.374260e+02	-3.297482e-03
1.382198e+02	-3.335670e-03
1.390182e+02	-3.374299e-03
1.398211e+02	-3.413376e-03
1.406287e+02	-3.452905e-03
1.414410e+02	-3.492892e-03
1.422579e+02	-3.533341e-03
1.430796e+02	-3.574259e-03
1.439060e+02	-3.615651e-03
1.447372e+02	-3.657521e-03
1.455732e+02	-3.699876e-03
1.464141e+02	-3.742722e-03
1.472597e+02	-3.786063e-03
1.481103e+02	-3.829907e-03
1.489658e+02	-3.874257e-03
1.498262e+02	-3.919121e-03
1.506916e+02	-3.964504e-03
1.515620e+02	-4.010413e-03
1.524374e+02	-4.056853e-03
1.533179e+02	-4.103830e-03
1.542034e+02	-4.151352e-03
1.550941e+02	-4.199423e-03
1.559899e+02	-4.248050e-03
1.568909e+02	-4.297241e-03
1.577971e+02	-4.347000e-03
1.587085e+02	-4.397336e-03
1.596252e+02	-4.448254e-03
1.605472e+02	-4.499762e-03
1.614745e+02	-4.551865e-03
1.624072e+02	-4.604572e-03
1.633453e+02	-4.657888e-03
1.642887e+02	-4.711822e-03
1.652377e+02	-4.766379e-03
1.661921e+02	-4.821568e-03
1.671520e+02	-4.877396e-03
1.681175e+02	-4.933870e-03
1.690885e+02	-4.990997e-03
1.700651e+02	-5.048785e-03
1.710474e+02	-5.107242e-03
1.720354e+02	-5.166376e-03
1.730291e+02	-5.226194e-03
1.740285e+02	-5.286703e-03
1.750337e+02	-5.347913e-03
1.760446e+02	-5.409832e-03
1.770615e+02	-5.472466e-03
1.780842e+02	-5.535826e-03
1.791128e+02	-5.599918e-03
1.801473e+02	-5.664753e-03
1.811878e+02	-5.730337e-03
1.822344e+02	-5.796680e-03
1.832870e+02	-5.863790e-03
1.843456e+02	-5.931677e-03
1.854104e+02	-6.000350e-03
1.864813e+02	-6.069817e-03
1.875584e+02	-6.140087e-03
1.886418e+02	-6.211171e-03
1.897313e+02	-6.283077e-03
1.908272e+02	-6.355814e-03
1.919294e+02	-6.429393e-03
1.930380e+02	-6.503824e-03
1.941530e+02	-6.579115e-03
1.952744e+02	-6.655277e-03
1.964023e+02	-6.732320e-03
1.975367e+02	-6.810255e-03
1.986777e+02	-6.889090e-03
1.998252e+02	-6.968838e-03
2.009794e+02	-7.049508e-03
2.021403e+02	-7.131111e-03
2.033078e+02	-7.213658e-03
2.044821e+02	-7.297160e-03
2.056632e+02	-7.381627e-03
2.068511e+02	-7.467072e-03
2.080459e+02	-7.553504e-03
2.092475e+02	-7.640936e-03
2.104561e+02	-7.729380e-03
2.116717e+02	-7.818846e-03
2.128943e+02	-7.909346e-03
2.141240e+02	-8.000893e-03
2.153608e+02	-8.093499e-03
2.166047e+02	-8.187176e-03
2.178558e+02	-8.281936e-03
2.191141e+02	-8.377791e-03
2.203797e+02	-8.474755e-03
2.216526e+02	-8.572840e-03
2.229329e+02	-8.672059e-03
2.242205e+02	-8.772425e-03
2.255156e+02	-8.873952e-03
2.268182e+02	-8.976652e-03
2.281283e+02	-9.080540e-03
2.294459e+02	-9.185629e-03
2.307712e+02	-9.291933e-03
2.321041e+02	-9.399465e-03
2.334447e+02	-9.508241e-03
2.347931e+02	-9.618274e-03
2.361493e+02	-9.729579e-03
2.375133e+02	-9.842170e-03
2.388851e+02	-9.956063e-03
2.402649e+02	-1.007127e-02
2.416527e+02	-1.018781e-02
2.430484e+02	-1.030570e-02
2.444523e+02	-1.042495e-02
2.458642e+02	-1.054558e-02
2.472843e+02	-1.066760e-02
2.487126e+02	-1.079104e-02
2.501492e+02	-1.091590e-02
2.515940e+02	-1.104220e-02
2.530472e+02	-1.116996e-02
2.545088e+02	-1.129920e-02
2.559789e+02	-1.142993e-02
2.574574e+02	-1.156217e-02
2.589444e+02	-1.169594e-02
2.604401e+02	-1.183126e-02
2.619444e+02	-1.196813e-02
2.634574e+02	-1.210659e-02
2.649791e+02	-1.224665e-02
2.665096e+02	-1.238833e-02
2.680489e+02	-1.253165e-02
2.695972e+02	-1.267662e-02
2.711544e+02	-1.282326e-02
2.727205e+02	-1.297160e-02
2.742958e+02	-1.312165e-02
2.758801e+02	-1.327343e-02
2.774736e+02	-1.342697e-02
2.790762e+02	-1.358228e-02
2.806882e+02	-1.373939e-02
2.823094e+02	-1.389831e-02
2.839400e+02	-1.405906e-02
2.855800e+02	-1.422167e-02
2.872295e+02	-1.438616e-02
2.888886e+02	-1.455255e-02
2.905572e+02	-1.472085e-02
2.922354e+02	-1.489111e-02
2.939234e+02	-1.506332e-02
2.956211e+02	-1.523753e-02
2.973286e+02	-1.541374e-02
2.990459e+02	-1.559199e-02
3.007732e+02	-1.577230e-02
3.025104e+02	-1.595469e-02
3.042577e+02	-1.613919e-02
3.060151e+02	-1.632581e-02
3.077826e+02	-1.651459e-02
3.095604e+02	-1.670554e-02
3.113484e+02	-1.689871e-02
3.131467e+02	-1.709409e-02
3.149554e+02	-1.729174e-02
3.167746e+02	-1.749166e-02
3.186043e+02	-1.769389e-02
3.204445e+02	-1.789846e-02
3.222954e+02	-1.810538e-02
3.241570e+02	-1.831469e-02
3.260293e+02	-1.852642e-02
3.279124e+02	-1.874059e-02
3.298064e+02	-1.895723e-02
3.317114e+02	-1.917637e-02
3.336273e+02	-1.939803e-02
3.355544e+02	-1.962225e-02
3.374925e+02	-1.984906e-02
3.394418e+02	-2.007849e-02
3.414024e+02	-2.031055e-02
3.433744e+02	-2.054530e-02
3.453577e+02	-2.078275e-02
3.473525e+02	-2.102294e-02
3.493588e+02	-2.126590e-02
3.513766e+02	-2.151166e-02
3.534062e+02	-2.176025e-02
3.554474e+02	-2.201170e-02
3.575005e+02	-2.226606e-02
3.595654e+02	-2.252335e-02
3.616422e+02	-2.278360e-02
3.637311e+02	-2.304685e-02
3.658320e+02	-2.331313e-02
3.679450e+02	-2.358249e-02
3.700702e+02	-2.385494e-02
3.722077e+02	-2.413054e-02
3.743576e+02	-2.440931e-02
3.765199e+02	-2.469129e-02
3.786946e+02	-2.497652e-02
3.808820e+02	-2.526504e-02
3.830819e+02	-2.555687e-02
3.852946e+02	-2.585207e-02
3.875200e+02	-2.615067e-02
3.897583e+02	-2.645271e-02
3.920096e+02	-2.675822e-02
3.942738e+02	-2.706726e-02
3.965511e+02	-2.737985e-02
3.988416e+02	-2.769603e-02
4.011452e+02	-2.801586e-02
4.034622e+02	-2.833937e-02
4.057926e+02	-2.866660e-02
4.081365e+02	-2.899760e-02
4.104938e+02	-2.933241e-02
4.128648e+02	-2.967107e-02
4.152495e+02	-3.001362e-02
4.176480e+02	-3.036012e-02
4.200603e+02	-3.071060e-02
4.224866e+02	-3.106512e-02
4.249268e+02	-3.142371e-02
4.273812e+02	-3.178642e-02
4.298497e+02	-3.215331e-02
4.323325e+02	-3.252442e-02
4.348297e+02	-3.289979e-02
4.373412e+02	-3.327948e-02
4.398673e+02	-3.366353e-02
4.424079e+02	-3.405200e-02
4.449633e+02	-3.444493e-02
4.475334e+02	-3.484238e-02
4.501183e+02	-3.524440e-02
4.527182e+02	-3.565103e-02
4.553330e+02	-3.606234e-02
4.579630e+02	-3.647837e-02
4.606082e+02	-3.689918e-02
4.632687e+02	-3.732483e-02
4.659445e+02	-3.775536e-02
4.686358e+02	-3.819084e-02
4.713426e+02	-3.863132e-02
4.740650e+02	-3.907685e-02
4.768032e+02	-3.952751e-02
4.795572e+02	-3.998333e-02
4.823271e+02	-4.044438e-02
4.851130e+02	-4.091073e-02
4.879150e+02	-4.138243e-02
4.907332e+02	-4.185954e-02
4.935676e+02	-4.234213e-02
4.964185e+02	-4.283025e-02
4.992858e+02	-4.332397e-02
5.021696e+02	-4.382335e-02
5.050701e+02	-4.432846e-02
5.079874e+02	-4.483936e-02
5.109215e+02	-4.535611e-02
5.138726e+02	-4.587880e-02
5.168407e+02	-4.640747e-02
5.198259e+02	-4.694220e-02
5.228284e+02	-4.748306e-02
5.258482e+02	-4.803012e-02
5.288855e+02	-4.858344e-02
5.319403e+02	-4.914310e-02
5.350128e+02	-4.970918e-02
5.381030e+02	-5.028173e-02
5.412111e+02	-5.086084e-02
5.443371e+02	-5.144658e-02
5.474812e+02	-5.203903e-02
5.506434e+02	-5.263825e-02
5.538239e+02	-5.324434e-02
5.570228e+02	-5.385736e-02
5.602401e+02	-5.447739e-02
5.634760e+02	-5.510452e-02
5.667306e+02	-5.573882e-02
5.700040e+02	-5.638037e-02
5.732964e+02	-5.702926e-02
5.766077e+02	-5.768556e-02
5.799382e+02	-5.834937e-02
5.832879e+02	-5.902077e-02
5.866569e+02	-5.969983e-02
5.900454e+02	-6.038666e-02
5.934535e+02	-6.108133e-02
5.968813e+02	-6.178394e-02
6.003288e+02	-6.249457e-02
6.037963e+02	-6.321331e-02
6.072838e+02	-6.394026e-02
6.107914e+02	-6.467551e-02
6.143194e+02	-6.541914e-02
6.178676e+02	-6.617126e-02
6.214364e+02	-6.693197e-02
6.250258e+02	-6.770134e-02
6.286359e+02	-6.847950e-02
6.322669e+02	-6.926652e-02
6.359189e+02	-7.006252e-02
6.395919e+02	-7.086759e-02
6.432862e+02	-7.168183e-02
6.470017e+02	-7.250535e-02
6.507388e+02	-7.333825e-02
6.544974e+02	-7.418064e-02
6.582778e+02	-7.503262e-02
6.620800e+02	-7.589430e-02
6.659041e+02	-7.676579e-02
6.697504e+02	-7.764719e-02
6.736188e+02	-7.853863e-02
6.775096e+02	-7.944020e-02
6.814229e+02	-8.035203e-02
6.853587e+02	-8.127422e-02
6.893173e+02	-8.220690e-02
6.932988e+02	-8.315018e-02
6.973033e+02	-8.410417e-02
7.013309e+02	-8.506901e-02
