Frequency(Hz)	Magnitude(dB)
1.000000e+01	-1.677592e-05
1.005776e+01	-1.697028e-05
1.011585e+01	-1.716688e-05
1.017428e+01	-1.736576e-05
1.023305e+01	-1.756695e-05
1.029215e+01	-1.777047e-05
1.035160e+01	-1.797634e-05
1.041139e+01	-1.818460e-05
1.047153e+01	-1.839528e-05
1.053201e+01	-1.860839e-05
1.059284e+01	-1.882397e-05
1.065403e+01	-1.904206e-05
1.071556e+01	-1.926266e-05
1.077746e+01	-1.948583e-05
1.083971e+01	-1.971157e-05
1.090232e+01	-1.993994e-05
1.096529e+01	-2.017095e-05
1.102862e+01	-2.040463e-05
1.109232e+01	-2.064102e-05
1.115639e+01	-2.088016e-05
1.122083e+01	-2.112206e-05
1.128564e+01	-2.136676e-05
1.135083e+01	-2.161430e-05
1.141639e+01	-2.186471e-05
1.148233e+01	-2.211802e-05
1.154865e+01	-2.237426e-05
1.161536e+01	-2.263347e-05
1.168245e+01	-2.289569e-05
1.174992e+01	-2.316094e-05
1.181779e+01	-2.342926e-05
1.188605e+01	-2.370070e-05
1.195470e+01	-2.397528e-05
1.202375e+01	-2.425303e-05
1.209320e+01	-2.453401e-05
1.216305e+01	-2.481824e-05
1.223330e+01	-2.510577e-05
1.230396e+01	-2.539663e-05
1.237503e+01	-2.569085e-05
1.244651e+01	-2.598849e-05
1.251840e+01	-2.628957e-05
1.259070e+01	-2.659414e-05
1.266343e+01	-2.690224e-05
1.273657e+01	-2.721391e-05
1.281014e+01	-2.752919e-05
1.288413e+01	-2.784812e-05
1.295855e+01	-2.817075e-05
1.303339e+01	-2.849711e-05
1.310867e+01	-2.882726e-05
1.318439e+01	-2.916123e-05
1.326054e+01	-2.949907e-05
1.333713e+01	-2.984083e-05
1.341417e+01	-3.018654e-05
1.349165e+01	-3.053626e-05
1.356958e+01	-3.089003e-05
1.364795e+01	-3.124789e-05
1.372678e+01	-3.160991e-05
1.380607e+01	-3.197612e-05
1.388581e+01	-3.234657e-05
1.396602e+01	-3.272131e-05
1.404668e+01	-3.310039e-05
1.412782e+01	-3.348387e-05
1.420942e+01	-3.387179e-05
1.429149e+01	-3.426420e-05
1.437404e+01	-3.466116e-05
1.445706e+01	-3.506272e-05
1.454057e+01	-3.546893e-05
1.462455e+01	-3.587984e-05
1.470902e+01	-3.629552e-05
1.479398e+01	-3.671601e-05
1.487943e+01	-3.714138e-05
1.496537e+01	-3.757167e-05
1.505181e+01	-3.800694e-05
1.513875e+01	-3.844726e-05
1.522619e+01	-3.889268e-05
1.531414e+01	-3.934326e-05
1.540259e+01	-3.979906e-05
1.549156e+01	-4.026014e-05
1.558103e+01	-4.072657e-05
1.567103e+01	-4.119839e-05
1.576155e+01	-4.167569e-05
1.585258e+01	-4.215851e-05
1.594415e+01	-4.264692e-05
1.603624e+01	-4.314100e-05
1.612886e+01	-4.364080e-05
1.622202e+01	-4.414639e-05
1.631572e+01	-4.465783e-05
1.640996e+01	-4.517520e-05
1.650474e+01	-4.569857e-05
1.660008e+01	-4.622799e-05
1.669596e+01	-4.676356e-05
1.679239e+01	-4.730532e-05
1.688938e+01	-4.785336e-05
1.698694e+01	-4.840776e-05
1.708505e+01	-4.896857e-05
1.718373e+01	-4.953588e-05
1.728299e+01	-5.010976e-05
1.738281e+01	-5.069030e-05
1.748322e+01	-5.127755e-05
1.758420e+01	-5.187162e-05
1.768576e+01	-5.247256e-05
1.778792e+01	-5.308047e-05
1.789066e+01	-5.369541e-05
1.799399e+01	-5.431749e-05
1.809793e+01	-5.494677e-05
1.820246e+01	-5.558333e-05
1.830760e+01	-5.622728e-05
1.841334e+01	-5.687868e-05
1.851969e+01	-5.753763e-05
1.862666e+01	-5.820422e-05
1.873425e+01	-5.887853e-05
1.884246e+01	-5.956065e-05
1.895129e+01	-6.025067e-05
1.906075e+01	-6.094869e-05
1.917085e+01	-6.165479e-05
1.928158e+01	-6.236907e-05
1.939295e+01	-6.309163e-05
1.950496e+01	-6.382256e-05
1.961762e+01	-6.456195e-05
1.973093e+01	-6.530992e-05
1.984490e+01	-6.606654e-05
1.995952e+01	-6.683194e-05
2.007480e+01	-6.760620e-05
2.019076e+01	-6.838943e-05
2.030738e+01	-6.918173e-05
2.042467e+01	-6.998322e-05
2.054264e+01	-7.079399e-05
2.066130e+01	-7.161415e-05
2.078064e+01	-7.244381e-05
2.090066e+01	-7.328308e-05
2.102139e+01	-7.413208e-05
2.114280e+01	-7.499092e-05
2.126492e+01	-7.585970e-05
2.138775e+01	-7.673855e-05
2.151128e+01	-7.762758e-05
2.163553e+01	-7.852691e-05
2.176050e+01	-7.943665e-05
2.188619e+01	-8.035694e-05
2.201260e+01	-8.128789e-05
2.213974e+01	-8.222962e-05
2.226762e+01	-8.318227e-05
2.239624e+01	-8.414595e-05
2.252560e+01	-8.512079e-05
2.265571e+01	-8.610693e-05
2.278656e+01	-8.710449e-05
2.291818e+01	-8.811361e-05
2.305055e+01	-8.913442e-05
2.318369e+01	-9.016706e-05
2.331760e+01	-9.121166e-05
2.345228e+01	-9.226836e-05
2.358774e+01	-9.333730e-05
2.372398e+01	-9.441863e-05
2.386101e+01	-9.551249e-05
2.399883e+01	-9.661901e-05
2.413745e+01	-9.773836e-05
2.427686e+01	-9.887067e-05
2.441709e+01	-1.000161e-04
2.455812e+01	-1.011748e-04
2.469997e+01	-1.023469e-04
2.484263e+01	-1.035326e-04
2.498612e+01	-1.047321e-04
2.513044e+01	-1.059454e-04
2.527559e+01	-1.071728e-04
2.542158e+01	-1.084144e-04
2.556842e+01	-1.096704e-04
2.571610e+01	-1.109410e-04
2.586463e+01	-1.122262e-04
2.601403e+01	-1.135264e-04
2.616428e+01	-1.148416e-04
2.631541e+01	-1.161720e-04
2.646740e+01	-1.175179e-04
2.662028e+01	-1.188794e-04
2.677404e+01	-1.202566e-04
2.692868e+01	-1.216498e-04
2.708422e+01	-1.230591e-04
2.724066e+01	-1.244848e-04
2.739800e+01	-1.259269e-04
2.755625e+01	-1.273858e-04
2.771541e+01	-1.288616e-04
2.787550e+01	-1.303545e-04
2.803650e+01	-1.318646e-04
2.819844e+01	-1.333923e-04
2.836131e+01	-1.349377e-04
2.852513e+01	-1.365009e-04
2.868989e+01	-1.380823e-04
2.885560e+01	-1.396820e-04
2.902227e+01	-1.413002e-04
2.918990e+01	-1.429372e-04
2.935850e+01	-1.445932e-04
2.952807e+01	-1.462683e-04
2.969863e+01	-1.479628e-04
2.987016e+01	-1.496770e-04
3.004269e+01	-1.514110e-04
3.021622e+01	-1.531651e-04
3.039075e+01	-1.549395e-04
3.056628e+01	-1.567345e-04
3.074283e+01	-1.585503e-04
3.092040e+01	-1.603871e-04
3.109900e+01	-1.622452e-04
3.127862e+01	-1.641248e-04
3.145929e+01	-1.660262e-04
3.164099e+01	-1.679496e-04
3.182375e+01	-1.698953e-04
3.200756e+01	-1.718636e-04
3.219244e+01	-1.738546e-04
3.237838e+01	-1.758688e-04
3.256540e+01	-1.779062e-04
3.275349e+01	-1.799672e-04
3.294268e+01	-1.820522e-04
3.313295e+01	-1.841613e-04
3.332433e+01	-1.862948e-04
3.351681e+01	-1.884530e-04
3.371040e+01	-1.906362e-04
3.390511e+01	-1.928448e-04
3.410094e+01	-1.950789e-04
3.429791e+01	-1.973389e-04
3.449601e+01	-1.996250e-04
3.469526e+01	-2.019377e-04
3.489566e+01	-2.042771e-04
3.509721e+01	-2.066437e-04
3.529993e+01	-2.090377e-04
3.550382e+01	-2.114594e-04
3.570889e+01	-2.139091e-04
3.591515e+01	-2.163872e-04
3.612259e+01	-2.188941e-04
3.633123e+01	-2.214300e-04
3.654108e+01	-2.239952e-04
3.675214e+01	-2.265902e-04
3.696442e+01	-2.292153e-04
3.717792e+01	-2.318707e-04
3.739266e+01	-2.345569e-04
3.760864e+01	-2.372743e-04
3.782587e+01	-2.400231e-04
3.804435e+01	-2.428037e-04
3.826409e+01	-2.456166e-04
3.848510e+01	-2.484621e-04
3.870739e+01	-2.513405e-04
3.893096e+01	-2.542522e-04
3.915583e+01	-2.571977e-04
3.938199e+01	-2.601773e-04
3.960946e+01	-2.631915e-04
3.983824e+01	-2.662405e-04
4.006834e+01	-2.693249e-04
4.029978e+01	-2.724450e-04
4.053255e+01	-2.756013e-04
4.076666e+01	-2.787941e-04
4.100213e+01	-2.820239e-04
4.123896e+01	-2.852911e-04
4.147715e+01	-2.885962e-04
4.171672e+01	-2.919395e-04
4.195767e+01	-2.953216e-04
4.220002e+01	-2.987429e-04
4.244377e+01	-3.022038e-04
4.268892e+01	-3.057048e-04
4.293549e+01	-3.092463e-04
4.318348e+01	-3.128289e-04
4.343291e+01	-3.164530e-04
4.368377e+01	-3.201190e-04
4.393609e+01	-3.238276e-04
4.418986e+01	-3.275791e-04
4.444510e+01	-3.313740e-04
4.470182e+01	-3.352129e-04
4.496001e+01	-3.390963e-04
4.521970e+01	-3.430247e-04
4.548089e+01	-3.469985e-04
4.574358e+01	-3.510185e-04
4.600779e+01	-3.550849e-04
4.627353e+01	-3.591985e-04
4.654081e+01	-3.633598e-04
4.680963e+01	-3.675692e-04
4.708000e+01	-3.718274e-04
4.735193e+01	-3.761350e-04
4.762543e+01	-3.804924e-04
4.790051e+01	-3.849003e-04
4.817719e+01	-3.893593e-04
4.845545e+01	-3.938699e-04
4.873533e+01	-3.984328e-04
4.901682e+01	-4.030485e-04
4.929994e+01	-4.077177e-04
4.958470e+01	-4.124410e-04
4.987110e+01	-4.172191e-04
5.015915e+01	-4.220524e-04
5.044887e+01	-4.269418e-04
5.074026e+01	-4.318878e-04
5.103333e+01	-4.368911e-04
5.132810e+01	-4.419523e-04
5.162457e+01	-4.470722e-04
5.192275e+01	-4.522514e-04
5.222265e+01	-4.574905e-04
5.252429e+01	-4.627904e-04
5.282767e+01	-4.681517e-04
5.313280e+01	-4.735751e-04
5.343969e+01	-4.790613e-04
5.374836e+01	-4.846110e-04
5.405880e+01	-4.902250e-04
5.437105e+01	-4.959041e-04
5.468509e+01	-5.016490e-04
5.500095e+01	-5.074604e-04
5.531863e+01	-5.133391e-04
5.563815e+01	-5.192859e-04
5.595951e+01	-5.253016e-04
5.628273e+01	-5.313870e-04
5.660782e+01	-5.375429e-04
5.693479e+01	-5.437701e-04
5.726364e+01	-5.500694e-04
5.759439e+01	-5.564417e-04
5.792705e+01	-5.628878e-04
5.826164e+01	-5.694086e-04
5.859815e+01	-5.760049e-04
5.893662e+01	-5.826777e-04
5.927703e+01	-5.894277e-04
5.961941e+01	-5.962559e-04
5.996377e+01	-6.031632e-04
6.031012e+01	-6.101505e-04
6.065847e+01	-6.172188e-04
6.100883e+01	-6.243689e-04
6.136121e+01	-6.316019e-04
6.171563e+01	-6.389186e-04
6.207210e+01	-6.463201e-04
6.243063e+01	-6.538073e-04
6.279122e+01	-6.613813e-04
6.315390e+01	-6.690430e-04
6.351868e+01	-6.767934e-04
6.388556e+01	-6.846337e-04
6.425456e+01	-6.925647e-04
6.462569e+01	-7.005876e-04
6.499897e+01	-7.087035e-04
6.537440e+01	-7.169133e-04
6.575200e+01	-7.252182e-04
6.613178e+01	-7.336194e-04
6.651375e+01	-7.421178e-04
6.689793e+01	-7.507147e-04
6.728433e+01	-7.594112e-04
6.767297e+01	-7.682084e-04
6.806384e+01	-7.771075e-04
6.845698e+01	-7.861097e-04
6.885238e+01	-7.952162e-04
6.925007e+01	-8.044281e-04
6.965005e+01	-8.137468e-04
7.005235e+01	-8.231734e-04
7.045697e+01	-8.327091e-04
7.086393e+01	-8.423554e-04
7.127323e+01	-8.521133e-04
7.168490e+01	-8.619843e-04
7.209895e+01	-8.719696e-04
7.251539e+01	-8.820706e-04
7.293424e+01	-8.922886e-04
7.335551e+01	-9.026249e-04
7.377920e+01	-9.130810e-04
7.420535e+01	-9.236582e-04
7.463396e+01	-9.343578e-04
7.506504e+01	-9.451815e-04
7.549861e+01	-9.561304e-04
7.593469e+01	-9.672062e-04
7.637328e+01	-9.784103e-04
7.681441e+01	-9.897442e-04
7.725809e+01	-1.001209e-03
7.770433e+01	-1.012807e-03
7.815315e+01	-1.024540e-03
7.860456e+01	-1.036408e-03
7.905857e+01	-1.048413e-03
7.951521e+01	-1.060558e-03
7.997449e+01	-1.072843e-03
8.043642e+01	-1.085271e-03
8.090102e+01	-1.097842e-03
8.136830e+01	-1.110560e-03
8.183828e+01	-1.123424e-03
8.231097e+01	-1.136438e-03
8.278640e+01	-1.149602e-03
8.326457e+01	-1.162918e-03
8.374550e+01	-1.176389e-03
8.422921e+01	-1.190016e-03
8.471572e+01	-1.203801e-03
8.520503e+01	-1.217745e-03
8.569717e+01	-1.231851e-03
8.619215e+01	-1.246121e-03
8.669000e+01	-1.260555e-03
8.719071e+01	-1.275157e-03
8.769432e+01	-1.289928e-03
8.820084e+01	-1.304870e-03
8.871029e+01	-1.319985e-03
8.922267e+01	-1.335275e-03
8.973802e+01	-1.350742e-03
9.025634e+01	-1.366388e-03
9.077766e+01	-1.382216e-03
9.130199e+01	-1.398226e-03
9.182935e+01	-1.414422e-03
9.235975e+01	-1.430806e-03
9.289321e+01	-1.447380e-03
9.342976e+01	-1.464145e-03
9.396941e+01	-1.481105e-03
9.451217e+01	-1.498261e-03
9.505807e+01	-1.515616e-03
9.560712e+01	-1.533171e-03
9.615934e+01	-1.550930e-03
9.671476e+01	-1.568895e-03
9.727338e+01	-1.587068e-03
9.783522e+01	-1.605451e-03
9.840032e+01	-1.624047e-03
9.896867e+01	-1.642859e-03
9.954031e+01	-1.661888e-03
1.001153e+02	-1.681138e-03
1.006935e+02	-1.700610e-03
1.012751e+02	-1.720308e-03
1.018601e+02	-1.740235e-03
1.024484e+02	-1.760392e-03
1.030402e+02	-1.780782e-03
1.036353e+02	-1.801409e-03
1.042339e+02	-1.822274e-03
1.048360e+02	-1.843381e-03
1.054415e+02	-1.864733e-03
1.060505e+02	-1.886331e-03
1.066631e+02	-1.908180e-03
1.072791e+02	-1.930282e-03
1.078988e+02	-1.952640e-03
1.085220e+02	-1.975256e-03
1.091488e+02	-1.998135e-03
1.097793e+02	-2.021279e-03
1.104133e+02	-2.044690e-03
1.110511e+02	-2.068373e-03
1.116925e+02	-2.092330e-03
1.123376e+02	-2.116564e-03
1.129865e+02	-2.141079e-03
1.136391e+02	-2.165878e-03
1.142955e+02	-2.190964e-03
1.149556e+02	-2.216340e-03
1.156196e+02	-2.242010e-03
1.162874e+02	-2.267978e-03
1.169591e+02	-2.294246e-03
1.176347e+02	-2.320818e-03
1.183141e+02	-2.347698e-03
1.189975e+02	-2.374890e-03
1.196848e+02	-2.402396e-03
1.203761e+02	-2.430220e-03
1.210714e+02	-2.458367e-03
1.217707e+02	-2.486840e-03
1.224740e+02	-2.515642e-03
1.231814e+02	-2.544778e-03
1.238929e+02	-2.574251e-03
1.246085e+02	-2.604066e-03
1.253283e+02	-2.634225e-03
1.260522e+02	-2.664734e-03
1.267802e+02	-2.695596e-03
1.275125e+02	-2.726815e-03
1.282490e+02	-2.758396e-03
1.289898e+02	-2.790343e-03
1.297348e+02	-2.822659e-03
1.304842e+02	-2.855350e-03
1.312378e+02	-2.888419e-03
1.319959e+02	-2.921870e-03
1.327583e+02	-2.955710e-03
1.335251e+02	-2.989940e-03
1.342963e+02	-3.024568e-03
1.350720e+02	-3.059596e-03
1.358522e+02	-3.095029e-03
1.366368e+02	-3.130873e-03
1.374260e+02	-3.167132e-03
1.382198e+02	-3.203810e-03
1.390182e+02	-3.240913e-03
1.398211e+02	-3.278446e-03
1.406287e+02	-3.316413e-03
1.414410e+02	-3.354820e-03
1.422579e+02	-3.393671e-03
1.430796e+02	-3.432972e-03
1.439060e+02	-3.472728e-03
1.447372e+02	-3.512944e-03
1.455732e+02	-3.553626e-03
1.464141e+02	-3.594779e-03
1.472597e+02	-3.636408e-03
1.481103e+02	-3.678518e-03
1.489658e+02	-3.721117e-03
1.498262e+02	-3.764208e-03
1.506916e+02	-3.807798e-03
1.515620e+02	-3.851893e-03
1.524374e+02	-3.896498e-03
1.533179e+02	-3.941620e-03
1.542034e+02	-3.987263e-03
1.550941e+02	-4.033435e-03
1.559899e+02	-4.080142e-03
1.568909e+02	-4.127389e-03
1.577971e+02	-4.175183e-03
1.587085e+02	-4.223530e-03
1.596252e+02	-4.272436e-03
1.605472e+02	-4.321909e-03
1.614745e+02	-4.371954e-03
1.624072e+02	-4.422579e-03
1.633453e+02	-4.473789e-03
1.642887e+02	-4.525592e-03
1.652377e+02	-4.577994e-03
1.661921e+02	-4.631003e-03
1.671520e+02	-4.684626e-03
1.681175e+02	-4.738869e-03
1.690885e+02	-4.793739e-03
1.700651e+02	-4.849245e-03
1.710474e+02	-4.905393e-03
1.720354e+02	-4.962191e-03
1.730291e+02	-5.019646e-03
1.740285e+02	-5.077765e-03
1.750337e+02	-5.136558e-03
1.760446e+02	-5.196030e-03
1.770615e+02	-5.256191e-03
1.780842e+02	-5.317048e-03
1.791128e+02	-5.378610e-03
1.801473e+02	-5.440883e-03
1.811878e+02	-5.503877e-03
1.822344e+02	-5.567600e-03
1.832870e+02	-5.632060e-03
1.843456e+02	-5.697266e-03
1.854104e+02	-5.763226e-03
1.864813e+02	-5.829950e-03
1.875584e+02	-5.897446e-03
1.886418e+02	-5.965722e-03
1.897313e+02	-6.034788e-03
1.908272e+02	-6.104654e-03
1.919294e+02	-6.175327e-03
1.930380e+02	-6.246818e-03
1.941530e+02	-6.319137e-03
1.952744e+02	-6.392292e-03
1.964023e+02	-6.466293e-03
1.975367e+02	-6.541150e-03
1.986777e+02	-6.616873e-03
1.998252e+02	-6.693472e-03
2.009794e+02	-6.770957e-03
2.021403e+02	-6.849338e-03
2.033078e+02	-6.928626e-03
2.044821e+02	-7.008831e-03
2.056632e+02	-7.089964e-03
2.068511e+02	-7.172035e-03
2.080459e+02	-7.255055e-03
2.092475e+02	-7.339035e-03
2.104561e+02	-7.423987e-03
2.116717e+02	-7.509922e-03
2.128943e+02	-7.596850e-03
2.141240e+02	-7.684783e-03
2.153608e+02	-7.773733e-03
2.166047e+02	-7.863712e-03
2.178558e+02	-7.954732e-03
2.191141e+02	-8.046804e-03
2.203797e+02	-8.139941e-03
2.216526e+02	-8.234154e-03
2.229329e+02	-8.329457e-03
2.242205e+02	-8.425862e-03
2.255156e+02	-8.523382e-03
2.268182e+02	-8.622029e-03
2.281283e+02	-8.721817e-03
2.294459e+02	-8.822759e-03
2.307712e+02	-8.924867e-03
2.321041e+02	-9.028157e-03
2.334447e+02	-9.132640e-03
2.347931e+02	-9.238331e-03
2.361493e+02	-9.345244e-03
2.375133e+02	-9.453393e-03
2.388851e+02	-9.562792e-03
2.402649e+02	-9.673456e-03
2.416527e+02	-9.785399e-03
2.430484e+02	-9.898635e-03
2.444523e+02	-1.001318e-02
2.458642e+02	-1.012905e-02
2.472843e+02	-1.024626e-02
2.487126e+02	-1.036482e-02
2.501492e+02	-1.048476e-02
2.515940e+02	-1.060608e-02
2.530472e+02	-1.072880e-02
2.545088e+02	-1.085294e-02
2.559789e+02	-1.097851e-02
2.574574e+02	-1.110554e-02
2.589444e+02	-1.123403e-02
2.604401e+02	-1.136401e-02
2.619444e+02	-1.149549e-02
2.634574e+02	-1.162849e-02
2.649791e+02	-1.176303e-02
2.665096e+02	-1.189912e-02
2.680489e+02	-1.203678e-02
2.695972e+02	-1.217603e-02
2.711544e+02	-1.231690e-02
2.727205e+02	-1.245938e-02
2.742958e+02	-1.260352e-02
2.758801e+02	-1.274932e-02
2.774736e+02	-1.289680e-02
2.790762e+02	-1.304599e-02
2.806882e+02	-1.319690e-02
2.823094e+02	-1.334956e-02
2.839400e+02	-1.350397e-02
2.855800e+02	-1.366017e-02
2.872295e+02	-1.381818e-02
2.888886e+02	-1.397801e-02
2.905572e+02	-1.413968e-02
2.922354e+02	-1.430322e-02
2.939234e+02	-1.446865e-02
2.956211e+02	-1.463599e-02
2.973286e+02	-1.480526e-02
2.990459e+02	-1.497649e-02
3.007732e+02	-1.514969e-02
3.025104e+02	-1.532489e-02
3.042577e+02	-1.550212e-02
3.060151e+02	-1.568139e-02
3.077826e+02	-1.586273e-02
3.095604e+02	-1.604616e-02
3.113484e+02	-1.623171e-02
3.131467e+02	-1.641941e-02
3.149554e+02	-1.660926e-02
3.167746e+02	-1.680131e-02
3.186043e+02	-1.699558e-02
3.204445e+02	-1.719209e-02
3.222954e+02	-1.739086e-02
3.241570e+02	-1.759193e-02
3.260293e+02	-1.779532e-02
3.279124e+02	-1.800105e-02
3.298064e+02	-1.820916e-02
3.317114e+02	-1.841967e-02
3.336273e+02	-1.863261e-02
3.355544e+02	-1.884800e-02
3.374925e+02	-1.906588e-02
3.394418e+02	-1.928627e-02
3.414024e+02	-1.950920e-02
3.433744e+02	-1.973471e-02
3.453577e+02	-1.996281e-02
3.473525e+02	-2.019355e-02
3.493588e+02	-2.042694e-02
3.513766e+02	-2.066303e-02
3.534062e+02	-2.090184e-02
3.554474e+02	-2.114340e-02
3.575005e+02	-2.138775e-02
3.595654e+02	-2.163491e-02
3.616422e+02	-2.188493e-02
3.637311e+02	-2.213782e-02
3.658320e+02	-2.239363e-02
3.679450e+02	-2.265239e-02
3.700702e+02	-2.291413e-02
3.722077e+02	-2.317888e-02
3.743576e+02	-2.344669e-02
3.765199e+02	-2.371758e-02
3.786946e+02	-2.399159e-02
3.808820e+02	-2.426876e-02
3.830819e+02	-2.454913e-02
3.852946e+02	-2.483272e-02
3.875200e+02	-2.511958e-02
3.897583e+02	-2.540974e-02
3.920096e+02	-2.570325e-02
3.942738e+02	-2.600013e-02
3.965511e+02	-2.630044e-02
3.988416e+02	-2.660420e-02
4.011452e+02	-2.691146e-02
4.034622e+02	-2.722225e-02
4.057926e+02	-2.753663e-02
4.081365e+02	-2.785462e-02
4.104938e+02	-2.817627e-02
4.128648e+02	-2.850163e-02
4.152495e+02	-2.883073e-02
4.176480e+02	-2.916362e-02
4.200603e+02	-2.950033e-02
4.224866e+02	-2.984093e-02
4.249268e+02	-3.018544e-02
4.273812e+02	-3.053391e-02
4.298497e+02	-3.088639e-02
4.323325e+02	-3.124293e-02
4.348297e+02	-3.160357e-02
4.373412e+02	-3.196835e-02
4.398673e+02	-3.233733e-02
4.424079e+02	-3.271055e-02
4.449633e+02	-3.308807e-02
4.475334e+02	-3.346992e-02
4.501183e+02	-3.385616e-02
4.527182e+02	-3.424685e-02
4.553330e+02	-3.464202e-02
4.579630e+02	-3.504173e-02
4.606082e+02	-3.544604e-02
4.632687e+02	-3.585499e-02
4.659445e+02	-3.626864e-02
4.686358e+02	-3.668705e-02
4.713426e+02	-3.711026e-02
4.740650e+02	-3.753833e-02
4.768032e+02	-3.797131e-02
4.795572e+02	-3.840927e-02
4.823271e+02	-3.885226e-02
4.851130e+02	-3.930033e-02
4.879150e+02	-3.975355e-02
4.907332e+02	-4.021197e-02
4.935676e+02	-4.067565e-02
4.964185e+02	-4.114465e-02
4.992858e+02	-4.161903e-02
5.021696e+02	-4.209886e-02
5.050701e+02	-4.258419e-02
5.079874e+02	-4.307509e-02
5.109215e+02	-4.357162e-02
5.138726e+02	-4.407384e-02
5.168407e+02	-4.458182e-02
5.198259e+02	-4.509563e-02
5.228284e+02	-4.561533e-02
5.258482e+02	-4.614098e-02
5.288855e+02	-4.667266e-02
5.319403e+02	-4.721043e-02
5.350128e+02	-4.775437e-02
5.381030e+02	-4.830453e-02
5.412111e+02	-4.886100e-02
5.443371e+02	-4.942384e-02
5.474812e+02	-4.999313e-02
5.506434e+02	-5.056894e-02
5.538239e+02	-5.115134e-02
5.570228e+02	-5.174041e-02
5.602401e+02	-5.233622e-02
5.634760e+02	-5.293885e-02
5.667306e+02	-5.354838e-02
5.700040e+02	-5.416488e-02
5.732964e+02	-5.478843e-02
5.766077e+02	-5.541911e-02
5.799382e+02	-5.605701e-02
5.832879e+02	-5.670220e-02
5.866569e+02	-5.735477e-02
5.900454e+02	-5.801480e-02
5.934535e+02	-5.868238e-02
5.968813e+02	-5.935758e-02
6.003288e+02	-6.004050e-02
6.037963e+02	-6.073122e-02
6.072838e+02	-6.142982e-02
6.107914e+02	-6.213641e-02
6.143194e+02	-6.285107e-02
6.178676e+02	-6.357388e-02
6.214364e+02	-6.430495e-02
6.250258e+02	-6.504436e-02
6.286359e+02	-6.579221e-02
6.322669e+02	-6.654859e-02
6.359189e+02	-6.731360e-02
6.395919e+02	-6.808733e-02
6.432862e+02	-6.886989e-02
6.470017e+02	-6.966136e-02
6.507388e+02	-7.046186e-02
6.544974e+02	-7.127149e-02
6.582778e+02	-7.209034e-02
6.620800e+02	-7.291851e-02
6.659041e+02	-7.375612e-02
6.697504e+02	-7.460327e-02
6.736188e+02	-7.546007e-02
6.775096e+02	-7.632662e-02
6.814229e+02	-7.720303e-02
6.853587e+02	-7.808941e-02
6.893173e+02	-7.898588e-02
6.932988e+02	-7.989254e-02
6.973033e+02	-8.080951e-02
7.013309e+02	-8.173691e-02
