Frequency(Hz)	Magnitude(dB)
1.000000e+01	-2.017652e+00
1.005776e+01	-2.036381e+00
1.011585e+01	-2.054996e+00
1.017428e+01	-2.074225e+00
1.023305e+01	-2.093311e+00
1.029215e+01	-2.112305e+00
1.035160e+01	-2.131768e+00
1.041139e+01	-2.150959e+00
1.047153e+01	-2.170952e+00
1.053201e+01	-2.190595e+00
1.059284e+01	-2.210265e+00
1.065403e+01	-2.230312e+00
1.071556e+01	-2.250437e+00
1.077746e+01	-2.271175e+00
1.083971e+01	-2.291231e+00
1.090232e+01	-2.311891e+00
1.096529e+01	-2.332720e+00
1.102862e+01	-2.353440e+00
1.109232e+01	-2.374319e+00
1.115639e+01	-2.395615e+00
1.122083e+01	-2.416892e+00
1.128564e+01	-2.438512e+00
1.135083e+01	-2.459962e+00
1.141639e+01	-2.481462e+00
1.148233e+01	-2.503416e+00
1.154865e+01	-2.525247e+00
1.161536e+01	-2.547643e+00
1.168245e+01	-2.569992e+00
1.174992e+01	-2.592217e+00
1.181779e+01	-2.614786e+00
1.188605e+01	-2.637282e+00
1.195470e+01	-2.660328e+00
1.202375e+01	-2.683350e+00
1.209320e+01	-2.706616e+00
1.216305e+01	-2.729598e+00
1.223330e+01	-2.753219e+00
1.230396e+01	-2.776755e+00
1.237503e+01	-2.800358e+00
1.244651e+01	-2.824175e+00
1.251840e+01	-2.848302e+00
1.259070e+01	-2.872499e+00
1.266343e+01	-2.896687e+00
1.273657e+01	-2.921053e+00
1.281014e+01	-2.945658e+00
1.288413e+01	-2.970311e+00
1.295855e+01	-2.995127e+00
1.303339e+01	-3.020124e+00
1.310867e+01	-3.045436e+00
1.318439e+01	-3.070555e+00
1.326054e+01	-3.096004e+00
1.333713e+01	-3.121595e+00
1.341417e+01	-3.147414e+00
1.349165e+01	-3.173176e+00
1.356958e+01	-3.199068e+00
1.364795e+01	-3.225492e+00
1.372678e+01	-3.251596e+00
1.380607e+01	-3.277994e+00
1.388581e+01	-3.304741e+00
1.396602e+01	-3.331265e+00
1.404668e+01	-3.358439e+00
1.412782e+01	-3.385195e+00
1.420942e+01	-3.412339e+00
1.429149e+01	-3.439834e+00
1.437404e+01	-3.467233e+00
1.445706e+01	-3.494770e+00
1.454057e+01	-3.522427e+00
1.462455e+01	-3.550375e+00
1.470902e+01	-3.578472e+00
1.479398e+01	-3.606490e+00
1.487943e+01	-3.634954e+00
1.496537e+01	-3.663360e+00
1.505181e+01	-3.691939e+00
1.513875e+01	-3.720577e+00
1.522619e+01	-3.749157e+00
1.531414e+01	-3.778383e+00
1.540259e+01	-3.807277e+00
1.549156e+01	-3.836718e+00
1.558103e+01	-3.866176e+00
1.567103e+01	-3.895633e+00
1.576155e+01	-3.925329e+00
1.585258e+01	-3.955295e+00
1.594415e+01	-3.984922e+00
1.603624e+01	-4.015322e+00
1.612886e+01	-4.045495e+00
1.622202e+01	-4.075996e+00
1.631572e+01	-4.106372e+00
1.640996e+01	-4.137260e+00
1.650474e+01	-4.167882e+00
1.660008e+01	-4.198720e+00
1.669596e+01	-4.229888e+00
1.679239e+01	-4.261243e+00
1.688938e+01	-4.292532e+00
1.698694e+01	-4.324135e+00
1.708505e+01	-4.355416e+00
1.718373e+01	-4.387320e+00
1.728299e+01	-4.418985e+00
1.738281e+01	-4.451171e+00
1.748322e+01	-4.483447e+00
1.758420e+01	-4.515443e+00
1.768576e+01	-4.548036e+00
1.778792e+01	-4.580523e+00
1.789066e+01	-4.613241e+00
1.799399e+01	-4.646069e+00
1.809793e+01	-4.679222e+00
1.820246e+01	-4.711841e+00
1.830760e+01	-4.745233e+00
1.841334e+01	-4.778467e+00
1.851969e+01	-4.811851e+00
1.862666e+01	-4.845769e+00
1.873425e+01	-4.879234e+00
1.884246e+01	-4.913207e+00
1.895129e+01	-4.947244e+00
1.906075e+01	-4.981020e+00
1.917085e+01	-5.015203e+00
1.928158e+01	-5.049559e+00
1.939295e+01	-5.084077e+00
1.950496e+01	-5.118451e+00
1.961762e+01	-5.153254e+00
1.973093e+01	-5.188029e+00
1.984490e+01	-5.223312e+00
1.995952e+01	-5.258198e+00
2.007480e+01	-5.293095e+00
2.019076e+01	-5.328643e+00
2.030738e+01	-5.364053e+00
2.042467e+01	-5.399634e+00
2.054264e+01	-5.435196e+00
2.066130e+01	-5.470915e+00
2.078064e+01	-5.506642e+00
2.090066e+01	-5.542729e+00
2.102139e+01	-5.578731e+00
2.114280e+01	-5.615336e+00
2.126492e+01	-5.651418e+00
2.138775e+01	-5.687961e+00
2.151128e+01	-5.724654e+00
2.163553e+01	-5.761394e+00
2.176050e+01	-5.798036e+00
2.188619e+01	-5.835070e+00
2.201260e+01	-5.872301e+00
2.213974e+01	-5.909496e+00
2.226762e+01	-5.946602e+00
2.239624e+01	-5.984102e+00
2.252560e+01	-6.021311e+00
2.265571e+01	-6.058649e+00
2.278656e+01	-6.096597e+00
2.291818e+01	-6.134361e+00
2.305055e+01	-6.172476e+00
2.318369e+01	-6.210032e+00
2.331760e+01	-6.248376e+00
2.345228e+01	-6.286301e+00
2.358774e+01	-6.324920e+00
2.372398e+01	-6.363467e+00
2.386101e+01	-6.402051e+00
2.399883e+01	-6.440514e+00
2.413745e+01	-6.479076e+00
2.427686e+01	-6.518061e+00
2.441709e+01	-6.556635e+00
2.455812e+01	-6.595983e+00
2.469997e+01	-6.634924e+00
2.484263e+01	-6.673937e+00
2.498612e+01	-6.713647e+00
2.513044e+01	-6.753140e+00
2.527559e+01	-6.792660e+00
2.542158e+01	-6.831851e+00
2.556842e+01	-6.871837e+00
2.571610e+01	-6.911403e+00
2.586463e+01	-6.951519e+00
2.601403e+01	-6.991546e+00
2.616428e+01	-7.031734e+00
2.631541e+01	-7.071494e+00
2.646740e+01	-7.111562e+00
2.662028e+01	-7.152206e+00
2.677404e+01	-7.192615e+00
2.692868e+01	-7.233004e+00
2.708422e+01	-7.273846e+00
2.724066e+01	-7.314852e+00
2.739800e+01	-7.355104e+00
2.755625e+01	-7.396393e+00
2.771541e+01	-7.437165e+00
2.787550e+01	-7.478388e+00
2.803650e+01	-7.519450e+00
2.819844e+01	-7.560504e+00
2.836131e+01	-7.601993e+00
2.852513e+01	-7.643691e+00
2.868989e+01	-7.684575e+00
2.885560e+01	-7.726647e+00
2.902227e+01	-7.767823e+00
2.918990e+01	-7.809430e+00
2.935850e+01	-7.851365e+00
2.952807e+01	-7.893185e+00
2.969863e+01	-7.935194e+00
2.987016e+01	-7.977379e+00
3.004269e+01	-8.019153e+00
3.021622e+01	-8.061515e+00
3.039075e+01	-8.103564e+00
3.056628e+01	-8.146153e+00
3.074283e+01	-8.188391e+00
3.092040e+01	-8.230685e+00
3.109900e+01	-8.273233e+00
3.127862e+01	-8.316328e+00
3.145929e+01	-8.359080e+00
3.164099e+01	-8.401437e+00
3.182375e+01	-8.444548e+00
3.200756e+01	-8.487312e+00
3.219244e+01	-8.530317e+00
3.237838e+01	-8.573385e+00
3.256540e+01	-8.616383e+00
3.275349e+01	-8.658780e+00
3.294268e+01	-8.702556e+00
3.313295e+01	-8.746182e+00
3.332433e+01	-8.789498e+00
3.351681e+01	-8.832758e+00
3.371040e+01	-8.876314e+00
3.390511e+01	-8.920424e+00
3.410094e+01	-8.963446e+00
3.429791e+01	-9.006998e+00
3.449601e+01	-9.050715e+00
3.469526e+01	-9.095217e+00
3.489566e+01	-9.139122e+00
3.509721e+01	-9.182509e+00
3.529993e+01	-9.227010e+00
3.550382e+01	-9.270974e+00
3.570889e+01	-9.314774e+00
3.591515e+01	-9.358895e+00
3.612259e+01	-9.403239e+00
3.633123e+01	-9.447887e+00
3.654108e+01	-9.491903e+00
3.675214e+01	-9.536611e+00
3.696442e+01	-9.581032e+00
3.717792e+01	-9.625646e+00
3.739266e+01	-9.670120e+00
3.760864e+01	-9.714850e+00
3.782587e+01	-9.759341e+00
3.804435e+01	-9.803917e+00
3.826409e+01	-9.849365e+00
3.848510e+01	-9.893866e+00
3.870739e+01	-9.938627e+00
3.893096e+01	-9.983407e+00
3.915583e+01	-1.002930e+01
3.938199e+01	-1.007435e+01
3.960946e+01	-1.011928e+01
3.983824e+01	-1.016498e+01
4.006834e+01	-1.020982e+01
4.029978e+01	-1.025438e+01
4.053255e+01	-1.029984e+01
4.076666e+01	-1.034506e+01
4.100213e+01	-1.039084e+01
4.123896e+01	-1.043683e+01
4.147715e+01	-1.048229e+01
4.171672e+01	-1.052799e+01
4.195767e+01	-1.057337e+01
4.220002e+01	-1.061890e+01
4.244377e+01	-1.066478e+01
4.268892e+01	-1.071018e+01
4.293549e+01	-1.075625e+01
4.318348e+01	-1.080192e+01
4.343291e+01	-1.084837e+01
4.368377e+01	-1.089375e+01
4.393609e+01	-1.093977e+01
4.418986e+01	-1.098624e+01
4.444510e+01	-1.103205e+01
4.470182e+01	-1.107782e+01
4.496001e+01	-1.112430e+01
4.521970e+01	-1.117026e+01
4.548089e+01	-1.121658e+01
4.574358e+01	-1.126250e+01
4.600779e+01	-1.130848e+01
4.627353e+01	-1.135522e+01
4.654081e+01	-1.140169e+01
4.680963e+01	-1.144844e+01
4.708000e+01	-1.149464e+01
4.735193e+01	-1.154126e+01
4.762543e+01	-1.158749e+01
4.790051e+01	-1.163470e+01
4.817719e+01	-1.168106e+01
4.845545e+01	-1.172767e+01
4.873533e+01	-1.177409e+01
4.901682e+01	-1.182115e+01
4.929994e+01	-1.186780e+01
4.958470e+01	-1.191498e+01
4.987110e+01	-1.196199e+01
5.015915e+01	-1.200821e+01
5.044887e+01	-1.205533e+01
5.074026e+01	-1.210223e+01
5.103333e+01	-1.214841e+01
5.132810e+01	-1.219688e+01
5.162457e+01	-1.224339e+01
5.192275e+01	-1.229049e+01
5.222265e+01	-1.233756e+01
5.252429e+01	-1.238478e+01
5.282767e+01	-1.243159e+01
5.313280e+01	-1.247871e+01
5.343969e+01	-1.252562e+01
5.374836e+01	-1.257346e+01
5.405880e+01	-1.262063e+01
5.437105e+01	-1.266724e+01
5.468509e+01	-1.271420e+01
5.500095e+01	-1.276245e+01
5.531863e+01	-1.280980e+01
5.563815e+01	-1.285737e+01
5.595951e+01	-1.290450e+01
5.628273e+01	-1.295155e+01
5.660782e+01	-1.299969e+01
5.693479e+01	-1.304707e+01
5.726364e+01	-1.309483e+01
5.759439e+01	-1.314289e+01
5.792705e+01	-1.319037e+01
5.826164e+01	-1.323770e+01
5.859815e+01	-1.328549e+01
5.893662e+01	-1.333325e+01
5.927703e+01	-1.338076e+01
5.961941e+01	-1.342867e+01
5.996377e+01	-1.347682e+01
6.031012e+01	-1.352347e+01
6.065847e+01	-1.357161e+01
6.100883e+01	-1.361997e+01
6.136121e+01	-1.366749e+01
6.171563e+01	-1.371510e+01
6.207210e+01	-1.376302e+01
6.243063e+01	-1.381080e+01
6.279122e+01	-1.385983e+01
6.315390e+01	-1.390814e+01
6.351868e+01	-1.395490e+01
6.388556e+01	-1.400326e+01
6.425456e+01	-1.405149e+01
6.462569e+01	-1.409854e+01
6.499897e+01	-1.414802e+01
6.537440e+01	-1.419650e+01
6.575200e+01	-1.424325e+01
6.613178e+01	-1.429183e+01
6.651375e+01	-1.434068e+01
6.689793e+01	-1.438810e+01
6.728433e+01	-1.443638e+01
6.767297e+01	-1.448518e+01
6.806384e+01	-1.453333e+01
6.845698e+01	-1.458136e+01
6.885238e+01	-1.462984e+01
6.925007e+01	-1.467782e+01
6.965005e+01	-1.472604e+01
7.005235e+01	-1.477412e+01
7.045697e+01	-1.482325e+01
7.086393e+01	-1.487151e+01
7.127323e+01	-1.492023e+01
7.168490e+01	-1.496792e+01
7.209895e+01	-1.501654e+01
7.251539e+01	-1.506403e+01
7.293424e+01	-1.511339e+01
7.335551e+01	-1.516273e+01
7.377920e+01	-1.521040e+01
7.420535e+01	-1.525931e+01
7.463396e+01	-1.530701e+01
7.506504e+01	-1.535654e+01
7.549861e+01	-1.540417e+01
7.593469e+01	-1.545417e+01
7.637328e+01	-1.550138e+01
7.681441e+01	-1.555028e+01
7.725809e+01	-1.559830e+01
7.770433e+01	-1.564708e+01
7.815315e+01	-1.569654e+01
7.860456e+01	-1.574424e+01
7.905857e+01	-1.579424e+01
7.951521e+01	-1.584290e+01
7.997449e+01	-1.589135e+01
8.043642e+01	-1.594074e+01
8.090102e+01	-1.598855e+01
8.136830e+01	-1.603843e+01
8.183828e+01	-1.608652e+01
8.231097e+01	-1.613561e+01
8.278640e+01	-1.618372e+01
8.326457e+01	-1.623318e+01
8.374550e+01	-1.628193e+01
8.422921e+01	-1.633167e+01
8.471572e+01	-1.637983e+01
8.520503e+01	-1.642775e+01
8.569717e+01	-1.647717e+01
8.619215e+01	-1.652634e+01
8.669000e+01	-1.657479e+01
8.719071e+01	-1.662357e+01
8.769432e+01	-1.667266e+01
8.820084e+01	-1.672200e+01
8.871029e+01	-1.677105e+01
8.922267e+01	-1.682073e+01
8.973802e+01	-1.686890e+01
9.025634e+01	-1.691757e+01
9.077766e+01	-1.696694e+01
9.130199e+01	-1.701654e+01
9.182935e+01	-1.706528e+01
9.235975e+01	-1.711504e+01
9.289321e+01	-1.716322e+01
9.342976e+01	-1.721276e+01
9.396941e+01	-1.726116e+01
9.451217e+01	-1.730984e+01
9.505807e+01	-1.736020e+01
9.560712e+01	-1.740887e+01
9.615934e+01	-1.745734e+01
9.671476e+01	-1.750738e+01
9.727338e+01	-1.755687e+01
9.783522e+01	-1.760414e+01
9.840032e+01	-1.765350e+01
9.896867e+01	-1.770380e+01
9.954031e+01	-1.775384e+01
1.001153e+02	-1.780046e+01
1.006935e+02	-1.785034e+01
1.012751e+02	-1.790144e+01
1.018601e+02	-1.795041e+01
1.024484e+02	-1.799912e+01
1.030402e+02	-1.804803e+01
1.036353e+02	-1.809722e+01
1.042339e+02	-1.814635e+01
1.048360e+02	-1.819581e+01
1.054415e+02	-1.824471e+01
1.060505e+02	-1.829629e+01
1.066631e+02	-1.834276e+01
1.072791e+02	-1.839375e+01
1.078988e+02	-1.844086e+01
1.085220e+02	-1.849147e+01
1.091488e+02	-1.854177e+01
1.097793e+02	-1.859002e+01
1.104133e+02	-1.863941e+01
1.110511e+02	-1.869035e+01
1.116925e+02	-1.873913e+01
1.123376e+02	-1.878641e+01
1.129865e+02	-1.883679e+01
1.136391e+02	-1.888584e+01
1.142955e+02	-1.893473e+01
1.149556e+02	-1.898556e+01
1.156196e+02	-1.903490e+01
1.162874e+02	-1.908266e+01
1.169591e+02	-1.913266e+01
1.176347e+02	-1.918344e+01
1.183141e+02	-1.923173e+01
1.189975e+02	-1.928084e+01
1.196848e+02	-1.933224e+01
1.203761e+02	-1.938002e+01
1.210714e+02	-1.943007e+01
1.217707e+02	-1.948006e+01
1.224740e+02	-1.952909e+01
1.231814e+02	-1.957829e+01
1.238929e+02	-1.962814e+01
1.246085e+02	-1.967738e+01
1.253283e+02	-1.972783e+01
1.260522e+02	-1.977563e+01
1.267802e+02	-1.982573e+01
1.275125e+02	-1.987645e+01
1.282490e+02	-1.992411e+01
1.289898e+02	-1.997477e+01
1.297348e+02	-2.002479e+01
1.304842e+02	-2.007277e+01
1.312378e+02	-2.012398e+01
1.319959e+02	-2.017441e+01
1.327583e+02	-2.022155e+01
1.335251e+02	-2.027232e+01
1.342963e+02	-2.032041e+01
1.350720e+02	-2.037031e+01
1.358522e+02	-2.042019e+01
1.366368e+02	-2.046933e+01
1.374260e+02	-2.052235e+01
1.382198e+02	-2.056854e+01
1.390182e+02	-2.061831e+01
1.398211e+02	-2.066755e+01
1.406287e+02	-2.071911e+01
1.414410e+02	-2.076780e+01
1.422579e+02	-2.081883e+01
1.430796e+02	-2.086734e+01
1.439060e+02	-2.091572e+01
1.447372e+02	-2.096694e+01
1.455732e+02	-2.101612e+01
1.464141e+02	-2.106347e+01
1.472597e+02	-2.111615e+01
1.481103e+02	-2.116500e+01
1.489658e+02	-2.121479e+01
1.498262e+02	-2.126428e+01
1.506916e+02	-2.131275e+01
1.515620e+02	-2.136456e+01
1.524374e+02	-2.141436e+01
1.533179e+02	-2.146036e+01
1.542034e+02	-2.151391e+01
1.550941e+02	-2.156082e+01
1.559899e+02	-2.161293e+01
1.568909e+02	-2.166319e+01
1.577971e+02	-2.171298e+01
1.587085e+02	-2.176321e+01
1.596252e+02	-2.181070e+01
1.605472e+02	-2.185984e+01
1.614745e+02	-2.191024e+01
1.624072e+02	-2.196065e+01
1.633453e+02	-2.201048e+01
1.642887e+02	-2.205784e+01
1.652377e+02	-2.210916e+01
1.661921e+02	-2.216056e+01
1.671520e+02	-2.220957e+01
1.681175e+02	-2.225773e+01
1.690885e+02	-2.230713e+01
1.700651e+02	-2.235785e+01
1.710474e+02	-2.240612e+01
1.720354e+02	-2.245678e+01
1.730291e+02	-2.250569e+01
1.740285e+02	-2.255409e+01
1.750337e+02	-2.260729e+01
1.760446e+02	-2.265692e+01
1.770615e+02	-2.270685e+01
1.780842e+02	-2.275564e+01
1.791128e+02	-2.280608e+01
1.801473e+02	-2.285642e+01
1.811878e+02	-2.290436e+01
1.822344e+02	-2.295471e+01
1.832870e+02	-2.300647e+01
1.843456e+02	-2.305500e+01
1.854104e+02	-2.310772e+01
1.864813e+02	-2.315442e+01
1.875584e+02	-2.320589e+01
1.886418e+02	-2.325300e+01
1.897313e+02	-2.330387e+01
1.908272e+02	-2.335365e+01
1.919294e+02	-2.340471e+01
1.930380e+02	-2.345338e+01
1.941530e+02	-2.350227e+01
1.952744e+02	-2.355323e+01
1.964023e+02	-2.360410e+01
1.975367e+02	-2.365322e+01
1.986777e+02	-2.370356e+01
1.998252e+02	-2.375278e+01
2.009794e+02	-2.380227e+01
2.021403e+02	-2.385386e+01
2.033078e+02	-2.390162e+01
2.044821e+02	-2.395084e+01
2.056632e+02	-2.400351e+01
2.068511e+02	-2.405144e+01
2.080459e+02	-2.410290e+01
2.092475e+02	-2.415266e+01
2.104561e+02	-2.420119e+01
2.116717e+02	-2.425277e+01
2.128943e+02	-2.430407e+01
2.141240e+02	-2.435113e+01
2.153608e+02	-2.440340e+01
2.166047e+02	-2.444801e+01
2.178558e+02	-2.449973e+01
2.191141e+02	-2.455017e+01
2.203797e+02	-2.460063e+01
2.216526e+02	-2.465101e+01
2.229329e+02	-2.470227e+01
2.242205e+02	-2.475170e+01
2.255156e+02	-2.480252e+01
2.268182e+02	-2.485224e+01
2.281283e+02	-2.490289e+01
2.294459e+02	-2.494878e+01
2.307712e+02	-2.499856e+01
2.321041e+02	-2.504884e+01
2.334447e+02	-2.509916e+01
2.347931e+02	-2.515060e+01
2.361493e+02	-2.519968e+01
2.375133e+02	-2.525146e+01
2.388851e+02	-2.529488e+01
2.402649e+02	-2.535031e+01
2.416527e+02	-2.539851e+01
2.430484e+02	-2.545331e+01
2.444523e+02	-2.549829e+01
2.458642e+02	-2.554660e+01
2.472843e+02	-2.560133e+01
2.487126e+02	-2.564811e+01
2.501492e+02	-2.569865e+01
2.515940e+02	-2.574839e+01
2.530472e+02	-2.579763e+01
2.545088e+02	-2.584730e+01
2.559789e+02	-2.589721e+01
2.574574e+02	-2.595093e+01
2.589444e+02	-2.599999e+01
2.604401e+02	-2.604864e+01
2.619444e+02	-2.609906e+01
2.634574e+02	-2.614879e+01
2.649791e+02	-2.619712e+01
2.665096e+02	-2.624930e+01
2.680489e+02	-2.629513e+01
2.695972e+02	-2.634613e+01
2.711544e+02	-2.640014e+01
2.727205e+02	-2.644971e+01
2.742958e+02	-2.649659e+01
2.758801e+02	-2.654782e+01
2.774736e+02	-2.659883e+01
2.790762e+02	-2.665004e+01
2.806882e+02	-2.669746e+01
2.823094e+02	-2.674842e+01
2.839400e+02	-2.680100e+01
2.855800e+02	-2.684952e+01
2.872295e+02	-2.690027e+01
2.888886e+02	-2.694708e+01
2.905572e+02	-2.699953e+01
2.922354e+02	-2.704298e+01
2.939234e+02	-2.709871e+01
2.956211e+02	-2.715153e+01
2.973286e+02	-2.719675e+01
2.990459e+02	-2.725158e+01
3.007732e+02	-2.730119e+01
3.025104e+02	-2.734980e+01
3.042577e+02	-2.739627e+01
3.060151e+02	-2.744678e+01
3.077826e+02	-2.749720e+01
3.095604e+02	-2.754450e+01
3.113484e+02	-2.759647e+01
3.131467e+02	-2.764942e+01
3.149554e+02	-2.769969e+01
3.167746e+02	-2.774688e+01
3.186043e+02	-2.780049e+01
3.204445e+02	-2.784766e+01
3.222954e+02	-2.789660e+01
3.241570e+02	-2.794564e+01
3.260293e+02	-2.799758e+01
3.279124e+02	-2.804993e+01
3.298064e+02	-2.809759e+01
3.317114e+02	-2.814798e+01
3.336273e+02	-2.819521e+01
3.355544e+02	-2.824922e+01
3.374925e+02	-2.829729e+01
3.394418e+02	-2.834802e+01
3.414024e+02	-2.839776e+01
3.433744e+02	-2.844835e+01
3.453577e+02	-2.849920e+01
3.473525e+02	-2.854706e+01
3.493588e+02	-2.859743e+01
3.513766e+02	-2.864716e+01
3.534062e+02	-2.869994e+01
3.554474e+02	-2.874748e+01
3.575005e+02	-2.880321e+01
3.595654e+02	-2.885081e+01
3.616422e+02	-2.889843e+01
3.637311e+02	-2.894566e+01
3.658320e+02	-2.900196e+01
3.679450e+02	-2.905034e+01
3.700702e+02	-2.909575e+01
3.722077e+02	-2.915244e+01
3.743576e+02	-2.919880e+01
3.765199e+02	-2.925201e+01
3.786946e+02	-2.929970e+01
3.808820e+02	-2.935054e+01
3.830819e+02	-2.939509e+01
3.852946e+02	-2.944438e+01
3.875200e+02	-2.949910e+01
3.897583e+02	-2.954936e+01
3.920096e+02	-2.959805e+01
3.942738e+02	-2.965199e+01
3.965511e+02	-2.970081e+01
3.988416e+02	-2.975120e+01
4.011452e+02	-2.979581e+01
4.034622e+02	-2.984718e+01
4.057926e+02	-2.989985e+01
4.081365e+02	-2.995270e+01
4.104938e+02	-3.000084e+01
4.128648e+02	-3.005374e+01
4.152495e+02	-3.009624e+01
4.176480e+02	-3.015594e+01
4.200603e+02	-3.019855e+01
4.224866e+02	-3.024851e+01
4.249268e+02	-3.029741e+01
4.273812e+02	-3.034824e+01
4.298497e+02	-3.040025e+01
4.323325e+02	-3.045057e+01
4.348297e+02	-3.050489e+01
4.373412e+02	-3.055131e+01
4.398673e+02	-3.059966e+01
4.424079e+02	-3.065196e+01
4.449633e+02	-3.070061e+01
4.475334e+02	-3.075558e+01
4.501183e+02	-3.079997e+01
4.527182e+02	-3.085381e+01
4.553330e+02	-3.090545e+01
4.579630e+02	-3.095211e+01
4.606082e+02	-3.100267e+01
4.632687e+02	-3.105332e+01
4.659445e+02	-3.110605e+01
4.686358e+02	-3.115559e+01
4.713426e+02	-3.120527e+01
4.740650e+02	-3.125213e+01
4.768032e+02	-3.129883e+01
4.795572e+02	-3.135438e+01
4.823271e+02	-3.140274e+01
4.851130e+02	-3.145188e+01
4.879150e+02	-3.150790e+01
4.907332e+02	-3.155280e+01
4.935676e+02	-3.160843e+01
4.964185e+02	-3.166035e+01
4.992858e+02	-3.170158e+01
5.021696e+02	-3.175510e+01
5.050701e+02	-3.180980e+01
5.079874e+02	-3.185693e+01
5.109215e+02	-3.190178e+01
5.138726e+02	-3.195668e+01
5.168407e+02	-3.200662e+01
5.198259e+02	-3.205476e+01
5.228284e+02	-3.210660e+01
5.258482e+02	-3.215464e+01
5.288855e+02	-3.221082e+01
5.319403e+02	-3.225413e+01
5.350128e+02	-3.230920e+01
5.381030e+02	-3.235293e+01
5.412111e+02	-3.241293e+01
5.443371e+02	-3.245984e+01
5.474812e+02	-3.250416e+01
5.506434e+02	-3.255715e+01
5.538239e+02	-3.261051e+01
5.570228e+02	-3.266198e+01
5.602401e+02	-3.270648e+01
5.634760e+02	-3.276151e+01
5.667306e+02	-3.281018e+01
5.700040e+02	-3.286463e+01
5.732964e+02	-3.290937e+01
5.766077e+02	-3.296309e+01
5.799382e+02	-3.301496e+01
5.832879e+02	-3.305966e+01
5.866569e+02	-3.310908e+01
5.900454e+02	-3.316119e+01
5.934535e+02	-3.321015e+01
5.968813e+02	-3.325753e+01
6.003288e+02	-3.331446e+01
6.037963e+02	-3.336570e+01
6.072838e+02	-3.341023e+01
6.107914e+02	-3.347253e+01
6.143194e+02	-3.350717e+01
6.178676e+02	-3.356388e+01
6.214364e+02	-3.362192e+01
6.250258e+02	-3.365986e+01
6.286359e+02	-3.371112e+01
6.322669e+02	-3.376157e+01
6.359189e+02	-3.381564e+01
6.395919e+02	-3.386799e+01
6.432862e+02	-3.390969e+01
6.470017e+02	-3.397374e+01
6.507388e+02	-3.401868e+01
6.544974e+02	-3.405956e+01
6.582778e+02	-3.411584e+01
6.620800e+02	-3.416843e+01
6.659041e+02	-3.421932e+01
6.697504e+02	-3.426497e+01
6.736188e+02	-3.431256e+01
6.775096e+02	-3.437277e+01
6.814229e+02	-3.441565e+01
6.853587e+02	-3.446515e+01
6.893173e+02	-3.451121e+01
6.932988e+02	-3.456878e+01
6.973033e+02	-3.461844e+01
7.013309e+02	-3.467072e+01
