Frequency(Hz)	Magnitude(dB)
1.000000e+01	-2.240379e+00
1.005776e+01	-2.260710e+00
1.011585e+01	-2.281007e+00
1.017428e+01	-2.301364e+00
1.023305e+01	-2.322324e+00
1.029215e+01	-2.343028e+00
1.035160e+01	-2.363909e+00
1.041139e+01	-2.385008e+00
1.047153e+01	-2.406154e+00
1.053201e+01	-2.427433e+00
1.059284e+01	-2.448836e+00
1.065403e+01	-2.470747e+00
1.071556e+01	-2.492217e+00
1.077746e+01	-2.514142e+00
1.083971e+01	-2.536160e+00
1.090232e+01	-2.558638e+00
1.096529e+01	-2.580801e+00
1.102862e+01	-2.603467e+00
1.109232e+01	-2.626257e+00
1.115639e+01	-2.648822e+00
1.122083e+01	-2.671696e+00
1.128564e+01	-2.694440e+00
1.135083e+01	-2.717964e+00
1.141639e+01	-2.741419e+00
1.148233e+01	-2.764894e+00
1.154865e+01	-2.788509e+00
1.161536e+01	-2.812047e+00
1.168245e+01	-2.836149e+00
1.174992e+01	-2.860319e+00
1.181779e+01	-2.884355e+00
1.188605e+01	-2.908759e+00
1.195470e+01	-2.933145e+00
1.202375e+01	-2.957782e+00
1.209320e+01	-2.982788e+00
1.216305e+01	-3.007289e+00
1.223330e+01	-3.032797e+00
1.230396e+01	-3.057673e+00
1.237503e+01	-3.083287e+00
1.244651e+01	-3.108732e+00
1.251840e+01	-3.134347e+00
1.259070e+01	-3.160132e+00
1.266343e+01	-3.185847e+00
1.273657e+01	-3.212160e+00
1.281014e+01	-3.238414e+00
1.288413e+01	-3.264623e+00
1.295855e+01	-3.291566e+00
1.303339e+01	-3.317849e+00
1.310867e+01	-3.344679e+00
1.318439e+01	-3.371536e+00
1.326054e+01	-3.398977e+00
1.333713e+01	-3.425918e+00
1.341417e+01	-3.453305e+00
1.349165e+01	-3.480850e+00
1.356958e+01	-3.508624e+00
1.364795e+01	-3.536534e+00
1.372678e+01	-3.564072e+00
1.380607e+01	-3.592394e+00
1.388581e+01	-3.620641e+00
1.396602e+01	-3.649028e+00
1.404668e+01	-3.677572e+00
1.412782e+01	-3.705782e+00
1.420942e+01	-3.735057e+00
1.429149e+01	-3.763762e+00
1.437404e+01	-3.792656e+00
1.445706e+01	-3.822160e+00
1.454057e+01	-3.851268e+00
1.462455e+01	-3.880962e+00
1.470902e+01	-3.910393e+00
1.479398e+01	-3.940135e+00
1.487943e+01	-3.970138e+00
1.496537e+01	-4.000001e+00
1.505181e+01	-4.030299e+00
1.513875e+01	-4.060691e+00
1.522619e+01	-4.091017e+00
1.531414e+01	-4.121638e+00
1.540259e+01	-4.152561e+00
1.549156e+01	-4.183458e+00
1.558103e+01	-4.214287e+00
1.567103e+01	-4.245582e+00
1.576155e+01	-4.276580e+00
1.585258e+01	-4.307755e+00
1.594415e+01	-4.339569e+00
1.603624e+01	-4.371271e+00
1.612886e+01	-4.403102e+00
1.622202e+01	-4.435221e+00
1.631572e+01	-4.467252e+00
1.640996e+01	-4.499188e+00
1.650474e+01	-4.531425e+00
1.660008e+01	-4.563994e+00
1.669596e+01	-4.596827e+00
1.679239e+01	-4.629645e+00
1.688938e+01	-4.662309e+00
1.698694e+01	-4.695442e+00
1.708505e+01	-4.728455e+00
1.718373e+01	-4.761691e+00
1.728299e+01	-4.795081e+00
1.738281e+01	-4.828442e+00
1.748322e+01	-4.862367e+00
1.758420e+01	-4.895993e+00
1.768576e+01	-4.929744e+00
1.778792e+01	-4.963738e+00
1.789066e+01	-4.997976e+00
1.799399e+01	-5.032053e+00
1.809793e+01	-5.066625e+00
1.820246e+01	-5.101309e+00
1.830760e+01	-5.135844e+00
1.841334e+01	-5.170699e+00
1.851969e+01	-5.205317e+00
1.862666e+01	-5.240576e+00
1.873425e+01	-5.275512e+00
1.884246e+01	-5.310789e+00
1.895129e+01	-5.346024e+00
1.906075e+01	-5.381666e+00
1.917085e+01	-5.417173e+00
1.928158e+01	-5.452937e+00
1.939295e+01	-5.489107e+00
1.950496e+01	-5.524595e+00
1.961762e+01	-5.560664e+00
1.973093e+01	-5.596871e+00
1.984490e+01	-5.633317e+00
1.995952e+01	-5.670018e+00
2.007480e+01	-5.706186e+00
2.019076e+01	-5.743118e+00
2.030738e+01	-5.779624e+00
2.042467e+01	-5.816240e+00
2.054264e+01	-5.853424e+00
2.066130e+01	-5.890361e+00
2.078064e+01	-5.927583e+00
2.090066e+01	-5.965035e+00
2.102139e+01	-6.002238e+00
2.114280e+01	-6.039836e+00
2.126492e+01	-6.077387e+00
2.138775e+01	-6.115543e+00
2.151128e+01	-6.153381e+00
2.163553e+01	-6.190900e+00
2.176050e+01	-6.229122e+00
2.188619e+01	-6.267369e+00
2.201260e+01	-6.305603e+00
2.213974e+01	-6.343852e+00
2.226762e+01	-6.382455e+00
2.239624e+01	-6.420656e+00
2.252560e+01	-6.459618e+00
2.265571e+01	-6.498655e+00
2.278656e+01	-6.537304e+00
2.291818e+01	-6.576190e+00
2.305055e+01	-6.615670e+00
2.318369e+01	-6.654523e+00
2.331760e+01	-6.693797e+00
2.345228e+01	-6.732968e+00
2.358774e+01	-6.772421e+00
2.372398e+01	-6.811874e+00
2.386101e+01	-6.851829e+00
2.399883e+01	-6.891469e+00
2.413745e+01	-6.930953e+00
2.427686e+01	-6.971336e+00
2.441709e+01	-7.011189e+00
2.455812e+01	-7.051679e+00
2.469997e+01	-7.091443e+00
2.484263e+01	-7.131566e+00
2.498612e+01	-7.172396e+00
2.513044e+01	-7.213058e+00
2.527559e+01	-7.253224e+00
2.542158e+01	-7.293712e+00
2.556842e+01	-7.334722e+00
2.571610e+01	-7.375525e+00
2.586463e+01	-7.416100e+00
2.601403e+01	-7.457410e+00
2.616428e+01	-7.498632e+00
2.631541e+01	-7.539551e+00
2.646740e+01	-7.581141e+00
2.662028e+01	-7.622210e+00
2.677404e+01	-7.663488e+00
2.692868e+01	-7.705187e+00
2.708422e+01	-7.746778e+00
2.724066e+01	-7.788410e+00
2.739800e+01	-7.829974e+00
2.755625e+01	-7.871986e+00
2.771541e+01	-7.913785e+00
2.787550e+01	-7.956323e+00
2.803650e+01	-7.998025e+00
2.819844e+01	-8.040038e+00
2.836131e+01	-8.082437e+00
2.852513e+01	-8.124528e+00
2.868989e+01	-8.166619e+00
2.885560e+01	-8.209608e+00
2.902227e+01	-8.251476e+00
2.918990e+01	-8.294261e+00
2.935850e+01	-8.337280e+00
2.952807e+01	-8.379899e+00
2.969863e+01	-8.422459e+00
2.987016e+01	-8.465314e+00
3.004269e+01	-8.507851e+00
3.021622e+01	-8.551095e+00
3.039075e+01	-8.594780e+00
3.056628e+01	-8.637764e+00
3.074283e+01	-8.680851e+00
3.092040e+01	-8.724417e+00
3.109900e+01	-8.767707e+00
3.127862e+01	-8.811032e+00
3.145929e+01	-8.854114e+00
3.164099e+01	-8.897953e+00
3.182375e+01	-8.941255e+00
3.200756e+01	-8.985085e+00
3.219244e+01	-9.028963e+00
3.237838e+01	-9.072532e+00
3.256540e+01	-9.116579e+00
3.275349e+01	-9.160451e+00
3.294268e+01	-9.205128e+00
3.313295e+01	-9.248877e+00
3.332433e+01	-9.292056e+00
3.351681e+01	-9.336830e+00
3.371040e+01	-9.381136e+00
3.390511e+01	-9.425054e+00
3.410094e+01	-9.469555e+00
3.429791e+01	-9.514187e+00
3.449601e+01	-9.558730e+00
3.469526e+01	-9.602814e+00
3.489566e+01	-9.647919e+00
3.509721e+01	-9.692288e+00
3.529993e+01	-9.737082e+00
3.550382e+01	-9.781740e+00
3.570889e+01	-9.826260e+00
3.591515e+01	-9.871333e+00
3.612259e+01	-9.916599e+00
3.633123e+01	-9.961329e+00
3.654108e+01	-1.000604e+01
3.675214e+01	-1.005146e+01
3.696442e+01	-1.009614e+01
3.717792e+01	-1.014194e+01
3.739266e+01	-1.018659e+01
3.760864e+01	-1.023205e+01
3.782587e+01	-1.027732e+01
3.804435e+01	-1.032235e+01
3.826409e+01	-1.036840e+01
3.848510e+01	-1.041368e+01
3.870739e+01	-1.045908e+01
3.893096e+01	-1.050497e+01
3.915583e+01	-1.054995e+01
3.938199e+01	-1.059586e+01
3.960946e+01	-1.064115e+01
3.983824e+01	-1.068738e+01
4.006834e+01	-1.073294e+01
4.029978e+01	-1.077850e+01
4.053255e+01	-1.082481e+01
4.076666e+01	-1.087110e+01
4.100213e+01	-1.091641e+01
4.123896e+01	-1.096296e+01
4.147715e+01	-1.100861e+01
4.171672e+01	-1.105475e+01
4.195767e+01	-1.110093e+01
4.220002e+01	-1.114711e+01
4.244377e+01	-1.119302e+01
4.268892e+01	-1.123967e+01
4.293549e+01	-1.128628e+01
4.318348e+01	-1.133200e+01
4.343291e+01	-1.137825e+01
4.368377e+01	-1.142516e+01
4.393609e+01	-1.147065e+01
4.418986e+01	-1.151775e+01
4.444510e+01	-1.156497e+01
4.470182e+01	-1.161045e+01
4.496001e+01	-1.165779e+01
4.521970e+01	-1.170420e+01
4.548089e+01	-1.175092e+01
4.574358e+01	-1.179706e+01
4.600779e+01	-1.184406e+01
4.627353e+01	-1.189101e+01
4.654081e+01	-1.193770e+01
4.680963e+01	-1.198470e+01
4.708000e+01	-1.203179e+01
4.735193e+01	-1.207819e+01
4.762543e+01	-1.212518e+01
4.790051e+01	-1.217187e+01
4.817719e+01	-1.221926e+01
4.845545e+01	-1.226660e+01
4.873533e+01	-1.231354e+01
4.901682e+01	-1.235992e+01
4.929994e+01	-1.240718e+01
4.958470e+01	-1.245486e+01
4.987110e+01	-1.250205e+01
5.015915e+01	-1.254964e+01
5.044887e+01	-1.259668e+01
5.074026e+01	-1.264389e+01
5.103333e+01	-1.269100e+01
5.132810e+01	-1.273894e+01
5.162457e+01	-1.278576e+01
5.192275e+01	-1.283304e+01
5.222265e+01	-1.288074e+01
5.252429e+01	-1.292799e+01
5.282767e+01	-1.297552e+01
5.313280e+01	-1.302263e+01
5.343969e+01	-1.307142e+01
5.374836e+01	-1.311788e+01
5.405880e+01	-1.316655e+01
5.437105e+01	-1.321410e+01
5.468509e+01	-1.326053e+01
5.500095e+01	-1.330841e+01
5.531863e+01	-1.335673e+01
5.563815e+01	-1.340399e+01
5.595951e+01	-1.345230e+01
5.628273e+01	-1.350087e+01
5.660782e+01	-1.354833e+01
5.693479e+01	-1.359494e+01
5.726364e+01	-1.364332e+01
5.759439e+01	-1.369089e+01
5.792705e+01	-1.373869e+01
5.826164e+01	-1.378719e+01
5.859815e+01	-1.383550e+01
5.893662e+01	-1.388285e+01
5.927703e+01	-1.393013e+01
5.961941e+01	-1.397923e+01
5.996377e+01	-1.402744e+01
6.031012e+01	-1.407581e+01
6.065847e+01	-1.412321e+01
6.100883e+01	-1.417099e+01
6.136121e+01	-1.421978e+01
6.171563e+01	-1.426713e+01
6.207210e+01	-1.431475e+01
6.243063e+01	-1.436362e+01
6.279122e+01	-1.441192e+01
6.315390e+01	-1.446005e+01
6.351868e+01	-1.450824e+01
6.388556e+01	-1.455696e+01
6.425456e+01	-1.460537e+01
6.462569e+01	-1.465338e+01
6.499897e+01	-1.470178e+01
6.537440e+01	-1.475026e+01
6.575200e+01	-1.479833e+01
6.613178e+01	-1.484625e+01
6.651375e+01	-1.489493e+01
6.689793e+01	-1.494397e+01
6.728433e+01	-1.499097e+01
6.767297e+01	-1.504034e+01
6.806384e+01	-1.508870e+01
6.845698e+01	-1.513857e+01
6.885238e+01	-1.518687e+01
6.925007e+01	-1.523564e+01
6.965005e+01	-1.528293e+01
7.005235e+01	-1.533160e+01
7.045697e+01	-1.538079e+01
7.086393e+01	-1.542926e+01
7.127323e+01	-1.547680e+01
7.168490e+01	-1.552604e+01
7.209895e+01	-1.557412e+01
7.251539e+01	-1.562377e+01
7.293424e+01	-1.567182e+01
7.335551e+01	-1.572060e+01
7.377920e+01	-1.576923e+01
7.420535e+01	-1.581839e+01
7.463396e+01	-1.586786e+01
7.506504e+01	-1.591544e+01
7.549861e+01	-1.596371e+01
7.593469e+01	-1.601353e+01
7.637328e+01	-1.606245e+01
7.681441e+01	-1.611134e+01
7.725809e+01	-1.616002e+01
7.770433e+01	-1.620790e+01
7.815315e+01	-1.625751e+01
7.860456e+01	-1.630612e+01
7.905857e+01	-1.635437e+01
7.951521e+01	-1.640310e+01
7.997449e+01	-1.645265e+01
8.043642e+01	-1.650198e+01
8.090102e+01	-1.655151e+01
8.136830e+01	-1.659962e+01
8.183828e+01	-1.664819e+01
8.231097e+01	-1.669782e+01
8.278640e+01	-1.674616e+01
8.326457e+01	-1.679483e+01
8.374550e+01	-1.684307e+01
8.422921e+01	-1.689224e+01
8.471572e+01	-1.694449e+01
8.520503e+01	-1.699118e+01
8.569717e+01	-1.704003e+01
8.619215e+01	-1.708954e+01
8.669000e+01	-1.713913e+01
8.719071e+01	-1.718785e+01
8.769432e+01	-1.723637e+01
8.820084e+01	-1.728461e+01
8.871029e+01	-1.733485e+01
8.922267e+01	-1.738348e+01
8.973802e+01	-1.743379e+01
9.025634e+01	-1.748155e+01
9.077766e+01	-1.753098e+01
9.130199e+01	-1.757956e+01
9.182935e+01	-1.763017e+01
9.235975e+01	-1.767974e+01
9.289321e+01	-1.772892e+01
9.342976e+01	-1.777672e+01
9.396941e+01	-1.782581e+01
9.451217e+01	-1.787502e+01
9.505807e+01	-1.792411e+01
9.560712e+01	-1.797341e+01
9.615934e+01	-1.802270e+01
9.671476e+01	-1.807244e+01
9.727338e+01	-1.812100e+01
9.783522e+01	-1.817139e+01
9.840032e+01	-1.821984e+01
9.896867e+01	-1.826929e+01
9.954031e+01	-1.831776e+01
1.001153e+02	-1.836859e+01
1.006935e+02	-1.841725e+01
1.012751e+02	-1.846838e+01
1.018601e+02	-1.851649e+01
1.024484e+02	-1.856562e+01
1.030402e+02	-1.861588e+01
1.036353e+02	-1.866338e+01
1.042339e+02	-1.871400e+01
1.048360e+02	-1.876183e+01
1.054415e+02	-1.881285e+01
1.060505e+02	-1.886230e+01
1.066631e+02	-1.891101e+01
1.072791e+02	-1.895949e+01
1.078988e+02	-1.900951e+01
1.085220e+02	-1.905831e+01
1.091488e+02	-1.910894e+01
1.097793e+02	-1.915738e+01
1.104133e+02	-1.920685e+01
1.110511e+02	-1.925662e+01
1.116925e+02	-1.930651e+01
1.123376e+02	-1.935549e+01
1.129865e+02	-1.940559e+01
1.136391e+02	-1.945565e+01
1.142955e+02	-1.950382e+01
1.149556e+02	-1.955158e+01
1.156196e+02	-1.960274e+01
1.162874e+02	-1.965344e+01
1.169591e+02	-1.970146e+01
1.176347e+02	-1.975127e+01
1.183141e+02	-1.980104e+01
1.189975e+02	-1.985076e+01
1.196848e+02	-1.990104e+01
1.203761e+02	-1.994934e+01
1.210714e+02	-1.999929e+01
1.217707e+02	-2.004869e+01
1.224740e+02	-2.009970e+01
1.231814e+02	-2.014832e+01
1.238929e+02	-2.019680e+01
1.246085e+02	-2.024699e+01
1.253283e+02	-2.029596e+01
1.260522e+02	-2.034717e+01
1.267802e+02	-2.039405e+01
1.275125e+02	-2.044503e+01
1.282490e+02	-2.049579e+01
1.289898e+02	-2.054391e+01
1.297348e+02	-2.059395e+01
1.304842e+02	-2.064483e+01
1.312378e+02	-2.069372e+01
1.319959e+02	-2.074224e+01
1.327583e+02	-2.079215e+01
1.335251e+02	-2.084421e+01
1.342963e+02	-2.089322e+01
1.350720e+02	-2.094015e+01
1.358522e+02	-2.098945e+01
1.366368e+02	-2.104076e+01
1.374260e+02	-2.108971e+01
1.382198e+02	-2.113915e+01
1.390182e+02	-2.119050e+01
1.398211e+02	-2.123922e+01
1.406287e+02	-2.129079e+01
1.414410e+02	-2.133774e+01
1.422579e+02	-2.138903e+01
1.430796e+02	-2.143841e+01
1.439060e+02	-2.148765e+01
1.447372e+02	-2.153765e+01
1.455732e+02	-2.158652e+01
1.464141e+02	-2.163770e+01
1.472597e+02	-2.168654e+01
1.481103e+02	-2.173746e+01
1.489658e+02	-2.178632e+01
1.498262e+02	-2.183665e+01
1.506916e+02	-2.188533e+01
1.515620e+02	-2.193496e+01
1.524374e+02	-2.198394e+01
1.533179e+02	-2.203545e+01
1.542034e+02	-2.208212e+01
1.550941e+02	-2.213248e+01
1.559899e+02	-2.218476e+01
1.568909e+02	-2.223332e+01
1.577971e+02	-2.228465e+01
1.587085e+02	-2.233196e+01
1.596252e+02	-2.238235e+01
1.605472e+02	-2.243188e+01
1.614745e+02	-2.248303e+01
1.624072e+02	-2.253198e+01
1.633453e+02	-2.258253e+01
1.642887e+02	-2.263187e+01
1.652377e+02	-2.268089e+01
1.661921e+02	-2.272946e+01
1.671520e+02	-2.277869e+01
1.681175e+02	-2.283133e+01
1.690885e+02	-2.287991e+01
1.700651e+02	-2.292921e+01
1.710474e+02	-2.297902e+01
1.720354e+02	-2.303221e+01
1.730291e+02	-2.307872e+01
1.740285e+02	-2.312838e+01
1.750337e+02	-2.318082e+01
1.760446e+02	-2.322938e+01
1.770615e+02	-2.328116e+01
1.780842e+02	-2.332695e+01
1.791128e+02	-2.338007e+01
1.801473e+02	-2.342930e+01
1.811878e+02	-2.347763e+01
1.822344e+02	-2.352908e+01
1.832870e+02	-2.357738e+01
1.843456e+02	-2.362655e+01
1.854104e+02	-2.367840e+01
1.864813e+02	-2.372644e+01
1.875584e+02	-2.377516e+01
1.886418e+02	-2.382703e+01
1.897313e+02	-2.387635e+01
1.908272e+02	-2.392553e+01
1.919294e+02	-2.397633e+01
1.930380e+02	-2.402661e+01
1.941530e+02	-2.407531e+01
1.952744e+02	-2.412524e+01
1.964023e+02	-2.417494e+01
1.975367e+02	-2.422524e+01
1.986777e+02	-2.427606e+01
1.998252e+02	-2.432432e+01
2.009794e+02	-2.437746e+01
2.021403e+02	-2.442252e+01
2.033078e+02	-2.447410e+01
2.044821e+02	-2.452413e+01
2.056632e+02	-2.457592e+01
2.068511e+02	-2.462405e+01
2.080459e+02	-2.467884e+01
2.092475e+02	-2.472580e+01
2.104561e+02	-2.477252e+01
2.116717e+02	-2.482825e+01
2.128943e+02	-2.487357e+01
2.141240e+02	-2.492342e+01
2.153608e+02	-2.497425e+01
2.166047e+02	-2.502423e+01
2.178558e+02	-2.507510e+01
2.191141e+02	-2.512551e+01
2.203797e+02	-2.517664e+01
2.216526e+02	-2.522462e+01
2.229329e+02	-2.527392e+01
2.242205e+02	-2.532397e+01
2.255156e+02	-2.537402e+01
2.268182e+02	-2.542226e+01
2.281283e+02	-2.547201e+01
2.294459e+02	-2.552506e+01
2.307712e+02	-2.557181e+01
2.321041e+02	-2.562620e+01
2.334447e+02	-2.567278e+01
2.347931e+02	-2.572414e+01
2.361493e+02	-2.577733e+01
2.375133e+02	-2.582487e+01
2.388851e+02	-2.587564e+01
2.402649e+02	-2.592398e+01
2.416527e+02	-2.597203e+01
2.430484e+02	-2.602110e+01
2.444523e+02	-2.607307e+01
2.458642e+02	-2.612120e+01
2.472843e+02	-2.617182e+01
2.487126e+02	-2.622218e+01
2.501492e+02	-2.627124e+01
2.515940e+02	-2.632383e+01
2.530472e+02	-2.637101e+01
2.545088e+02	-2.642277e+01
2.559789e+02	-2.646995e+01
2.574574e+02	-2.652377e+01
2.589444e+02	-2.657334e+01
2.604401e+02	-2.662475e+01
2.619444e+02	-2.667110e+01
2.634574e+02	-2.672187e+01
2.649791e+02	-2.677255e+01
2.665096e+02	-2.682084e+01
2.680489e+02	-2.687115e+01
2.695972e+02	-2.692073e+01
2.711544e+02	-2.696997e+01
2.727205e+02	-2.702071e+01
2.742958e+02	-2.707341e+01
2.758801e+02	-2.712111e+01
2.774736e+02	-2.717066e+01
2.790762e+02	-2.722277e+01
2.806882e+02	-2.727201e+01
2.823094e+02	-2.732291e+01
2.839400e+02	-2.737349e+01
2.855800e+02	-2.742257e+01
2.872295e+02	-2.747130e+01
2.888886e+02	-2.752389e+01
2.905572e+02	-2.757093e+01
2.922354e+02	-2.762323e+01
2.939234e+02	-2.766967e+01
2.956211e+02	-2.772420e+01
2.973286e+02	-2.777200e+01
2.990459e+02	-2.781733e+01
3.007732e+02	-2.787183e+01
3.025104e+02	-2.792387e+01
3.042577e+02	-2.797166e+01
3.060151e+02	-2.802526e+01
3.077826e+02	-2.807163e+01
3.095604e+02	-2.812592e+01
3.113484e+02	-2.817170e+01
3.131467e+02	-2.821876e+01
3.149554e+02	-2.827164e+01
3.167746e+02	-2.832210e+01
3.186043e+02	-2.837332e+01
3.204445e+02	-2.842244e+01
3.222954e+02	-2.846933e+01
3.241570e+02	-2.852217e+01
3.260293e+02	-2.857466e+01
3.279124e+02	-2.862060e+01
3.298064e+02	-2.867332e+01
3.317114e+02	-2.872202e+01
3.336273e+02	-2.877419e+01
3.355544e+02	-2.882259e+01
3.374925e+02	-2.886986e+01
3.394418e+02	-2.892203e+01
3.414024e+02	-2.896928e+01
3.433744e+02	-2.902269e+01
3.453577e+02	-2.907447e+01
3.473525e+02	-2.912302e+01
3.493588e+02	-2.917874e+01
3.513766e+02	-2.922254e+01
3.534062e+02	-2.927368e+01
3.554474e+02	-2.932099e+01
3.575005e+02	-2.937514e+01
3.595654e+02	-2.941953e+01
3.616422e+02	-2.947889e+01
3.637311e+02	-2.952890e+01
3.658320e+02	-2.957233e+01
3.679450e+02	-2.962844e+01
3.700702e+02	-2.967662e+01
3.722077e+02	-2.972525e+01
3.743576e+02	-2.977805e+01
3.765199e+02	-2.982465e+01
3.786946e+02	-2.987362e+01
3.808820e+02	-2.991984e+01
3.830819e+02	-2.997729e+01
3.852946e+02	-3.002208e+01
3.875200e+02	-3.007159e+01
3.897583e+02	-3.012637e+01
3.920096e+02	-3.017944e+01
3.942738e+02	-3.022347e+01
3.965511e+02	-3.027176e+01
3.988416e+02	-3.032409e+01
4.011452e+02	-3.037518e+01
4.034622e+02	-3.042520e+01
4.057926e+02	-3.047623e+01
4.081365e+02	-3.052651e+01
4.104938e+02	-3.057888e+01
4.128648e+02	-3.062755e+01
4.152495e+02	-3.068311e+01
4.176480e+02	-3.072693e+01
4.200603e+02	-3.078095e+01
4.224866e+02	-3.082799e+01
4.249268e+02	-3.087772e+01
4.273812e+02	-3.092658e+01
4.298497e+02	-3.097893e+01
4.323325e+02	-3.102433e+01
4.348297e+02	-3.107402e+01
4.373412e+02	-3.112654e+01
4.398673e+02	-3.117465e+01
4.424079e+02	-3.122835e+01
4.449633e+02	-3.128351e+01
4.475334e+02	-3.131843e+01
4.501183e+02	-3.137898e+01
4.527182e+02	-3.143249e+01
4.553330e+02	-3.148073e+01
4.579630e+02	-3.153228e+01
4.606082e+02	-3.157842e+01
4.632687e+02	-3.163140e+01
4.659445e+02	-3.167901e+01
4.686358e+02	-3.173465e+01
4.713426e+02	-3.177656e+01
4.740650e+02	-3.182899e+01
4.768032e+02	-3.188046e+01
4.795572e+02	-3.193054e+01
4.823271e+02	-3.197461e+01
4.851130e+02	-3.203308e+01
4.879150e+02	-3.208525e+01
4.907332e+02	-3.213239e+01
4.935676e+02	-3.218041e+01
4.964185e+02	-3.222928e+01
4.992858e+02	-3.228413e+01
5.021696e+02	-3.232925e+01
5.050701e+02	-3.238180e+01
5.079874e+02	-3.242848e+01
5.109215e+02	-3.247984e+01
5.138726e+02	-3.253880e+01
5.168407e+02	-3.258442e+01
5.198259e+02	-3.263480e+01
5.228284e+02	-3.268732e+01
5.258482e+02	-3.273344e+01
5.288855e+02	-3.278273e+01
5.319403e+02	-3.283929e+01
5.350128e+02	-3.288440e+01
5.381030e+02	-3.293637e+01
5.412111e+02	-3.298389e+01
5.443371e+02	-3.302941e+01
5.474812e+02	-3.308463e+01
5.506434e+02	-3.314022e+01
5.538239e+02	-3.318768e+01
5.570228e+02	-3.323498e+01
5.602401e+02	-3.328245e+01
5.634760e+02	-3.332753e+01
5.667306e+02	-3.338714e+01
5.700040e+02	-3.343352e+01
5.732964e+02	-3.349164e+01
5.766077e+02	-3.353055e+01
5.799382e+02	-3.359192e+01
5.832879e+02	-3.364152e+01
5.866569e+02	-3.369096e+01
5.900454e+02	-3.374176e+01
5.934535e+02	-3.378743e+01
5.968813e+02	-3.383863e+01
6.003288e+02	-3.388728e+01
6.037963e+02	-3.394028e+01
6.072838e+02	-3.399066e+01
6.107914e+02	-3.404010e+01
6.143194e+02	-3.409363e+01
6.178676e+02	-3.413868e+01
6.214364e+02	-3.419460e+01
6.250258e+02	-3.424182e+01
6.286359e+02	-3.429942e+01
6.322669e+02	-3.434816e+01
6.359189e+02	-3.439321e+01
6.395919e+02	-3.444092e+01
6.432862e+02	-3.449960e+01
6.470017e+02	-3.454531e+01
6.507388e+02	-3.459146e+01
6.544974e+02	-3.464369e+01
6.582778e+02	-3.469049e+01
6.620800e+02	-3.474619e+01
6.659041e+02	-3.480158e+01
6.697504e+02	-3.485052e+01
6.736188e+02	-3.489768e+01
6.775096e+02	-3.494405e+01
6.814229e+02	-3.499661e+01
6.853587e+02	-3.504240e+01
6.893173e+02	-3.509702e+01
6.932988e+02	-3.514753e+01
6.973033e+02	-3.519044e+01
7.013309e+02	-3.525849e+01
