Frequency(Hz)	Magnitude(dB)
1.000000e+01	-1.737543e-05
1.005776e+01	-1.757673e-05
1.011585e+01	-1.778036e-05
1.017428e+01	-1.798635e-05
1.023305e+01	-1.819473e-05
1.029215e+01	-1.840552e-05
1.035160e+01	-1.861875e-05
1.041139e+01	-1.883446e-05
1.047153e+01	-1.905266e-05
1.053201e+01	-1.927339e-05
1.059284e+01	-1.949668e-05
1.065403e+01	-1.972255e-05
1.071556e+01	-1.995104e-05
1.077746e+01	-2.018218e-05
1.083971e+01	-2.041599e-05
1.090232e+01	-2.065252e-05
1.096529e+01	-2.089178e-05
1.102862e+01	-2.113382e-05
1.109232e+01	-2.137866e-05
1.115639e+01	-2.162634e-05
1.122083e+01	-2.187688e-05
1.128564e+01	-2.213033e-05
1.135083e+01	-2.238672e-05
1.141639e+01	-2.264607e-05
1.148233e+01	-2.290844e-05
1.154865e+01	-2.317383e-05
1.161536e+01	-2.344231e-05
1.168245e+01	-2.371389e-05
1.174992e+01	-2.398863e-05
1.181779e+01	-2.426654e-05
1.188605e+01	-2.454767e-05
1.195470e+01	-2.483206e-05
1.202375e+01	-2.511975e-05
1.209320e+01	-2.541077e-05
1.216305e+01	-2.570516e-05
1.223330e+01	-2.600296e-05
1.230396e+01	-2.630421e-05
1.237503e+01	-2.660895e-05
1.244651e+01	-2.691722e-05
1.251840e+01	-2.722906e-05
1.259070e+01	-2.754452e-05
1.266343e+01	-2.786363e-05
1.273657e+01	-2.818644e-05
1.281014e+01	-2.851298e-05
1.288413e+01	-2.884331e-05
1.295855e+01	-2.917747e-05
1.303339e+01	-2.951550e-05
1.310867e+01	-2.985744e-05
1.318439e+01	-3.020335e-05
1.326054e+01	-3.055326e-05
1.333713e+01	-3.090723e-05
1.341417e+01	-3.126530e-05
1.349165e+01	-3.162751e-05
1.356958e+01	-3.199392e-05
1.364795e+01	-3.236458e-05
1.372678e+01	-3.273953e-05
1.380607e+01	-3.311883e-05
1.388581e+01	-3.350252e-05
1.396602e+01	-3.389065e-05
1.404668e+01	-3.428328e-05
1.412782e+01	-3.468046e-05
1.420942e+01	-3.508224e-05
1.429149e+01	-3.548868e-05
1.437404e+01	-3.589982e-05
1.445706e+01	-3.631573e-05
1.454057e+01	-3.673646e-05
1.462455e+01	-3.716206e-05
1.470902e+01	-3.759259e-05
1.479398e+01	-3.802811e-05
1.487943e+01	-3.846867e-05
1.496537e+01	-3.891434e-05
1.505181e+01	-3.936517e-05
1.513875e+01	-3.982123e-05
1.522619e+01	-4.028256e-05
1.531414e+01	-4.074925e-05
1.540259e+01	-4.122134e-05
1.549156e+01	-4.169889e-05
1.558103e+01	-4.218199e-05
1.567103e+01	-4.267067e-05
1.576155e+01	-4.316502e-05
1.585258e+01	-4.366510e-05
1.594415e+01	-4.417097e-05
1.603624e+01	-4.468270e-05
1.612886e+01	-4.520036e-05
1.622202e+01	-4.572401e-05
1.631572e+01	-4.625374e-05
1.640996e+01	-4.678960e-05
1.650474e+01	-4.733166e-05
1.660008e+01	-4.788001e-05
1.669596e+01	-4.843471e-05
1.679239e+01	-4.899584e-05
1.688938e+01	-4.956347e-05
1.698694e+01	-5.013767e-05
1.708505e+01	-5.071852e-05
1.718373e+01	-5.130611e-05
1.728299e+01	-5.190050e-05
1.738281e+01	-5.250178e-05
1.748322e+01	-5.311002e-05
1.758420e+01	-5.372531e-05
1.768576e+01	-5.434773e-05
1.778792e+01	-5.497736e-05
1.789066e+01	-5.561429e-05
1.799399e+01	-5.625859e-05
1.809793e+01	-5.691036e-05
1.820246e+01	-5.756967e-05
1.830760e+01	-5.823663e-05
1.841334e+01	-5.891131e-05
1.851969e+01	-5.959381e-05
1.862666e+01	-6.028422e-05
1.873425e+01	-6.098262e-05
1.884246e+01	-6.168912e-05
1.895129e+01	-6.240380e-05
1.906075e+01	-6.312676e-05
1.917085e+01	-6.385810e-05
1.928158e+01	-6.459791e-05
1.939295e+01	-6.534628e-05
1.950496e+01	-6.610333e-05
1.961762e+01	-6.686915e-05
1.973093e+01	-6.764385e-05
1.984490e+01	-6.842751e-05
1.995952e+01	-6.922026e-05
2.007480e+01	-7.002219e-05
2.019076e+01	-7.083341e-05
2.030738e+01	-7.165403e-05
2.042467e+01	-7.248415e-05
2.054264e+01	-7.332389e-05
2.066130e+01	-7.417336e-05
2.078064e+01	-7.503267e-05
2.090066e+01	-7.590194e-05
2.102139e+01	-7.678128e-05
2.114280e+01	-7.767080e-05
2.126492e+01	-7.857063e-05
2.138775e+01	-7.948089e-05
2.151128e+01	-8.040169e-05
2.163553e+01	-8.133315e-05
2.176050e+01	-8.227541e-05
2.188619e+01	-8.322859e-05
2.201260e+01	-8.419281e-05
2.213974e+01	-8.516819e-05
2.226762e+01	-8.615488e-05
2.239624e+01	-8.715300e-05
2.252560e+01	-8.816268e-05
2.265571e+01	-8.918406e-05
2.278656e+01	-9.021727e-05
2.291818e+01	-9.126245e-05
2.305055e+01	-9.231974e-05
2.318369e+01	-9.338928e-05
2.331760e+01	-9.447121e-05
2.345228e+01	-9.556567e-05
2.358774e+01	-9.667282e-05
2.372398e+01	-9.779278e-05
2.386101e+01	-9.892573e-05
2.399883e+01	-1.000718e-04
2.413745e+01	-1.012311e-04
2.427686e+01	-1.024039e-04
2.441709e+01	-1.035903e-04
2.455812e+01	-1.047904e-04
2.469997e+01	-1.060044e-04
2.484263e+01	-1.072325e-04
2.498612e+01	-1.084748e-04
2.513044e+01	-1.097315e-04
2.527559e+01	-1.110027e-04
2.542158e+01	-1.122887e-04
2.556842e+01	-1.135896e-04
2.571610e+01	-1.149055e-04
2.586463e+01	-1.162367e-04
2.601403e+01	-1.175834e-04
2.616428e+01	-1.189456e-04
2.631541e+01	-1.203236e-04
2.646740e+01	-1.217175e-04
2.662028e+01	-1.231276e-04
2.677404e+01	-1.245541e-04
2.692868e+01	-1.259971e-04
2.708422e+01	-1.274568e-04
2.724066e+01	-1.289334e-04
2.739800e+01	-1.304271e-04
2.755625e+01	-1.319381e-04
2.771541e+01	-1.334666e-04
2.787550e+01	-1.350128e-04
2.803650e+01	-1.365769e-04
2.819844e+01	-1.381592e-04
2.836131e+01	-1.397598e-04
2.852513e+01	-1.413789e-04
2.868989e+01	-1.430168e-04
2.885560e+01	-1.446737e-04
2.902227e+01	-1.463497e-04
2.918990e+01	-1.480452e-04
2.935850e+01	-1.497603e-04
2.952807e+01	-1.514953e-04
2.969863e+01	-1.532504e-04
2.987016e+01	-1.550258e-04
3.004269e+01	-1.568218e-04
3.021622e+01	-1.586386e-04
3.039075e+01	-1.604764e-04
3.056628e+01	-1.623355e-04
3.074283e+01	-1.642162e-04
3.092040e+01	-1.661187e-04
3.109900e+01	-1.680432e-04
3.127862e+01	-1.699899e-04
3.145929e+01	-1.719593e-04
3.164099e+01	-1.739514e-04
3.182375e+01	-1.759667e-04
3.200756e+01	-1.780053e-04
3.219244e+01	-1.800675e-04
3.237838e+01	-1.821535e-04
3.256540e+01	-1.842638e-04
3.275349e+01	-1.863985e-04
3.294268e+01	-1.885579e-04
3.313295e+01	-1.907424e-04
3.332433e+01	-1.929521e-04
3.351681e+01	-1.951875e-04
3.371040e+01	-1.974487e-04
3.390511e+01	-1.997362e-04
3.410094e+01	-2.020501e-04
3.429791e+01	-2.043909e-04
3.449601e+01	-2.067588e-04
3.469526e+01	-2.091541e-04
3.489566e+01	-2.115771e-04
3.509721e+01	-2.140282e-04
3.529993e+01	-2.165077e-04
3.550382e+01	-2.190160e-04
3.570889e+01	-2.215533e-04
3.591515e+01	-2.241200e-04
3.612259e+01	-2.267164e-04
3.633123e+01	-2.293429e-04
3.654108e+01	-2.319998e-04
3.675214e+01	-2.346875e-04
3.696442e+01	-2.374064e-04
3.717792e+01	-2.401567e-04
3.739266e+01	-2.429389e-04
3.760864e+01	-2.457534e-04
3.782587e+01	-2.486004e-04
3.804435e+01	-2.514804e-04
3.826409e+01	-2.543938e-04
3.848510e+01	-2.573409e-04
3.870739e+01	-2.603222e-04
3.893096e+01	-2.633380e-04
3.915583e+01	-2.663888e-04
3.938199e+01	-2.694749e-04
3.960946e+01	-2.725967e-04
3.983824e+01	-2.757547e-04
4.006834e+01	-2.789493e-04
4.029978e+01	-2.821809e-04
4.053255e+01	-2.854500e-04
4.076666e+01	-2.887569e-04
4.100213e+01	-2.921021e-04
4.123896e+01	-2.954861e-04
4.147715e+01	-2.989092e-04
4.171672e+01	-3.023720e-04
4.195767e+01	-3.058750e-04
4.220002e+01	-3.094185e-04
4.244377e+01	-3.130031e-04
4.268892e+01	-3.166292e-04
4.293549e+01	-3.202973e-04
4.318348e+01	-3.240079e-04
4.343291e+01	-3.277614e-04
4.368377e+01	-3.315585e-04
4.393609e+01	-3.353996e-04
4.418986e+01	-3.392851e-04
4.444510e+01	-3.432157e-04
4.470182e+01	-3.471918e-04
4.496001e+01	-3.512139e-04
4.521970e+01	-3.552826e-04
4.548089e+01	-3.593985e-04
4.574358e+01	-3.635621e-04
4.600779e+01	-3.677739e-04
4.627353e+01	-3.720344e-04
4.654081e+01	-3.763444e-04
4.680963e+01	-3.807042e-04
4.708000e+01	-3.851146e-04
4.735193e+01	-3.895761e-04
4.762543e+01	-3.940892e-04
4.790051e+01	-3.986546e-04
4.817719e+01	-4.032730e-04
4.845545e+01	-4.079448e-04
4.873533e+01	-4.126707e-04
4.901682e+01	-4.174514e-04
4.929994e+01	-4.222874e-04
4.958470e+01	-4.271795e-04
4.987110e+01	-4.321282e-04
5.015915e+01	-4.371343e-04
5.044887e+01	-4.421984e-04
5.074026e+01	-4.473211e-04
5.103333e+01	-4.525032e-04
5.132810e+01	-4.577453e-04
5.162457e+01	-4.630481e-04
5.192275e+01	-4.684123e-04
5.222265e+01	-4.738387e-04
5.252429e+01	-4.793280e-04
5.282767e+01	-4.848808e-04
5.313280e+01	-4.904980e-04
5.343969e+01	-4.961802e-04
5.374836e+01	-5.019283e-04
5.405880e+01	-5.077429e-04
5.437105e+01	-5.136249e-04
5.468509e+01	-5.195750e-04
5.500095e+01	-5.255941e-04
5.531863e+01	-5.316829e-04
5.563815e+01	-5.378422e-04
5.595951e+01	-5.440728e-04
5.628273e+01	-5.503757e-04
5.660782e+01	-5.567515e-04
5.693479e+01	-5.632012e-04
5.726364e+01	-5.697256e-04
5.759439e+01	-5.763256e-04
5.792705e+01	-5.830021e-04
5.826164e+01	-5.897558e-04
5.859815e+01	-5.965879e-04
5.893662e+01	-6.034990e-04
5.927703e+01	-6.104902e-04
5.961941e+01	-6.175624e-04
5.996377e+01	-6.247165e-04
6.031012e+01	-6.319535e-04
6.065847e+01	-6.392743e-04
6.100883e+01	-6.466799e-04
6.136121e+01	-6.541713e-04
6.171563e+01	-6.617495e-04
6.207210e+01	-6.694155e-04
6.243063e+01	-6.771702e-04
6.279122e+01	-6.850148e-04
6.315390e+01	-6.929503e-04
6.351868e+01	-7.009777e-04
6.388556e+01	-7.090980e-04
6.425456e+01	-7.173124e-04
6.462569e+01	-7.256220e-04
6.499897e+01	-7.340278e-04
6.537440e+01	-7.425310e-04
6.575200e+01	-7.511327e-04
6.613178e+01	-7.598340e-04
6.651375e+01	-7.686361e-04
6.689793e+01	-7.775402e-04
6.728433e+01	-7.865474e-04
6.767297e+01	-7.956589e-04
6.806384e+01	-8.048760e-04
6.845698e+01	-8.141998e-04
6.885238e+01	-8.236316e-04
6.925007e+01	-8.331727e-04
6.965005e+01	-8.428243e-04
7.005235e+01	-8.525877e-04
7.045697e+01	-8.624642e-04
7.086393e+01	-8.724551e-04
7.127323e+01	-8.825617e-04
7.168490e+01	-8.927853e-04
7.209895e+01	-9.031274e-04
7.251539e+01	-9.135893e-04
7.293424e+01	-9.241723e-04
7.335551e+01	-9.348780e-04
7.377920e+01	-9.457076e-04
7.420535e+01	-9.566627e-04
7.463396e+01	-9.677447e-04
7.506504e+01	-9.789550e-04
7.549861e+01	-9.902951e-04
7.593469e+01	-1.001767e-03
7.637328e+01	-1.013371e-03
7.681441e+01	-1.025110e-03
7.725809e+01	-1.036985e-03
7.770433e+01	-1.048997e-03
7.815315e+01	-1.061148e-03
7.860456e+01	-1.073440e-03
7.905857e+01	-1.085875e-03
7.951521e+01	-1.098454e-03
7.997449e+01	-1.111178e-03
8.043642e+01	-1.124049e-03
8.090102e+01	-1.137070e-03
8.136830e+01	-1.150242e-03
8.183828e+01	-1.163566e-03
8.231097e+01	-1.177044e-03
8.278640e+01	-1.190679e-03
8.326457e+01	-1.204471e-03
8.374550e+01	-1.218423e-03
8.422921e+01	-1.232537e-03
8.471572e+01	-1.246814e-03
8.520503e+01	-1.261257e-03
8.569717e+01	-1.275867e-03
8.619215e+01	-1.290646e-03
8.669000e+01	-1.305596e-03
8.719071e+01	-1.320719e-03
8.769432e+01	-1.336018e-03
8.820084e+01	-1.351494e-03
8.871029e+01	-1.367149e-03
8.922267e+01	-1.382985e-03
8.973802e+01	-1.399005e-03
9.025634e+01	-1.415210e-03
9.077766e+01	-1.431603e-03
9.130199e+01	-1.448185e-03
9.182935e+01	-1.464960e-03
9.235975e+01	-1.481929e-03
9.289321e+01	-1.499095e-03
9.342976e+01	-1.516459e-03
9.396941e+01	-1.534025e-03
9.451217e+01	-1.551794e-03
9.505807e+01	-1.569768e-03
9.560712e+01	-1.587951e-03
9.615934e+01	-1.606345e-03
9.671476e+01	-1.624951e-03
9.727338e+01	-1.643773e-03
9.783522e+01	-1.662813e-03
9.840032e+01	-1.682073e-03
9.896867e+01	-1.701557e-03
9.954031e+01	-1.721266e-03
1.001153e+02	-1.741203e-03
1.006935e+02	-1.761371e-03
1.012751e+02	-1.781773e-03
1.018601e+02	-1.802411e-03
1.024484e+02	-1.823288e-03
1.030402e+02	-1.844407e-03
1.036353e+02	-1.865770e-03
1.042339e+02	-1.887381e-03
1.048360e+02	-1.909242e-03
1.054415e+02	-1.931356e-03
1.060505e+02	-1.953726e-03
1.066631e+02	-1.976356e-03
1.072791e+02	-1.999247e-03
1.078988e+02	-2.022403e-03
1.085220e+02	-2.045828e-03
1.091488e+02	-2.069524e-03
1.097793e+02	-2.093494e-03
1.104133e+02	-2.117742e-03
1.110511e+02	-2.142270e-03
1.116925e+02	-2.167083e-03
1.123376e+02	-2.192183e-03
1.129865e+02	-2.217573e-03
1.136391e+02	-2.243258e-03
1.142955e+02	-2.269240e-03
1.149556e+02	-2.295523e-03
1.156196e+02	-2.322110e-03
1.162874e+02	-2.349005e-03
1.169591e+02	-2.376211e-03
1.176347e+02	-2.403732e-03
1.183141e+02	-2.431572e-03
1.189975e+02	-2.459735e-03
1.196848e+02	-2.488223e-03
1.203761e+02	-2.517042e-03
1.210714e+02	-2.546194e-03
1.217707e+02	-2.575683e-03
1.224740e+02	-2.605514e-03
1.231814e+02	-2.635691e-03
1.238929e+02	-2.666217e-03
1.246085e+02	-2.697096e-03
1.253283e+02	-2.728332e-03
1.260522e+02	-2.759931e-03
1.267802e+02	-2.791895e-03
1.275125e+02	-2.824229e-03
1.282490e+02	-2.856938e-03
1.289898e+02	-2.890025e-03
1.297348e+02	-2.923496e-03
1.304842e+02	-2.957354e-03
1.312378e+02	-2.991604e-03
1.319959e+02	-3.026250e-03
1.327583e+02	-3.061298e-03
1.335251e+02	-3.096751e-03
1.342963e+02	-3.132615e-03
1.350720e+02	-3.168893e-03
1.358522e+02	-3.205592e-03
1.366368e+02	-3.242716e-03
1.374260e+02	-3.280270e-03
1.382198e+02	-3.318258e-03
1.390182e+02	-3.356686e-03
1.398211e+02	-3.395559e-03
1.406287e+02	-3.434882e-03
1.414410e+02	-3.474660e-03
1.422579e+02	-3.514898e-03
1.430796e+02	-3.555602e-03
1.439060e+02	-3.596778e-03
1.447372e+02	-3.638430e-03
1.455732e+02	-3.680564e-03
1.464141e+02	-3.723186e-03
1.472597e+02	-3.766302e-03
1.481103e+02	-3.809916e-03
1.489658e+02	-3.854035e-03
1.498262e+02	-3.898665e-03
1.506916e+02	-3.943812e-03
1.515620e+02	-3.989481e-03
1.524374e+02	-4.035678e-03
1.533179e+02	-4.082411e-03
1.542034e+02	-4.129684e-03
1.550941e+02	-4.177504e-03
1.559899e+02	-4.225878e-03
1.568909e+02	-4.274812e-03
1.577971e+02	-4.324312e-03
1.587085e+02	-4.374385e-03
1.596252e+02	-4.425038e-03
1.605472e+02	-4.476276e-03
1.614745e+02	-4.528108e-03
1.624072e+02	-4.580540e-03
1.633453e+02	-4.633578e-03
1.642887e+02	-4.687230e-03
1.652377e+02	-4.741503e-03
1.661921e+02	-4.796404e-03
1.671520e+02	-4.851941e-03
1.681175e+02	-4.908120e-03
1.690885e+02	-4.964949e-03
1.700651e+02	-5.022436e-03
1.710474e+02	-5.080588e-03
1.720354e+02	-5.139413e-03
1.730291e+02	-5.198919e-03
1.740285e+02	-5.259113e-03
1.750337e+02	-5.320004e-03
1.760446e+02	-5.381599e-03
1.770615e+02	-5.443907e-03
1.780842e+02	-5.506936e-03
1.791128e+02	-5.570694e-03
1.801473e+02	-5.635190e-03
1.811878e+02	-5.700432e-03
1.822344e+02	-5.766429e-03
1.832870e+02	-5.833190e-03
1.843456e+02	-5.900723e-03
1.854104e+02	-5.969037e-03
1.864813e+02	-6.038142e-03
1.875584e+02	-6.108046e-03
1.886418e+02	-6.178759e-03
1.897313e+02	-6.250289e-03
1.908272e+02	-6.322648e-03
1.919294e+02	-6.395843e-03
1.930380e+02	-6.469885e-03
1.941530e+02	-6.544784e-03
1.952744e+02	-6.620549e-03
1.964023e+02	-6.697190e-03
1.975367e+02	-6.774718e-03
1.986777e+02	-6.853143e-03
1.998252e+02	-6.932475e-03
2.009794e+02	-7.012724e-03
2.021403e+02	-7.093902e-03
2.033078e+02	-7.176018e-03
2.044821e+02	-7.259085e-03
2.056632e+02	-7.343112e-03
2.068511e+02	-7.428111e-03
2.080459e+02	-7.514092e-03
2.092475e+02	-7.601069e-03
2.104561e+02	-7.689051e-03
2.116717e+02	-7.778050e-03
2.128943e+02	-7.868079e-03
2.141240e+02	-7.959149e-03
2.153608e+02	-8.051272e-03
2.166047e+02	-8.144460e-03
2.178558e+02	-8.238726e-03
2.191141e+02	-8.334082e-03
2.203797e+02	-8.430540e-03
2.216526e+02	-8.528114e-03
2.229329e+02	-8.626816e-03
2.242205e+02	-8.726659e-03
2.255156e+02	-8.827657e-03
2.268182e+02	-8.929822e-03
2.281283e+02	-9.033168e-03
2.294459e+02	-9.137709e-03
2.307712e+02	-9.243459e-03
2.321041e+02	-9.350431e-03
2.334447e+02	-9.458640e-03
2.347931e+02	-9.568099e-03
2.361493e+02	-9.678824e-03
2.375133e+02	-9.790829e-03
2.388851e+02	-9.904128e-03
2.402649e+02	-1.001874e-02
2.416527e+02	-1.013467e-02
2.430484e+02	-1.025194e-02
2.444523e+02	-1.037057e-02
2.458642e+02	-1.049057e-02
2.472843e+02	-1.061196e-02
2.487126e+02	-1.073475e-02
2.501492e+02	-1.085896e-02
2.515940e+02	-1.098460e-02
2.530472e+02	-1.111170e-02
2.545088e+02	-1.124026e-02
2.559789e+02	-1.137031e-02
2.574574e+02	-1.150187e-02
2.589444e+02	-1.163494e-02
2.604401e+02	-1.176955e-02
2.619444e+02	-1.190572e-02
2.634574e+02	-1.204345e-02
2.649791e+02	-1.218278e-02
2.665096e+02	-1.232372e-02
2.680489e+02	-1.246629e-02
2.695972e+02	-1.261051e-02
2.711544e+02	-1.275639e-02
2.727205e+02	-1.290395e-02
2.742958e+02	-1.305322e-02
2.758801e+02	-1.320422e-02
2.774736e+02	-1.335695e-02
2.790762e+02	-1.351146e-02
2.806882e+02	-1.366774e-02
2.823094e+02	-1.382583e-02
2.839400e+02	-1.398575e-02
2.855800e+02	-1.414751e-02
2.872295e+02	-1.431115e-02
2.888886e+02	-1.447667e-02
2.905572e+02	-1.464410e-02
2.922354e+02	-1.481346e-02
2.939234e+02	-1.498478e-02
2.956211e+02	-1.515808e-02
2.973286e+02	-1.533338e-02
2.990459e+02	-1.551070e-02
3.007732e+02	-1.569007e-02
3.025104e+02	-1.587151e-02
3.042577e+02	-1.605505e-02
3.060151e+02	-1.624070e-02
3.077826e+02	-1.642850e-02
3.095604e+02	-1.661846e-02
3.113484e+02	-1.681061e-02
3.131467e+02	-1.700499e-02
3.149554e+02	-1.720160e-02
3.167746e+02	-1.740049e-02
3.186043e+02	-1.760167e-02
3.204445e+02	-1.780517e-02
3.222954e+02	-1.801101e-02
3.241570e+02	-1.821924e-02
3.260293e+02	-1.842986e-02
3.279124e+02	-1.864292e-02
3.298064e+02	-1.885843e-02
3.317114e+02	-1.907643e-02
3.336273e+02	-1.929694e-02
3.355544e+02	-1.951999e-02
3.374925e+02	-1.974562e-02
3.394418e+02	-1.997385e-02
3.414024e+02	-2.020471e-02
3.433744e+02	-2.043824e-02
3.453577e+02	-2.067445e-02
3.473525e+02	-2.091339e-02
3.493588e+02	-2.115509e-02
3.513766e+02	-2.139957e-02
3.534062e+02	-2.164687e-02
3.554474e+02	-2.189702e-02
3.575005e+02	-2.215005e-02
3.595654e+02	-2.240600e-02
3.616422e+02	-2.266490e-02
3.637311e+02	-2.292678e-02
3.658320e+02	-2.319168e-02
3.679450e+02	-2.345964e-02
3.700702e+02	-2.373068e-02
3.722077e+02	-2.400484e-02
3.743576e+02	-2.428216e-02
3.765199e+02	-2.456268e-02
3.786946e+02	-2.484643e-02
3.808820e+02	-2.513344e-02
3.830819e+02	-2.542376e-02
3.852946e+02	-2.571743e-02
3.875200e+02	-2.601448e-02
3.897583e+02	-2.631494e-02
3.920096e+02	-2.661887e-02
3.942738e+02	-2.692630e-02
3.965511e+02	-2.723727e-02
3.988416e+02	-2.755181e-02
4.011452e+02	-2.786998e-02
4.034622e+02	-2.819181e-02
4.057926e+02	-2.851734e-02
4.081365e+02	-2.884662e-02
4.104938e+02	-2.917969e-02
4.128648e+02	-2.951659e-02
4.152495e+02	-2.985737e-02
4.176480e+02	-3.020207e-02
4.200603e+02	-3.055073e-02
4.224866e+02	-3.090340e-02
4.249268e+02	-3.126014e-02
4.273812e+02	-3.162097e-02
4.298497e+02	-3.198595e-02
4.323325e+02	-3.235513e-02
4.348297e+02	-3.272856e-02
4.373412e+02	-3.310628e-02
4.398673e+02	-3.348834e-02
4.424079e+02	-3.387479e-02
4.449633e+02	-3.426569e-02
4.475334e+02	-3.466107e-02
4.501183e+02	-3.506100e-02
4.527182e+02	-3.546553e-02
4.553330e+02	-3.587471e-02
4.579630e+02	-3.628858e-02
4.606082e+02	-3.670721e-02
4.632687e+02	-3.713065e-02
4.659445e+02	-3.755895e-02
4.686358e+02	-3.799217e-02
4.713426e+02	-3.843037e-02
4.740650e+02	-3.887360e-02
4.768032e+02	-3.932191e-02
4.795572e+02	-3.977538e-02
4.823271e+02	-4.023404e-02
4.851130e+02	-4.069797e-02
4.879150e+02	-4.116723e-02
4.907332e+02	-4.164187e-02
4.935676e+02	-4.212195e-02
4.964185e+02	-4.260755e-02
4.992858e+02	-4.309871e-02
5.021696e+02	-4.359551e-02
5.050701e+02	-4.409800e-02
5.079874e+02	-4.460626e-02
5.109215e+02	-4.512034e-02
5.138726e+02	-4.564032e-02
5.168407e+02	-4.616626e-02
5.198259e+02	-4.669822e-02
5.228284e+02	-4.723628e-02
5.258482e+02	-4.778051e-02
5.288855e+02	-4.833097e-02
5.319403e+02	-4.888774e-02
5.350128e+02	-4.945089e-02
5.381030e+02	-5.002048e-02
5.412111e+02	-5.059660e-02
5.443371e+02	-5.117931e-02
5.474812e+02	-5.176869e-02
5.506434e+02	-5.236482e-02
5.538239e+02	-5.296778e-02
5.570228e+02	-5.357763e-02
5.602401e+02	-5.419446e-02
5.634760e+02	-5.481835e-02
5.667306e+02	-5.544937e-02
5.700040e+02	-5.608761e-02
5.732964e+02	-5.673315e-02
5.766077e+02	-5.738606e-02
5.799382e+02	-5.804645e-02
5.832879e+02	-5.871438e-02
5.866569e+02	-5.938994e-02
5.900454e+02	-6.007322e-02
5.934535e+02	-6.076431e-02
5.968813e+02	-6.146329e-02
6.003288e+02	-6.217025e-02
6.037963e+02	-6.288529e-02
6.072838e+02	-6.360849e-02
6.107914e+02	-6.433994e-02
6.143194e+02	-6.507975e-02
6.178676e+02	-6.582799e-02
6.214364e+02	-6.658477e-02
6.250258e+02	-6.735019e-02
6.286359e+02	-6.812433e-02
6.322669e+02	-6.890730e-02
6.359189e+02	-6.969920e-02
6.395919e+02	-7.050012e-02
6.432862e+02	-7.131018e-02
6.470017e+02	-7.212946e-02
6.507388e+02	-7.295807e-02
6.544974e+02	-7.379612e-02
6.582778e+02	-7.464372e-02
6.620800e+02	-7.550097e-02
6.659041e+02	-7.636797e-02
6.697504e+02	-7.724484e-02
6.736188e+02	-7.813169e-02
6.775096e+02	-7.902863e-02
6.814229e+02	-7.993577e-02
6.853587e+02	-8.085323e-02
6.893173e+02	-8.178111e-02
6.932988e+02	-8.271955e-02
6.973033e+02	-8.366864e-02
7.013309e+02	-8.462852e-02
