Frequency(Hz)	Magnitude(dB)
1.000000e+01	-2.197559e+00
1.005776e+01	-2.217669e+00
1.011585e+01	-2.237573e+00
1.017428e+01	-2.257635e+00
1.023305e+01	-2.278182e+00
1.029215e+01	-2.298421e+00
1.035160e+01	-2.319248e+00
1.041139e+01	-2.339908e+00
1.047153e+01	-2.360775e+00
1.053201e+01	-2.381909e+00
1.059284e+01	-2.402949e+00
1.065403e+01	-2.424571e+00
1.071556e+01	-2.445826e+00
1.077746e+01	-2.467561e+00
1.083971e+01	-2.489140e+00
1.090232e+01	-2.511282e+00
1.096529e+01	-2.533046e+00
1.102862e+01	-2.555467e+00
1.109232e+01	-2.577604e+00
1.115639e+01	-2.600342e+00
1.122083e+01	-2.622840e+00
1.128564e+01	-2.645656e+00
1.135083e+01	-2.668563e+00
1.141639e+01	-2.691395e+00
1.148233e+01	-2.714623e+00
1.154865e+01	-2.737949e+00
1.161536e+01	-2.761399e+00
1.168245e+01	-2.784862e+00
1.174992e+01	-2.808798e+00
1.181779e+01	-2.832984e+00
1.188605e+01	-2.856725e+00
1.195470e+01	-2.880820e+00
1.202375e+01	-2.905081e+00
1.209320e+01	-2.929666e+00
1.216305e+01	-2.954375e+00
1.223330e+01	-2.979245e+00
1.230396e+01	-3.003703e+00
1.237503e+01	-3.029093e+00
1.244651e+01	-3.054365e+00
1.251840e+01	-3.079525e+00
1.259070e+01	-3.105120e+00
1.266343e+01	-3.130460e+00
1.273657e+01	-3.156283e+00
1.281014e+01	-3.182459e+00
1.288413e+01	-3.208602e+00
1.295855e+01	-3.234463e+00
1.303339e+01	-3.260977e+00
1.310867e+01	-3.287178e+00
1.318439e+01	-3.314212e+00
1.326054e+01	-3.341020e+00
1.333713e+01	-3.367855e+00
1.341417e+01	-3.394989e+00
1.349165e+01	-3.422094e+00
1.356958e+01	-3.449315e+00
1.364795e+01	-3.476986e+00
1.372678e+01	-3.504600e+00
1.380607e+01	-3.532242e+00
1.388581e+01	-3.560159e+00
1.396602e+01	-3.588219e+00
1.404668e+01	-3.616395e+00
1.412782e+01	-3.644532e+00
1.420942e+01	-3.673180e+00
1.429149e+01	-3.702064e+00
1.437404e+01	-3.730583e+00
1.445706e+01	-3.759424e+00
1.454057e+01	-3.788725e+00
1.462455e+01	-3.817821e+00
1.470902e+01	-3.847021e+00
1.479398e+01	-3.876504e+00
1.487943e+01	-3.906351e+00
1.496537e+01	-3.936117e+00
1.505181e+01	-3.965643e+00
1.513875e+01	-3.995536e+00
1.522619e+01	-4.026097e+00
1.531414e+01	-4.056610e+00
1.540259e+01	-4.086980e+00
1.549156e+01	-4.117529e+00
1.558103e+01	-4.147840e+00
1.567103e+01	-4.179225e+00
1.576155e+01	-4.210055e+00
1.585258e+01	-4.241094e+00
1.594415e+01	-4.272069e+00
1.603624e+01	-4.303549e+00
1.612886e+01	-4.335244e+00
1.622202e+01	-4.366752e+00
1.631572e+01	-4.398466e+00
1.640996e+01	-4.430631e+00
1.650474e+01	-4.462866e+00
1.660008e+01	-4.494886e+00
1.669596e+01	-4.526913e+00
1.679239e+01	-4.559861e+00
1.688938e+01	-4.591849e+00
1.698694e+01	-4.624883e+00
1.708505e+01	-4.657556e+00
1.718373e+01	-4.690688e+00
1.728299e+01	-4.723563e+00
1.738281e+01	-4.757022e+00
1.748322e+01	-4.790474e+00
1.758420e+01	-4.823830e+00
1.768576e+01	-4.857403e+00
1.778792e+01	-4.891133e+00
1.789066e+01	-4.925424e+00
1.799399e+01	-4.958935e+00
1.809793e+01	-4.993076e+00
1.820246e+01	-5.027491e+00
1.830760e+01	-5.061722e+00
1.841334e+01	-5.096230e+00
1.851969e+01	-5.130690e+00
1.862666e+01	-5.165535e+00
1.873425e+01	-5.200329e+00
1.884246e+01	-5.235594e+00
1.895129e+01	-5.270359e+00
1.906075e+01	-5.305647e+00
1.917085e+01	-5.341011e+00
1.928158e+01	-5.376566e+00
1.939295e+01	-5.411921e+00
1.950496e+01	-5.447548e+00
1.961762e+01	-5.483627e+00
1.973093e+01	-5.519941e+00
1.984490e+01	-5.555679e+00
1.995952e+01	-5.591905e+00
2.007480e+01	-5.628050e+00
2.019076e+01	-5.664881e+00
2.030738e+01	-5.700786e+00
2.042467e+01	-5.737509e+00
2.054264e+01	-5.774534e+00
2.066130e+01	-5.810805e+00
2.078064e+01	-5.847872e+00
2.090066e+01	-5.884811e+00
2.102139e+01	-5.922559e+00
2.114280e+01	-5.959726e+00
2.126492e+01	-5.997253e+00
2.138775e+01	-6.034604e+00
2.151128e+01	-6.072323e+00
2.163553e+01	-6.110115e+00
2.176050e+01	-6.147856e+00
2.188619e+01	-6.185512e+00
2.201260e+01	-6.223476e+00
2.213974e+01	-6.261614e+00
2.226762e+01	-6.300126e+00
2.239624e+01	-6.338247e+00
2.252560e+01	-6.376785e+00
2.265571e+01	-6.415309e+00
2.278656e+01	-6.454220e+00
2.291818e+01	-6.493010e+00
2.305055e+01	-6.532009e+00
2.318369e+01	-6.570660e+00
2.331760e+01	-6.609624e+00
2.345228e+01	-6.648889e+00
2.358774e+01	-6.688174e+00
2.372398e+01	-6.727522e+00
2.386101e+01	-6.766822e+00
2.399883e+01	-6.806647e+00
2.413745e+01	-6.846268e+00
2.427686e+01	-6.885867e+00
2.441709e+01	-6.925579e+00
2.455812e+01	-6.965476e+00
2.469997e+01	-7.005211e+00
2.484263e+01	-7.045772e+00
2.498612e+01	-7.085575e+00
2.513044e+01	-7.126380e+00
2.527559e+01	-7.166538e+00
2.542158e+01	-7.207055e+00
2.556842e+01	-7.247541e+00
2.571610e+01	-7.288431e+00
2.586463e+01	-7.329089e+00
2.601403e+01	-7.369987e+00
2.616428e+01	-7.410407e+00
2.631541e+01	-7.451553e+00
2.646740e+01	-7.492595e+00
2.662028e+01	-7.533635e+00
2.677404e+01	-7.575125e+00
2.692868e+01	-7.616294e+00
2.708422e+01	-7.657700e+00
2.724066e+01	-7.699317e+00
2.739800e+01	-7.740938e+00
2.755625e+01	-7.782887e+00
2.771541e+01	-7.824518e+00
2.787550e+01	-7.866476e+00
2.803650e+01	-7.908202e+00
2.819844e+01	-7.950477e+00
2.836131e+01	-7.991610e+00
2.852513e+01	-8.033716e+00
2.868989e+01	-8.076681e+00
2.885560e+01	-8.118339e+00
2.902227e+01	-8.161072e+00
2.918990e+01	-8.203435e+00
2.935850e+01	-8.245973e+00
2.952807e+01	-8.288816e+00
2.969863e+01	-8.331415e+00
2.987016e+01	-8.373518e+00
3.004269e+01	-8.416556e+00
3.021622e+01	-8.458958e+00
3.039075e+01	-8.502078e+00
3.056628e+01	-8.545430e+00
3.074283e+01	-8.588568e+00
3.092040e+01	-8.631685e+00
3.109900e+01	-8.674412e+00
3.127862e+01	-8.718070e+00
3.145929e+01	-8.761493e+00
3.164099e+01	-8.804840e+00
3.182375e+01	-8.848215e+00
3.200756e+01	-8.891633e+00
3.219244e+01	-8.934833e+00
3.237838e+01	-8.979069e+00
3.256540e+01	-9.022732e+00
3.275349e+01	-9.066830e+00
3.294268e+01	-9.110390e+00
3.313295e+01	-9.154261e+00
3.332433e+01	-9.198369e+00
3.351681e+01	-9.242033e+00
3.371040e+01	-9.286436e+00
3.390511e+01	-9.330795e+00
3.410094e+01	-9.374799e+00
3.429791e+01	-9.418625e+00
3.449601e+01	-9.463351e+00
3.469526e+01	-9.508025e+00
3.489566e+01	-9.552383e+00
3.509721e+01	-9.596816e+00
3.529993e+01	-9.641422e+00
3.550382e+01	-9.686323e+00
3.570889e+01	-9.730479e+00
3.591515e+01	-9.775173e+00
3.612259e+01	-9.819842e+00
3.633123e+01	-9.865168e+00
3.654108e+01	-9.909819e+00
3.675214e+01	-9.954409e+00
3.696442e+01	-9.999994e+00
3.717792e+01	-1.004455e+01
3.739266e+01	-1.008953e+01
3.760864e+01	-1.013475e+01
3.782587e+01	-1.018078e+01
3.804435e+01	-1.022522e+01
3.826409e+01	-1.027102e+01
3.848510e+01	-1.031630e+01
3.870739e+01	-1.036129e+01
3.893096e+01	-1.040718e+01
3.915583e+01	-1.045256e+01
3.938199e+01	-1.049795e+01
3.960946e+01	-1.054350e+01
3.983824e+01	-1.058854e+01
4.006834e+01	-1.063454e+01
4.029978e+01	-1.068104e+01
4.053255e+01	-1.072633e+01
4.076666e+01	-1.077282e+01
4.100213e+01	-1.081813e+01
4.123896e+01	-1.086416e+01
4.147715e+01	-1.091022e+01
4.171672e+01	-1.095653e+01
4.195767e+01	-1.100201e+01
4.220002e+01	-1.104755e+01
4.244377e+01	-1.109410e+01
4.268892e+01	-1.114039e+01
4.293549e+01	-1.118648e+01
4.318348e+01	-1.123295e+01
4.343291e+01	-1.127917e+01
4.368377e+01	-1.132550e+01
4.393609e+01	-1.137161e+01
4.418986e+01	-1.141842e+01
4.444510e+01	-1.146478e+01
4.470182e+01	-1.151104e+01
4.496001e+01	-1.155740e+01
4.521970e+01	-1.160444e+01
4.548089e+01	-1.165042e+01
4.574358e+01	-1.169710e+01
4.600779e+01	-1.174399e+01
4.627353e+01	-1.179084e+01
4.654081e+01	-1.183757e+01
4.680963e+01	-1.188464e+01
4.708000e+01	-1.193143e+01
4.735193e+01	-1.197756e+01
4.762543e+01	-1.202447e+01
4.790051e+01	-1.207158e+01
4.817719e+01	-1.211843e+01
4.845545e+01	-1.216577e+01
4.873533e+01	-1.221264e+01
4.901682e+01	-1.226035e+01
4.929994e+01	-1.230660e+01
4.958470e+01	-1.235416e+01
4.987110e+01	-1.240060e+01
5.015915e+01	-1.244826e+01
5.044887e+01	-1.249544e+01
5.074026e+01	-1.254245e+01
5.103333e+01	-1.258993e+01
5.132810e+01	-1.263681e+01
5.162457e+01	-1.268438e+01
5.192275e+01	-1.273179e+01
5.222265e+01	-1.277912e+01
5.252429e+01	-1.282692e+01
5.282767e+01	-1.287402e+01
5.313280e+01	-1.292135e+01
5.343969e+01	-1.296920e+01
5.374836e+01	-1.301604e+01
5.405880e+01	-1.306484e+01
5.437105e+01	-1.311207e+01
5.468509e+01	-1.315936e+01
5.500095e+01	-1.320717e+01
5.531863e+01	-1.325441e+01
5.563815e+01	-1.330157e+01
5.595951e+01	-1.334919e+01
5.628273e+01	-1.339764e+01
5.660782e+01	-1.344523e+01
5.693479e+01	-1.349304e+01
5.726364e+01	-1.354038e+01
5.759439e+01	-1.358855e+01
5.792705e+01	-1.363602e+01
5.826164e+01	-1.368380e+01
5.859815e+01	-1.373174e+01
5.893662e+01	-1.378087e+01
5.927703e+01	-1.382877e+01
5.961941e+01	-1.387556e+01
5.996377e+01	-1.392398e+01
6.031012e+01	-1.397231e+01
6.065847e+01	-1.402026e+01
6.100883e+01	-1.406786e+01
6.136121e+01	-1.411748e+01
6.171563e+01	-1.416402e+01
6.207210e+01	-1.421247e+01
6.243063e+01	-1.426037e+01
6.279122e+01	-1.430912e+01
6.315390e+01	-1.435682e+01
6.351868e+01	-1.440592e+01
6.388556e+01	-1.445331e+01
6.425456e+01	-1.450194e+01
6.462569e+01	-1.454951e+01
6.499897e+01	-1.459814e+01
6.537440e+01	-1.464707e+01
6.575200e+01	-1.469534e+01
6.613178e+01	-1.474362e+01
6.651375e+01	-1.479197e+01
6.689793e+01	-1.484096e+01
6.728433e+01	-1.488918e+01
6.767297e+01	-1.493728e+01
6.806384e+01	-1.498522e+01
6.845698e+01	-1.503385e+01
6.885238e+01	-1.508221e+01
6.925007e+01	-1.513072e+01
6.965005e+01	-1.517923e+01
7.005235e+01	-1.522643e+01
7.045697e+01	-1.527656e+01
7.086393e+01	-1.532409e+01
7.127323e+01	-1.537351e+01
7.168490e+01	-1.542184e+01
7.209895e+01	-1.547057e+01
7.251539e+01	-1.551932e+01
7.293424e+01	-1.556797e+01
7.335551e+01	-1.561700e+01
7.377920e+01	-1.566488e+01
7.420535e+01	-1.571310e+01
7.463396e+01	-1.576231e+01
7.506504e+01	-1.581092e+01
7.549861e+01	-1.585994e+01
7.593469e+01	-1.590886e+01
7.637328e+01	-1.595827e+01
7.681441e+01	-1.600571e+01
7.725809e+01	-1.605539e+01
7.770433e+01	-1.610279e+01
7.815315e+01	-1.615247e+01
7.860456e+01	-1.620078e+01
7.905857e+01	-1.624978e+01
7.951521e+01	-1.629914e+01
7.997449e+01	-1.634691e+01
8.043642e+01	-1.639710e+01
8.090102e+01	-1.644577e+01
8.136830e+01	-1.649424e+01
8.183828e+01	-1.654385e+01
8.231097e+01	-1.659349e+01
8.278640e+01	-1.664082e+01
8.326457e+01	-1.668990e+01
8.374550e+01	-1.673888e+01
8.422921e+01	-1.678805e+01
8.471572e+01	-1.683769e+01
8.520503e+01	-1.688631e+01
8.569717e+01	-1.693502e+01
8.619215e+01	-1.698396e+01
8.669000e+01	-1.703417e+01
8.719071e+01	-1.708242e+01
8.769432e+01	-1.713137e+01
8.820084e+01	-1.717927e+01
8.871029e+01	-1.722924e+01
8.922267e+01	-1.727855e+01
8.973802e+01	-1.732723e+01
9.025634e+01	-1.737650e+01
9.077766e+01	-1.742716e+01
9.130199e+01	-1.747546e+01
9.182935e+01	-1.752479e+01
9.235975e+01	-1.757336e+01
9.289321e+01	-1.762216e+01
9.342976e+01	-1.767281e+01
9.396941e+01	-1.772101e+01
9.451217e+01	-1.776974e+01
9.505807e+01	-1.781913e+01
9.560712e+01	-1.786924e+01
9.615934e+01	-1.791782e+01
9.671476e+01	-1.796698e+01
9.727338e+01	-1.801724e+01
9.783522e+01	-1.806625e+01
9.840032e+01	-1.811537e+01
9.896867e+01	-1.816476e+01
9.954031e+01	-1.821350e+01
1.001153e+02	-1.826362e+01
1.006935e+02	-1.831203e+01
1.012751e+02	-1.836031e+01
1.018601e+02	-1.841137e+01
1.024484e+02	-1.845789e+01
1.030402e+02	-1.850991e+01
1.036353e+02	-1.855801e+01
1.042339e+02	-1.860777e+01
1.048360e+02	-1.865847e+01
1.054415e+02	-1.870771e+01
1.060505e+02	-1.875646e+01
1.066631e+02	-1.880594e+01
1.072791e+02	-1.885463e+01
1.078988e+02	-1.890367e+01
1.085220e+02	-1.895310e+01
1.091488e+02	-1.900234e+01
1.097793e+02	-1.905221e+01
1.104133e+02	-1.910250e+01
1.110511e+02	-1.915084e+01
1.116925e+02	-1.919995e+01
1.123376e+02	-1.924897e+01
1.129865e+02	-1.929883e+01
1.136391e+02	-1.934958e+01
1.142955e+02	-1.939959e+01
1.149556e+02	-1.944639e+01
1.156196e+02	-1.949736e+01
1.162874e+02	-1.954682e+01
1.169591e+02	-1.959665e+01
1.176347e+02	-1.964571e+01
1.183141e+02	-1.969593e+01
1.189975e+02	-1.974472e+01
1.196848e+02	-1.979588e+01
1.203761e+02	-1.984385e+01
1.210714e+02	-1.989238e+01
1.217707e+02	-1.994273e+01
1.224740e+02	-1.999197e+01
1.231814e+02	-2.004121e+01
1.238929e+02	-2.009179e+01
1.246085e+02	-2.014127e+01
1.253283e+02	-2.019061e+01
1.260522e+02	-2.024012e+01
1.267802e+02	-2.028913e+01
1.275125e+02	-2.033881e+01
1.282490e+02	-2.038709e+01
1.289898e+02	-2.043703e+01
1.297348e+02	-2.048750e+01
1.304842e+02	-2.053745e+01
1.312378e+02	-2.058645e+01
1.319959e+02	-2.063685e+01
1.327583e+02	-2.068648e+01
1.335251e+02	-2.073548e+01
1.342963e+02	-2.078636e+01
1.350720e+02	-2.083535e+01
1.358522e+02	-2.088283e+01
1.366368e+02	-2.093403e+01
1.374260e+02	-2.098471e+01
1.382198e+02	-2.103158e+01
1.390182e+02	-2.108347e+01
1.398211e+02	-2.113315e+01
1.406287e+02	-2.118282e+01
1.414410e+02	-2.123241e+01
1.422579e+02	-2.128141e+01
1.430796e+02	-2.133149e+01
1.439060e+02	-2.138074e+01
1.447372e+02	-2.143211e+01
1.455732e+02	-2.148165e+01
1.464141e+02	-2.152992e+01
1.472597e+02	-2.158036e+01
1.481103e+02	-2.162876e+01
1.489658e+02	-2.167895e+01
1.498262e+02	-2.173087e+01
1.506916e+02	-2.177799e+01
1.515620e+02	-2.182756e+01
1.524374e+02	-2.187679e+01
1.533179e+02	-2.192787e+01
1.542034e+02	-2.197903e+01
1.550941e+02	-2.202908e+01
1.559899e+02	-2.207626e+01
1.568909e+02	-2.212746e+01
1.577971e+02	-2.217608e+01
1.587085e+02	-2.222536e+01
1.596252e+02	-2.227732e+01
1.605472e+02	-2.232834e+01
1.614745e+02	-2.237379e+01
1.624072e+02	-2.242753e+01
1.633453e+02	-2.247508e+01
1.642887e+02	-2.252398e+01
1.652377e+02	-2.257397e+01
1.661921e+02	-2.262464e+01
1.671520e+02	-2.267543e+01
1.681175e+02	-2.272221e+01
1.690885e+02	-2.277533e+01
1.700651e+02	-2.282457e+01
1.710474e+02	-2.287418e+01
1.720354e+02	-2.292282e+01
1.730291e+02	-2.297391e+01
1.740285e+02	-2.302441e+01
1.750337e+02	-2.307137e+01
1.760446e+02	-2.312326e+01
1.770615e+02	-2.317110e+01
1.780842e+02	-2.322003e+01
1.791128e+02	-2.327331e+01
1.801473e+02	-2.332209e+01
1.811878e+02	-2.337231e+01
1.822344e+02	-2.342132e+01
1.832870e+02	-2.347341e+01
1.843456e+02	-2.351943e+01
1.854104e+02	-2.357040e+01
1.864813e+02	-2.362123e+01
1.875584e+02	-2.366986e+01
1.886418e+02	-2.372073e+01
1.897313e+02	-2.376949e+01
1.908272e+02	-2.382076e+01
1.919294e+02	-2.387127e+01
1.930380e+02	-2.392191e+01
1.941530e+02	-2.396888e+01
1.952744e+02	-2.402091e+01
1.964023e+02	-2.406965e+01
1.975367e+02	-2.411894e+01
1.986777e+02	-2.416916e+01
1.998252e+02	-2.421848e+01
2.009794e+02	-2.426958e+01
2.021403e+02	-2.431774e+01
2.033078e+02	-2.436941e+01
2.044821e+02	-2.442060e+01
2.056632e+02	-2.446803e+01
2.068511e+02	-2.451962e+01
2.080459e+02	-2.456907e+01
2.092475e+02	-2.461904e+01
2.104561e+02	-2.466614e+01
2.116717e+02	-2.471655e+01
2.128943e+02	-2.476962e+01
2.141240e+02	-2.481470e+01
2.153608e+02	-2.486785e+01
2.166047e+02	-2.492009e+01
2.178558e+02	-2.496844e+01
2.191141e+02	-2.501684e+01
2.203797e+02	-2.506574e+01
2.216526e+02	-2.511898e+01
2.229329e+02	-2.516839e+01
2.242205e+02	-2.521832e+01
2.255156e+02	-2.526633e+01
2.268182e+02	-2.531535e+01
2.281283e+02	-2.536504e+01
2.294459e+02	-2.541701e+01
2.307712e+02	-2.546563e+01
2.321041e+02	-2.551371e+01
2.334447e+02	-2.556732e+01
2.347931e+02	-2.561659e+01
2.361493e+02	-2.566683e+01
2.375133e+02	-2.571535e+01
2.388851e+02	-2.576333e+01
2.402649e+02	-2.581573e+01
2.416527e+02	-2.586557e+01
2.430484e+02	-2.591555e+01
2.444523e+02	-2.596721e+01
2.458642e+02	-2.601420e+01
2.472843e+02	-2.606666e+01
2.487126e+02	-2.611777e+01
2.501492e+02	-2.616428e+01
2.515940e+02	-2.621799e+01
2.530472e+02	-2.626289e+01
2.545088e+02	-2.631808e+01
2.559789e+02	-2.636316e+01
2.574574e+02	-2.641628e+01
2.589444e+02	-2.646493e+01
2.604401e+02	-2.651597e+01
2.619444e+02	-2.656634e+01
2.634574e+02	-2.661528e+01
2.649791e+02	-2.666666e+01
2.665096e+02	-2.671336e+01
2.680489e+02	-2.676180e+01
2.695972e+02	-2.681501e+01
2.711544e+02	-2.686503e+01
2.727205e+02	-2.691782e+01
2.742958e+02	-2.696303e+01
2.758801e+02	-2.701312e+01
2.774736e+02	-2.706380e+01
2.790762e+02	-2.711652e+01
2.806882e+02	-2.716590e+01
2.823094e+02	-2.721813e+01
2.839400e+02	-2.726358e+01
2.855800e+02	-2.731548e+01
2.872295e+02	-2.736715e+01
2.888886e+02	-2.741478e+01
2.905572e+02	-2.746370e+01
2.922354e+02	-2.751464e+01
2.939234e+02	-2.757083e+01
2.956211e+02	-2.761683e+01
2.973286e+02	-2.766651e+01
2.990459e+02	-2.771607e+01
3.007732e+02	-2.776315e+01
3.025104e+02	-2.781948e+01
3.042577e+02	-2.786586e+01
3.060151e+02	-2.791289e+01
3.077826e+02	-2.796771e+01
3.095604e+02	-2.801268e+01
3.113484e+02	-2.806548e+01
3.131467e+02	-2.811573e+01
3.149554e+02	-2.816066e+01
3.167746e+02	-2.821899e+01
3.186043e+02	-2.826733e+01
3.204445e+02	-2.831662e+01
3.222954e+02	-2.836583e+01
3.241570e+02	-2.841185e+01
3.260293e+02	-2.846607e+01
3.279124e+02	-2.851672e+01
3.298064e+02	-2.856693e+01
3.317114e+02	-2.861116e+01
3.336273e+02	-2.866823e+01
3.355544e+02	-2.871655e+01
3.374925e+02	-2.876459e+01
3.394418e+02	-2.881825e+01
3.414024e+02	-2.886841e+01
3.433744e+02	-2.891881e+01
3.453577e+02	-2.896842e+01
3.473525e+02	-2.901826e+01
3.493588e+02	-2.906828e+01
3.513766e+02	-2.912204e+01
3.534062e+02	-2.916499e+01
3.554474e+02	-2.921687e+01
3.575005e+02	-2.926543e+01
3.595654e+02	-2.931425e+01
3.616422e+02	-2.936594e+01
3.637311e+02	-2.941923e+01
3.658320e+02	-2.946400e+01
3.679450e+02	-2.951866e+01
3.700702e+02	-2.956762e+01
3.722077e+02	-2.961906e+01
3.743576e+02	-2.967052e+01
3.765199e+02	-2.972434e+01
3.786946e+02	-2.976578e+01
3.808820e+02	-2.981548e+01
3.830819e+02	-2.986417e+01
3.852946e+02	-2.992006e+01
3.875200e+02	-2.996654e+01
3.897583e+02	-3.001988e+01
3.920096e+02	-3.006601e+01
3.942738e+02	-3.011576e+01
3.965511e+02	-3.016907e+01
3.988416e+02	-3.021873e+01
4.011452e+02	-3.026634e+01
4.034622e+02	-3.032049e+01
4.057926e+02	-3.036900e+01
4.081365e+02	-3.042285e+01
4.104938e+02	-3.047454e+01
4.128648e+02	-3.052267e+01
4.152495e+02	-3.056902e+01
4.176480e+02	-3.062411e+01
4.200603e+02	-3.067149e+01
4.224866e+02	-3.071814e+01
4.249268e+02	-3.076431e+01
4.273812e+02	-3.082087e+01
4.298497e+02	-3.086851e+01
4.323325e+02	-3.091630e+01
4.348297e+02	-3.097091e+01
4.373412e+02	-3.101870e+01
4.398673e+02	-3.107045e+01
4.424079e+02	-3.111688e+01
4.449633e+02	-3.116602e+01
4.475334e+02	-3.122349e+01
4.501183e+02	-3.126873e+01
4.527182e+02	-3.131871e+01
4.553330e+02	-3.137307e+01
4.579630e+02	-3.142061e+01
4.606082e+02	-3.147396e+01
4.632687e+02	-3.151877e+01
4.659445e+02	-3.157344e+01
4.686358e+02	-3.162332e+01
4.713426e+02	-3.167723e+01
4.740650e+02	-3.172222e+01
4.768032e+02	-3.177413e+01
4.795572e+02	-3.182102e+01
4.823271e+02	-3.187108e+01
4.851130e+02	-3.192583e+01
4.879150e+02	-3.197714e+01
4.907332e+02	-3.202807e+01
4.935676e+02	-3.206853e+01
4.964185e+02	-3.211930e+01
4.992858e+02	-3.217309e+01
5.021696e+02	-3.222110e+01
5.050701e+02	-3.227162e+01
5.079874e+02	-3.231940e+01
5.109215e+02	-3.237731e+01
5.138726e+02	-3.242726e+01
5.168407e+02	-3.247622e+01
5.198259e+02	-3.252443e+01
5.228284e+02	-3.257532e+01
5.258482e+02	-3.262769e+01
5.288855e+02	-3.267891e+01
5.319403e+02	-3.273423e+01
5.350128e+02	-3.277825e+01
5.381030e+02	-3.282804e+01
5.412111e+02	-3.287273e+01
5.443371e+02	-3.291918e+01
5.474812e+02	-3.298204e+01
5.506434e+02	-3.303350e+01
5.538239e+02	-3.307976e+01
5.570228e+02	-3.313211e+01
5.602401e+02	-3.317943e+01
5.634760e+02	-3.322789e+01
5.667306e+02	-3.328096e+01
5.700040e+02	-3.332842e+01
5.732964e+02	-3.337379e+01
5.766077e+02	-3.343210e+01
5.799382e+02	-3.347516e+01
5.832879e+02	-3.352669e+01
5.866569e+02	-3.357484e+01
5.900454e+02	-3.363494e+01
5.934535e+02	-3.368437e+01
5.968813e+02	-3.373348e+01
6.003288e+02	-3.378111e+01
6.037963e+02	-3.383368e+01
6.072838e+02	-3.388582e+01
6.107914e+02	-3.392904e+01
6.143194e+02	-3.398821e+01
6.178676e+02	-3.403100e+01
6.214364e+02	-3.407959e+01
6.250258e+02	-3.414123e+01
6.286359e+02	-3.418733e+01
6.322669e+02	-3.422694e+01
6.359189e+02	-3.427874e+01
6.395919e+02	-3.433412e+01
6.432862e+02	-3.438470e+01
6.470017e+02	-3.443411e+01
6.507388e+02	-3.448777e+01
6.544974e+02	-3.453282e+01
6.582778e+02	-3.458248e+01
6.620800e+02	-3.463876e+01
6.659041e+02	-3.468634e+01
6.697504e+02	-3.473912e+01
6.736188e+02	-3.477736e+01
6.775096e+02	-3.484168e+01
6.814229e+02	-3.489038e+01
6.853587e+02	-3.493792e+01
6.893173e+02	-3.499574e+01
6.932988e+02	-3.503730e+01
6.973033e+02	-3.508795e+01
7.013309e+02	-3.514759e+01
