Frequency(Hz)	Magnitude(dB)
1.000000e+01	-2.200156e+00
1.005776e+01	-2.220171e+00
1.011585e+01	-2.240259e+00
1.017428e+01	-2.260523e+00
1.023305e+01	-2.280772e+00
1.029215e+01	-2.301556e+00
1.035160e+01	-2.322064e+00
1.041139e+01	-2.342839e+00
1.047153e+01	-2.363636e+00
1.053201e+01	-2.384889e+00
1.059284e+01	-2.406166e+00
1.065403e+01	-2.427476e+00
1.071556e+01	-2.448926e+00
1.077746e+01	-2.470496e+00
1.083971e+01	-2.492196e+00
1.090232e+01	-2.514210e+00
1.096529e+01	-2.536431e+00
1.102862e+01	-2.558589e+00
1.109232e+01	-2.580950e+00
1.115639e+01	-2.603305e+00
1.122083e+01	-2.625765e+00
1.128564e+01	-2.648633e+00
1.135083e+01	-2.671751e+00
1.141639e+01	-2.694748e+00
1.148233e+01	-2.717843e+00
1.154865e+01	-2.741461e+00
1.161536e+01	-2.764654e+00
1.168245e+01	-2.788508e+00
1.174992e+01	-2.812054e+00
1.181779e+01	-2.835966e+00
1.188605e+01	-2.860164e+00
1.195470e+01	-2.884232e+00
1.202375e+01	-2.908565e+00
1.209320e+01	-2.933056e+00
1.216305e+01	-2.957758e+00
1.223330e+01	-2.982656e+00
1.230396e+01	-3.007440e+00
1.237503e+01	-3.032710e+00
1.244651e+01	-3.057650e+00
1.251840e+01	-3.083044e+00
1.259070e+01	-3.108401e+00
1.266343e+01	-3.134201e+00
1.273657e+01	-3.159975e+00
1.281014e+01	-3.186071e+00
1.288413e+01	-3.212166e+00
1.295855e+01	-3.238303e+00
1.303339e+01	-3.264735e+00
1.310867e+01	-3.291146e+00
1.318439e+01	-3.317688e+00
1.326054e+01	-3.344500e+00
1.333713e+01	-3.371782e+00
1.341417e+01	-3.398667e+00
1.349165e+01	-3.425868e+00
1.356958e+01	-3.453162e+00
1.364795e+01	-3.480752e+00
1.372678e+01	-3.508409e+00
1.380607e+01	-3.536254e+00
1.388581e+01	-3.564015e+00
1.396602e+01	-3.592294e+00
1.404668e+01	-3.620545e+00
1.412782e+01	-3.648880e+00
1.420942e+01	-3.677154e+00
1.429149e+01	-3.705910e+00
1.437404e+01	-3.734585e+00
1.445706e+01	-3.763426e+00
1.454057e+01	-3.792585e+00
1.462455e+01	-3.822159e+00
1.470902e+01	-3.851295e+00
1.479398e+01	-3.880954e+00
1.487943e+01	-3.910651e+00
1.496537e+01	-3.940060e+00
1.505181e+01	-3.970107e+00
1.513875e+01	-3.999958e+00
1.522619e+01	-4.030258e+00
1.531414e+01	-4.060520e+00
1.540259e+01	-4.090956e+00
1.549156e+01	-4.121526e+00
1.558103e+01	-4.152545e+00
1.567103e+01	-4.183113e+00
1.576155e+01	-4.213881e+00
1.585258e+01	-4.245149e+00
1.594415e+01	-4.276605e+00
1.603624e+01	-4.307900e+00
1.612886e+01	-4.339629e+00
1.622202e+01	-4.371121e+00
1.631572e+01	-4.403042e+00
1.640996e+01	-4.435180e+00
1.650474e+01	-4.467093e+00
1.660008e+01	-4.499228e+00
1.669596e+01	-4.531467e+00
1.679239e+01	-4.564071e+00
1.688938e+01	-4.596832e+00
1.698694e+01	-4.629501e+00
1.708505e+01	-4.662273e+00
1.718373e+01	-4.695212e+00
1.728299e+01	-4.728144e+00
1.738281e+01	-4.761390e+00
1.748322e+01	-4.794946e+00
1.758420e+01	-4.828283e+00
1.768576e+01	-4.861906e+00
1.778792e+01	-4.895783e+00
1.789066e+01	-4.929768e+00
1.799399e+01	-4.963763e+00
1.809793e+01	-4.997894e+00
1.820246e+01	-5.032431e+00
1.830760e+01	-5.066598e+00
1.841334e+01	-5.101067e+00
1.851969e+01	-5.135787e+00
1.862666e+01	-5.170595e+00
1.873425e+01	-5.205400e+00
1.884246e+01	-5.240353e+00
1.895129e+01	-5.275160e+00
1.906075e+01	-5.311056e+00
1.917085e+01	-5.345866e+00
1.928158e+01	-5.381365e+00
1.939295e+01	-5.417101e+00
1.950496e+01	-5.452722e+00
1.961762e+01	-5.488704e+00
1.973093e+01	-5.524611e+00
1.984490e+01	-5.560826e+00
1.995952e+01	-5.596830e+00
2.007480e+01	-5.633212e+00
2.019076e+01	-5.669604e+00
2.030738e+01	-5.706211e+00
2.042467e+01	-5.742714e+00
2.054264e+01	-5.779629e+00
2.066130e+01	-5.816304e+00
2.078064e+01	-5.853228e+00
2.090066e+01	-5.890247e+00
2.102139e+01	-5.927450e+00
2.114280e+01	-5.964667e+00
2.126492e+01	-6.001856e+00
2.138775e+01	-6.039778e+00
2.151128e+01	-6.077337e+00
2.163553e+01	-6.115136e+00
2.176050e+01	-6.152930e+00
2.188619e+01	-6.191299e+00
2.201260e+01	-6.228690e+00
2.213974e+01	-6.267341e+00
2.226762e+01	-6.305690e+00
2.239624e+01	-6.343955e+00
2.252560e+01	-6.382134e+00
2.265571e+01	-6.420971e+00
2.278656e+01	-6.459473e+00
2.291818e+01	-6.498005e+00
2.305055e+01	-6.536920e+00
2.318369e+01	-6.575973e+00
2.331760e+01	-6.615416e+00
2.345228e+01	-6.654521e+00
2.358774e+01	-6.693761e+00
2.372398e+01	-6.732853e+00
2.386101e+01	-6.772677e+00
2.399883e+01	-6.811817e+00
2.413745e+01	-6.851898e+00
2.427686e+01	-6.891185e+00
2.441709e+01	-6.931147e+00
2.455812e+01	-6.971468e+00
2.469997e+01	-7.011065e+00
2.484263e+01	-7.051495e+00
2.498612e+01	-7.091495e+00
2.513044e+01	-7.131869e+00
2.527559e+01	-7.172127e+00
2.542158e+01	-7.212500e+00
2.556842e+01	-7.253240e+00
2.571610e+01	-7.293648e+00
2.586463e+01	-7.335023e+00
2.601403e+01	-7.375640e+00
2.616428e+01	-7.416050e+00
2.631541e+01	-7.457049e+00
2.646740e+01	-7.498401e+00
2.662028e+01	-7.539808e+00
2.677404e+01	-7.580578e+00
2.692868e+01	-7.622434e+00
2.708422e+01	-7.663655e+00
2.724066e+01	-7.705154e+00
2.739800e+01	-7.747027e+00
2.755625e+01	-7.788223e+00
2.771541e+01	-7.830047e+00
2.787550e+01	-7.871952e+00
2.803650e+01	-7.913648e+00
2.819844e+01	-7.955958e+00
2.836131e+01	-7.997757e+00
2.852513e+01	-8.039776e+00
2.868989e+01	-8.082181e+00
2.885560e+01	-8.124968e+00
2.902227e+01	-8.166864e+00
2.918990e+01	-8.209381e+00
2.935850e+01	-8.251858e+00
2.952807e+01	-8.294289e+00
2.969863e+01	-8.337084e+00
2.987016e+01	-8.379620e+00
3.004269e+01	-8.422679e+00
3.021622e+01	-8.465305e+00
3.039075e+01	-8.507971e+00
3.056628e+01	-8.551521e+00
3.074283e+01	-8.594645e+00
3.092040e+01	-8.637429e+00
3.109900e+01	-8.681398e+00
3.127862e+01	-8.724443e+00
3.145929e+01	-8.767348e+00
3.164099e+01	-8.811078e+00
3.182375e+01	-8.854287e+00
3.200756e+01	-8.897616e+00
3.219244e+01	-8.941191e+00
3.237838e+01	-8.984568e+00
3.256540e+01	-9.028577e+00
3.275349e+01	-9.072725e+00
3.294268e+01	-9.116777e+00
3.313295e+01	-9.160226e+00
3.332433e+01	-9.204151e+00
3.351681e+01	-9.248559e+00
3.371040e+01	-9.292102e+00
3.390511e+01	-9.336726e+00
3.410094e+01	-9.381440e+00
3.429791e+01	-9.425538e+00
3.449601e+01	-9.469626e+00
3.469526e+01	-9.513805e+00
3.489566e+01	-9.558425e+00
3.509721e+01	-9.602999e+00
3.529993e+01	-9.647096e+00
3.550382e+01	-9.692509e+00
3.570889e+01	-9.737024e+00
3.591515e+01	-9.781575e+00
3.612259e+01	-9.826486e+00
3.633123e+01	-9.871499e+00
3.654108e+01	-9.915995e+00
3.675214e+01	-9.960975e+00
3.696442e+01	-1.000582e+01
3.717792e+01	-1.005085e+01
3.739266e+01	-1.009631e+01
3.760864e+01	-1.014166e+01
3.782587e+01	-1.018668e+01
3.804435e+01	-1.023222e+01
3.826409e+01	-1.027737e+01
3.848510e+01	-1.032293e+01
3.870739e+01	-1.036816e+01
3.893096e+01	-1.041370e+01
3.915583e+01	-1.045972e+01
3.938199e+01	-1.050449e+01
3.960946e+01	-1.055058e+01
3.983824e+01	-1.059594e+01
4.006834e+01	-1.064144e+01
4.029978e+01	-1.068724e+01
4.053255e+01	-1.073294e+01
4.076666e+01	-1.077850e+01
4.100213e+01	-1.082448e+01
4.123896e+01	-1.087070e+01
4.147715e+01	-1.091570e+01
4.171672e+01	-1.096268e+01
4.195767e+01	-1.100824e+01
4.220002e+01	-1.105468e+01
4.244377e+01	-1.110106e+01
4.268892e+01	-1.114741e+01
4.293549e+01	-1.119270e+01
4.318348e+01	-1.123889e+01
4.343291e+01	-1.128552e+01
4.368377e+01	-1.133168e+01
4.393609e+01	-1.137847e+01
4.418986e+01	-1.142501e+01
4.444510e+01	-1.147060e+01
4.470182e+01	-1.151724e+01
4.496001e+01	-1.156409e+01
4.521970e+01	-1.161155e+01
4.548089e+01	-1.165768e+01
4.574358e+01	-1.170401e+01
4.600779e+01	-1.175071e+01
4.627353e+01	-1.179736e+01
4.654081e+01	-1.184355e+01
4.680963e+01	-1.189081e+01
4.708000e+01	-1.193775e+01
4.735193e+01	-1.198467e+01
4.762543e+01	-1.203138e+01
4.790051e+01	-1.207805e+01
4.817719e+01	-1.212524e+01
4.845545e+01	-1.217269e+01
4.873533e+01	-1.221912e+01
4.901682e+01	-1.226647e+01
4.929994e+01	-1.231382e+01
4.958470e+01	-1.236052e+01
4.987110e+01	-1.240841e+01
5.015915e+01	-1.245446e+01
5.044887e+01	-1.250167e+01
5.074026e+01	-1.254916e+01
5.103333e+01	-1.259702e+01
5.132810e+01	-1.264279e+01
5.162457e+01	-1.269075e+01
5.192275e+01	-1.273782e+01
5.222265e+01	-1.278602e+01
5.252429e+01	-1.283336e+01
5.282767e+01	-1.288076e+01
5.313280e+01	-1.292823e+01
5.343969e+01	-1.297566e+01
5.374836e+01	-1.302255e+01
5.405880e+01	-1.307090e+01
5.437105e+01	-1.311897e+01
5.468509e+01	-1.316560e+01
5.500095e+01	-1.321287e+01
5.531863e+01	-1.326011e+01
5.563815e+01	-1.330955e+01
5.595951e+01	-1.335588e+01
5.628273e+01	-1.340447e+01
5.660782e+01	-1.345144e+01
5.693479e+01	-1.350048e+01
5.726364e+01	-1.354763e+01
5.759439e+01	-1.359566e+01
5.792705e+01	-1.364311e+01
5.826164e+01	-1.369099e+01
5.859815e+01	-1.373918e+01
5.893662e+01	-1.378658e+01
5.927703e+01	-1.383534e+01
5.961941e+01	-1.388388e+01
5.996377e+01	-1.393017e+01
6.031012e+01	-1.397982e+01
6.065847e+01	-1.402663e+01
6.100883e+01	-1.407406e+01
6.136121e+01	-1.412315e+01
6.171563e+01	-1.417191e+01
6.207210e+01	-1.421969e+01
6.243063e+01	-1.426775e+01
6.279122e+01	-1.431612e+01
6.315390e+01	-1.436407e+01
6.351868e+01	-1.441252e+01
6.388556e+01	-1.446065e+01
6.425456e+01	-1.450877e+01
6.462569e+01	-1.455605e+01
6.499897e+01	-1.460496e+01
6.537440e+01	-1.465330e+01
6.575200e+01	-1.470243e+01
6.613178e+01	-1.475022e+01
6.651375e+01	-1.479832e+01
6.689793e+01	-1.484700e+01
6.728433e+01	-1.489535e+01
6.767297e+01	-1.494315e+01
6.806384e+01	-1.499224e+01
6.845698e+01	-1.504001e+01
6.885238e+01	-1.508829e+01
6.925007e+01	-1.513783e+01
6.965005e+01	-1.518545e+01
7.005235e+01	-1.523405e+01
7.045697e+01	-1.528257e+01
7.086393e+01	-1.533179e+01
7.127323e+01	-1.538061e+01
7.168490e+01	-1.542887e+01
7.209895e+01	-1.547692e+01
7.251539e+01	-1.552570e+01
7.293424e+01	-1.557479e+01
7.335551e+01	-1.562323e+01
7.377920e+01	-1.567172e+01
7.420535e+01	-1.572054e+01
7.463396e+01	-1.576920e+01
7.506504e+01	-1.581821e+01
7.549861e+01	-1.586672e+01
7.593469e+01	-1.591604e+01
7.637328e+01	-1.596409e+01
7.681441e+01	-1.601179e+01
7.725809e+01	-1.606246e+01
7.770433e+01	-1.611166e+01
7.815315e+01	-1.616002e+01
7.860456e+01	-1.620821e+01
7.905857e+01	-1.625710e+01
7.951521e+01	-1.630632e+01
7.997449e+01	-1.635426e+01
8.043642e+01	-1.640312e+01
8.090102e+01	-1.645264e+01
8.136830e+01	-1.650073e+01
8.183828e+01	-1.655141e+01
8.231097e+01	-1.659904e+01
8.278640e+01	-1.664845e+01
8.326457e+01	-1.669706e+01
8.374550e+01	-1.674700e+01
8.422921e+01	-1.679556e+01
8.471572e+01	-1.684401e+01
8.520503e+01	-1.689313e+01
8.569717e+01	-1.694253e+01
8.619215e+01	-1.699076e+01
8.669000e+01	-1.704012e+01
8.719071e+01	-1.708862e+01
8.769432e+01	-1.713944e+01
8.820084e+01	-1.718697e+01
8.871029e+01	-1.723667e+01
8.922267e+01	-1.728598e+01
8.973802e+01	-1.733510e+01
9.025634e+01	-1.738317e+01
9.077766e+01	-1.743304e+01
9.130199e+01	-1.748101e+01
9.182935e+01	-1.753192e+01
9.235975e+01	-1.757934e+01
9.289321e+01	-1.762812e+01
9.342976e+01	-1.767873e+01
9.396941e+01	-1.772731e+01
9.451217e+01	-1.777655e+01
9.505807e+01	-1.782692e+01
9.560712e+01	-1.787561e+01
9.615934e+01	-1.792500e+01
9.671476e+01	-1.797287e+01
9.727338e+01	-1.802255e+01
9.783522e+01	-1.807345e+01
9.840032e+01	-1.812025e+01
9.896867e+01	-1.817078e+01
9.954031e+01	-1.821936e+01
1.001153e+02	-1.826920e+01
1.006935e+02	-1.831733e+01
1.012751e+02	-1.836790e+01
1.018601e+02	-1.841725e+01
1.024484e+02	-1.846661e+01
1.030402e+02	-1.851631e+01
1.036353e+02	-1.856575e+01
1.042339e+02	-1.861419e+01
1.048360e+02	-1.866426e+01
1.054415e+02	-1.871340e+01
1.060505e+02	-1.876216e+01
1.066631e+02	-1.881121e+01
1.072791e+02	-1.886073e+01
1.078988e+02	-1.891098e+01
1.085220e+02	-1.895998e+01
1.091488e+02	-1.901123e+01
1.097793e+02	-1.905902e+01
1.104133e+02	-1.910935e+01
1.110511e+02	-1.915766e+01
1.116925e+02	-1.920836e+01
1.123376e+02	-1.925751e+01
1.129865e+02	-1.930492e+01
1.136391e+02	-1.935570e+01
1.142955e+02	-1.940226e+01
1.149556e+02	-1.945472e+01
1.156196e+02	-1.950581e+01
1.162874e+02	-1.955269e+01
1.169591e+02	-1.960237e+01
1.176347e+02	-1.965284e+01
1.183141e+02	-1.970043e+01
1.189975e+02	-1.975127e+01
1.196848e+02	-1.980052e+01
1.203761e+02	-1.985069e+01
1.210714e+02	-1.989962e+01
1.217707e+02	-1.994910e+01
1.224740e+02	-1.999917e+01
1.231814e+02	-2.004917e+01
1.238929e+02	-2.009688e+01
1.246085e+02	-2.014690e+01
1.253283e+02	-2.019699e+01
1.260522e+02	-2.024664e+01
1.267802e+02	-2.029504e+01
1.275125e+02	-2.034686e+01
1.282490e+02	-2.039449e+01
1.289898e+02	-2.044547e+01
1.297348e+02	-2.049178e+01
1.304842e+02	-2.054591e+01
1.312378e+02	-2.059475e+01
1.319959e+02	-2.064480e+01
1.327583e+02	-2.069223e+01
1.335251e+02	-2.074473e+01
1.342963e+02	-2.079305e+01
1.350720e+02	-2.084189e+01
1.358522e+02	-2.089298e+01
1.366368e+02	-2.094028e+01
1.374260e+02	-2.099082e+01
1.382198e+02	-2.103963e+01
1.390182e+02	-2.108955e+01
1.398211e+02	-2.114114e+01
1.406287e+02	-2.119153e+01
1.414410e+02	-2.123962e+01
1.422579e+02	-2.129014e+01
1.430796e+02	-2.133832e+01
1.439060e+02	-2.138671e+01
1.447372e+02	-2.143831e+01
1.455732e+02	-2.148857e+01
1.464141e+02	-2.153759e+01
1.472597e+02	-2.158531e+01
1.481103e+02	-2.163702e+01
1.489658e+02	-2.168590e+01
1.498262e+02	-2.173692e+01
1.506916e+02	-2.178476e+01
1.515620e+02	-2.183506e+01
1.524374e+02	-2.188479e+01
1.533179e+02	-2.193501e+01
1.542034e+02	-2.198667e+01
1.550941e+02	-2.203419e+01
1.559899e+02	-2.208317e+01
1.568909e+02	-2.213464e+01
1.577971e+02	-2.218406e+01
1.587085e+02	-2.223225e+01
1.596252e+02	-2.228240e+01
1.605472e+02	-2.233245e+01
1.614745e+02	-2.238320e+01
1.624072e+02	-2.243307e+01
1.633453e+02	-2.248067e+01
1.642887e+02	-2.252856e+01
1.652377e+02	-2.258174e+01
1.661921e+02	-2.263174e+01
1.671520e+02	-2.268072e+01
1.681175e+02	-2.273058e+01
1.690885e+02	-2.277954e+01
1.700651e+02	-2.282908e+01
1.710474e+02	-2.288027e+01
1.720354e+02	-2.293008e+01
1.730291e+02	-2.298032e+01
1.740285e+02	-2.302768e+01
1.750337e+02	-2.307958e+01
1.760446e+02	-2.312916e+01
1.770615e+02	-2.318022e+01
1.780842e+02	-2.322824e+01
1.791128e+02	-2.327991e+01
1.801473e+02	-2.332848e+01
1.811878e+02	-2.337641e+01
1.822344e+02	-2.342823e+01
1.832870e+02	-2.347981e+01
1.843456e+02	-2.352743e+01
1.854104e+02	-2.358146e+01
1.864813e+02	-2.362693e+01
1.875584e+02	-2.367732e+01
1.886418e+02	-2.372476e+01
1.897313e+02	-2.377745e+01
1.908272e+02	-2.382462e+01
1.919294e+02	-2.387626e+01
1.930380e+02	-2.392531e+01
1.941530e+02	-2.397687e+01
1.952744e+02	-2.402590e+01
1.964023e+02	-2.407456e+01
1.975367e+02	-2.412914e+01
1.986777e+02	-2.417549e+01
1.998252e+02	-2.422648e+01
2.009794e+02	-2.427422e+01
2.021403e+02	-2.432447e+01
2.033078e+02	-2.437756e+01
2.044821e+02	-2.442280e+01
2.056632e+02	-2.447584e+01
2.068511e+02	-2.452438e+01
2.080459e+02	-2.457345e+01
2.092475e+02	-2.462619e+01
2.104561e+02	-2.467579e+01
2.116717e+02	-2.472336e+01
2.128943e+02	-2.477533e+01
2.141240e+02	-2.482568e+01
2.153608e+02	-2.487709e+01
2.166047e+02	-2.492441e+01
2.178558e+02	-2.497273e+01
2.191141e+02	-2.502195e+01
2.203797e+02	-2.507335e+01
2.216526e+02	-2.512075e+01
2.229329e+02	-2.517665e+01
2.242205e+02	-2.522265e+01
2.255156e+02	-2.527483e+01
2.268182e+02	-2.532286e+01
2.281283e+02	-2.537068e+01
2.294459e+02	-2.542274e+01
2.307712e+02	-2.547399e+01
2.321041e+02	-2.552340e+01
2.334447e+02	-2.557411e+01
2.347931e+02	-2.562198e+01
2.361493e+02	-2.567268e+01
2.375133e+02	-2.572128e+01
2.388851e+02	-2.577378e+01
2.402649e+02	-2.582279e+01
2.416527e+02	-2.587313e+01
2.430484e+02	-2.592464e+01
2.444523e+02	-2.597037e+01
2.458642e+02	-2.602234e+01
2.472843e+02	-2.607226e+01
2.487126e+02	-2.612433e+01
2.501492e+02	-2.617317e+01
2.515940e+02	-2.622240e+01
2.530472e+02	-2.627172e+01
2.545088e+02	-2.632030e+01
2.559789e+02	-2.637424e+01
2.574574e+02	-2.642525e+01
2.589444e+02	-2.647194e+01
2.604401e+02	-2.652174e+01
2.619444e+02	-2.657295e+01
2.634574e+02	-2.662291e+01
2.649791e+02	-2.666986e+01
2.665096e+02	-2.672068e+01
2.680489e+02	-2.677347e+01
2.695972e+02	-2.682678e+01
2.711544e+02	-2.687616e+01
2.727205e+02	-2.691931e+01
2.742958e+02	-2.697195e+01
2.758801e+02	-2.702130e+01
2.774736e+02	-2.707281e+01
2.790762e+02	-2.712124e+01
2.806882e+02	-2.717281e+01
2.823094e+02	-2.722083e+01
2.839400e+02	-2.727017e+01
2.855800e+02	-2.732272e+01
2.872295e+02	-2.737120e+01
2.888886e+02	-2.742299e+01
2.905572e+02	-2.747431e+01
2.922354e+02	-2.752292e+01
2.939234e+02	-2.757377e+01
2.956211e+02	-2.762097e+01
2.973286e+02	-2.767253e+01
2.990459e+02	-2.771940e+01
3.007732e+02	-2.777290e+01
3.025104e+02	-2.782105e+01
3.042577e+02	-2.787157e+01
3.060151e+02	-2.792263e+01
3.077826e+02	-2.797505e+01
3.095604e+02	-2.802111e+01
3.113484e+02	-2.806711e+01
3.131467e+02	-2.812515e+01
3.149554e+02	-2.816953e+01
3.167746e+02	-2.822344e+01
3.186043e+02	-2.827193e+01
3.204445e+02	-2.832012e+01
3.222954e+02	-2.837396e+01
3.241570e+02	-2.842627e+01
3.260293e+02	-2.847448e+01
3.279124e+02	-2.852282e+01
3.298064e+02	-2.857684e+01
3.317114e+02	-2.862031e+01
3.336273e+02	-2.867145e+01
3.355544e+02	-2.872521e+01
3.374925e+02	-2.877120e+01
3.394418e+02	-2.881954e+01
3.414024e+02	-2.887137e+01
3.433744e+02	-2.892523e+01
3.453577e+02	-2.897097e+01
3.473525e+02	-2.902714e+01
3.493588e+02	-2.907182e+01
3.513766e+02	-2.912177e+01
3.534062e+02	-2.917881e+01
3.554474e+02	-2.922282e+01
3.575005e+02	-2.927317e+01
3.595654e+02	-2.931985e+01
3.616422e+02	-2.937266e+01
3.637311e+02	-2.942507e+01
3.658320e+02	-2.947401e+01
3.679450e+02	-2.952551e+01
3.700702e+02	-2.957782e+01
3.722077e+02	-2.962277e+01
3.743576e+02	-2.967325e+01
3.765199e+02	-2.972295e+01
3.786946e+02	-2.977477e+01
3.808820e+02	-2.982073e+01
3.830819e+02	-2.987774e+01
3.852946e+02	-2.992272e+01
3.875200e+02	-2.997251e+01
3.897583e+02	-3.002557e+01
3.920096e+02	-3.007292e+01
3.942738e+02	-3.012665e+01
3.965511e+02	-3.017876e+01
3.988416e+02	-3.022144e+01
4.011452e+02	-3.027714e+01
4.034622e+02	-3.032839e+01
4.057926e+02	-3.037312e+01
4.081365e+02	-3.042704e+01
4.104938e+02	-3.047190e+01
4.128648e+02	-3.052527e+01
4.152495e+02	-3.057676e+01
4.176480e+02	-3.062730e+01
4.200603e+02	-3.068233e+01
4.224866e+02	-3.072851e+01
4.249268e+02	-3.077795e+01
4.273812e+02	-3.082654e+01
4.298497e+02	-3.087839e+01
4.323325e+02	-3.093015e+01
4.348297e+02	-3.097762e+01
4.373412e+02	-3.102671e+01
4.398673e+02	-3.107755e+01
4.424079e+02	-3.113008e+01
4.449633e+02	-3.117590e+01
4.475334e+02	-3.123305e+01
4.501183e+02	-3.127776e+01
4.527182e+02	-3.132046e+01
4.553330e+02	-3.137951e+01
4.579630e+02	-3.142921e+01
4.606082e+02	-3.147956e+01
4.632687e+02	-3.153631e+01
4.659445e+02	-3.158490e+01
4.686358e+02	-3.162601e+01
4.713426e+02	-3.168165e+01
4.740650e+02	-3.172562e+01
4.768032e+02	-3.178108e+01
4.795572e+02	-3.182966e+01
4.823271e+02	-3.188343e+01
4.851130e+02	-3.192990e+01
4.879150e+02	-3.198078e+01
4.907332e+02	-3.203419e+01
4.935676e+02	-3.207696e+01
4.964185e+02	-3.213177e+01
4.992858e+02	-3.218570e+01
5.021696e+02	-3.223858e+01
5.050701e+02	-3.227542e+01
5.079874e+02	-3.232567e+01
5.109215e+02	-3.238019e+01
5.138726e+02	-3.243135e+01
5.168407e+02	-3.247987e+01
5.198259e+02	-3.252809e+01
5.228284e+02	-3.257987e+01
5.258482e+02	-3.263661e+01
5.288855e+02	-3.268386e+01
5.319403e+02	-3.273182e+01
5.350128e+02	-3.278687e+01
5.381030e+02	-3.283497e+01
5.412111e+02	-3.287752e+01
5.443371e+02	-3.293351e+01
5.474812e+02	-3.298362e+01
5.506434e+02	-3.303841e+01
5.538239e+02	-3.308964e+01
5.570228e+02	-3.313203e+01
5.602401e+02	-3.319129e+01
5.634760e+02	-3.324557e+01
5.667306e+02	-3.328253e+01
5.700040e+02	-3.333188e+01
5.732964e+02	-3.338251e+01
5.766077e+02	-3.343903e+01
5.799382e+02	-3.348250e+01
5.832879e+02	-3.354076e+01
5.866569e+02	-3.358571e+01
5.900454e+02	-3.363768e+01
5.934535e+02	-3.368491e+01
5.968813e+02	-3.373353e+01
6.003288e+02	-3.378702e+01
6.037963e+02	-3.383893e+01
6.072838e+02	-3.389611e+01
6.107914e+02	-3.394139e+01
6.143194e+02	-3.399519e+01
6.178676e+02	-3.402889e+01
6.214364e+02	-3.408739e+01
6.250258e+02	-3.414128e+01
6.286359e+02	-3.419657e+01
6.322669e+02	-3.424506e+01
6.359189e+02	-3.428908e+01
6.395919e+02	-3.433818e+01
6.432862e+02	-3.439583e+01
6.470017e+02	-3.444981e+01
6.507388e+02	-3.449703e+01
6.544974e+02	-3.454324e+01
6.582778e+02	-3.459175e+01
6.620800e+02	-3.464271e+01
6.659041e+02	-3.469607e+01
6.697504e+02	-3.475378e+01
6.736188e+02	-3.478672e+01
6.775096e+02	-3.484577e+01
6.814229e+02	-3.490991e+01
6.853587e+02	-3.494924e+01
6.893173e+02	-3.499971e+01
6.932988e+02	-3.505041e+01
6.973033e+02	-3.509833e+01
7.013309e+02	-3.515011e+01
