Frequency(Hz)	Magnitude(dB)
1.000000e+01	-2.213999e+00
1.005776e+01	-2.234041e+00
1.011585e+01	-2.254189e+00
1.017428e+01	-2.274530e+00
1.023305e+01	-2.295046e+00
1.029215e+01	-2.315787e+00
1.035160e+01	-2.336342e+00
1.041139e+01	-2.357354e+00
1.047153e+01	-2.378374e+00
1.053201e+01	-2.399743e+00
1.059284e+01	-2.420794e+00
1.065403e+01	-2.442543e+00
1.071556e+01	-2.464015e+00
1.077746e+01	-2.485786e+00
1.083971e+01	-2.507499e+00
1.090232e+01	-2.529686e+00
1.096529e+01	-2.551615e+00
1.102862e+01	-2.574135e+00
1.109232e+01	-2.596662e+00
1.115639e+01	-2.619071e+00
1.122083e+01	-2.641931e+00
1.128564e+01	-2.664627e+00
1.135083e+01	-2.687747e+00
1.141639e+01	-2.710797e+00
1.148233e+01	-2.734009e+00
1.154865e+01	-2.757526e+00
1.161536e+01	-2.781091e+00
1.168245e+01	-2.804933e+00
1.174992e+01	-2.828744e+00
1.181779e+01	-2.852733e+00
1.188605e+01	-2.876868e+00
1.195470e+01	-2.901060e+00
1.202375e+01	-2.925725e+00
1.209320e+01	-2.950266e+00
1.216305e+01	-2.975165e+00
1.223330e+01	-2.999694e+00
1.230396e+01	-3.024885e+00
1.237503e+01	-3.049630e+00
1.244651e+01	-3.075247e+00
1.251840e+01	-3.100532e+00
1.259070e+01	-3.126194e+00
1.266343e+01	-3.152058e+00
1.273657e+01	-3.178071e+00
1.281014e+01	-3.203883e+00
1.288413e+01	-3.230180e+00
1.295855e+01	-3.256560e+00
1.303339e+01	-3.283213e+00
1.310867e+01	-3.309543e+00
1.318439e+01	-3.336279e+00
1.326054e+01	-3.363409e+00
1.333713e+01	-3.390128e+00
1.341417e+01	-3.417552e+00
1.349165e+01	-3.444621e+00
1.356958e+01	-3.472327e+00
1.364795e+01	-3.500010e+00
1.372678e+01	-3.527625e+00
1.380607e+01	-3.555677e+00
1.388581e+01	-3.583545e+00
1.396602e+01	-3.611635e+00
1.404668e+01	-3.640040e+00
1.412782e+01	-3.668458e+00
1.420942e+01	-3.697036e+00
1.429149e+01	-3.726050e+00
1.437404e+01	-3.754632e+00
1.445706e+01	-3.783549e+00
1.454057e+01	-3.812848e+00
1.462455e+01	-3.842181e+00
1.470902e+01	-3.871432e+00
1.479398e+01	-3.901194e+00
1.487943e+01	-3.931216e+00
1.496537e+01	-3.961090e+00
1.505181e+01	-3.990810e+00
1.513875e+01	-4.020841e+00
1.522619e+01	-4.051384e+00
1.531414e+01	-4.081923e+00
1.540259e+01	-4.112390e+00
1.549156e+01	-4.142939e+00
1.558103e+01	-4.173974e+00
1.567103e+01	-4.204601e+00
1.576155e+01	-4.235723e+00
1.585258e+01	-4.266819e+00
1.594415e+01	-4.298338e+00
1.603624e+01	-4.330099e+00
1.612886e+01	-4.361489e+00
1.622202e+01	-4.393432e+00
1.631572e+01	-4.425228e+00
1.640996e+01	-4.457155e+00
1.650474e+01	-4.489220e+00
1.660008e+01	-4.521803e+00
1.669596e+01	-4.554051e+00
1.679239e+01	-4.586745e+00
1.688938e+01	-4.619320e+00
1.698694e+01	-4.652154e+00
1.708505e+01	-4.685203e+00
1.718373e+01	-4.718060e+00
1.728299e+01	-4.751585e+00
1.738281e+01	-4.784625e+00
1.748322e+01	-4.818295e+00
1.758420e+01	-4.851878e+00
1.768576e+01	-4.885623e+00
1.778792e+01	-4.919265e+00
1.789066e+01	-4.953330e+00
1.799399e+01	-4.987436e+00
1.809793e+01	-5.021737e+00
1.820246e+01	-5.055768e+00
1.830760e+01	-5.090218e+00
1.841334e+01	-5.124937e+00
1.851969e+01	-5.159578e+00
1.862666e+01	-5.194653e+00
1.873425e+01	-5.229622e+00
1.884246e+01	-5.264795e+00
1.895129e+01	-5.299789e+00
1.906075e+01	-5.335267e+00
1.917085e+01	-5.370768e+00
1.928158e+01	-5.406262e+00
1.939295e+01	-5.441771e+00
1.950496e+01	-5.477628e+00
1.961762e+01	-5.513686e+00
1.973093e+01	-5.549706e+00
1.984490e+01	-5.585725e+00
1.995952e+01	-5.622191e+00
2.007480e+01	-5.658293e+00
2.019076e+01	-5.694946e+00
2.030738e+01	-5.731812e+00
2.042467e+01	-5.767852e+00
2.054264e+01	-5.804512e+00
2.066130e+01	-5.842027e+00
2.078064e+01	-5.879139e+00
2.090066e+01	-5.916306e+00
2.102139e+01	-5.953169e+00
2.114280e+01	-5.990783e+00
2.126492e+01	-6.028216e+00
2.138775e+01	-6.065807e+00
2.151128e+01	-6.103602e+00
2.163553e+01	-6.141071e+00
2.176050e+01	-6.179485e+00
2.188619e+01	-6.217217e+00
2.201260e+01	-6.255559e+00
2.213974e+01	-6.293584e+00
2.226762e+01	-6.332295e+00
2.239624e+01	-6.370602e+00
2.252560e+01	-6.409155e+00
2.265571e+01	-6.447615e+00
2.278656e+01	-6.486488e+00
2.291818e+01	-6.525572e+00
2.305055e+01	-6.564263e+00
2.318369e+01	-6.603250e+00
2.331760e+01	-6.642659e+00
2.345228e+01	-6.681445e+00
2.358774e+01	-6.720692e+00
2.372398e+01	-6.760280e+00
2.386101e+01	-6.799670e+00
2.399883e+01	-6.839798e+00
2.413745e+01	-6.879201e+00
2.427686e+01	-6.919240e+00
2.441709e+01	-6.959283e+00
2.455812e+01	-6.999159e+00
2.469997e+01	-7.038881e+00
2.484263e+01	-7.079204e+00
2.498612e+01	-7.119582e+00
2.513044e+01	-7.160192e+00
2.527559e+01	-7.200172e+00
2.542158e+01	-7.240760e+00
2.556842e+01	-7.281594e+00
2.571610e+01	-7.321761e+00
2.586463e+01	-7.362712e+00
2.601403e+01	-7.403834e+00
2.616428e+01	-7.444653e+00
2.631541e+01	-7.486139e+00
2.646740e+01	-7.526947e+00
2.662028e+01	-7.568180e+00
2.677404e+01	-7.609470e+00
2.692868e+01	-7.651031e+00
2.708422e+01	-7.692232e+00
2.724066e+01	-7.733947e+00
2.739800e+01	-7.775625e+00
2.755625e+01	-7.817537e+00
2.771541e+01	-7.859367e+00
2.787550e+01	-7.901049e+00
2.803650e+01	-7.942884e+00
2.819844e+01	-7.985508e+00
2.836131e+01	-8.026781e+00
2.852513e+01	-8.069125e+00
2.868989e+01	-8.111852e+00
2.885560e+01	-8.153900e+00
2.902227e+01	-8.196416e+00
2.918990e+01	-8.238737e+00
2.935850e+01	-8.280974e+00
2.952807e+01	-8.324331e+00
2.969863e+01	-8.366240e+00
2.987016e+01	-8.409154e+00
3.004269e+01	-8.452008e+00
3.021622e+01	-8.495393e+00
3.039075e+01	-8.538175e+00
3.056628e+01	-8.581495e+00
3.074283e+01	-8.624490e+00
3.092040e+01	-8.667749e+00
3.109900e+01	-8.710897e+00
3.127862e+01	-8.753590e+00
3.145929e+01	-8.797576e+00
3.164099e+01	-8.841362e+00
3.182375e+01	-8.884290e+00
3.200756e+01	-8.927817e+00
3.219244e+01	-8.971709e+00
3.237838e+01	-9.015273e+00
3.256540e+01	-9.059148e+00
3.275349e+01	-9.103245e+00
3.294268e+01	-9.147213e+00
3.313295e+01	-9.191067e+00
3.332433e+01	-9.234798e+00
3.351681e+01	-9.278951e+00
3.371040e+01	-9.323156e+00
3.390511e+01	-9.367514e+00
3.410094e+01	-9.411458e+00
3.429791e+01	-9.456414e+00
3.449601e+01	-9.500604e+00
3.469526e+01	-9.545077e+00
3.489566e+01	-9.589362e+00
3.509721e+01	-9.634244e+00
3.529993e+01	-9.679015e+00
3.550382e+01	-9.723191e+00
3.570889e+01	-9.767798e+00
3.591515e+01	-9.812591e+00
3.612259e+01	-9.857548e+00
3.633123e+01	-9.902363e+00
3.654108e+01	-9.947423e+00
3.675214e+01	-9.992360e+00
3.696442e+01	-1.003727e+01
3.717792e+01	-1.008249e+01
3.739266e+01	-1.012721e+01
3.760864e+01	-1.017298e+01
3.782587e+01	-1.021790e+01
3.804435e+01	-1.026330e+01
3.826409e+01	-1.030856e+01
3.848510e+01	-1.035426e+01
3.870739e+01	-1.039941e+01
3.893096e+01	-1.044475e+01
3.915583e+01	-1.049122e+01
3.938199e+01	-1.053601e+01
3.960946e+01	-1.058169e+01
3.983824e+01	-1.062778e+01
4.006834e+01	-1.067281e+01
4.029978e+01	-1.071887e+01
4.053255e+01	-1.076523e+01
4.076666e+01	-1.081065e+01
4.100213e+01	-1.085679e+01
4.123896e+01	-1.090262e+01
4.147715e+01	-1.094804e+01
4.171672e+01	-1.099505e+01
4.195767e+01	-1.104060e+01
4.220002e+01	-1.108691e+01
4.244377e+01	-1.113290e+01
4.268892e+01	-1.117937e+01
4.293549e+01	-1.122468e+01
4.318348e+01	-1.127116e+01
4.343291e+01	-1.131776e+01
4.368377e+01	-1.136374e+01
4.393609e+01	-1.141091e+01
4.418986e+01	-1.145725e+01
4.444510e+01	-1.150369e+01
4.470182e+01	-1.154937e+01
4.496001e+01	-1.159644e+01
4.521970e+01	-1.164268e+01
4.548089e+01	-1.168972e+01
4.574358e+01	-1.173651e+01
4.600779e+01	-1.178232e+01
4.627353e+01	-1.182968e+01
4.654081e+01	-1.187629e+01
4.680963e+01	-1.192360e+01
4.708000e+01	-1.197001e+01
4.735193e+01	-1.201722e+01
4.762543e+01	-1.206430e+01
4.790051e+01	-1.211072e+01
4.817719e+01	-1.215770e+01
4.845545e+01	-1.220489e+01
4.873533e+01	-1.225142e+01
4.901682e+01	-1.229861e+01
4.929994e+01	-1.234558e+01
4.958470e+01	-1.239351e+01
4.987110e+01	-1.244106e+01
5.015915e+01	-1.248771e+01
5.044887e+01	-1.253432e+01
5.074026e+01	-1.258117e+01
5.103333e+01	-1.262882e+01
5.132810e+01	-1.267642e+01
5.162457e+01	-1.272387e+01
5.192275e+01	-1.277098e+01
5.222265e+01	-1.281871e+01
5.252429e+01	-1.286658e+01
5.282767e+01	-1.291322e+01
5.313280e+01	-1.296035e+01
5.343969e+01	-1.300873e+01
5.374836e+01	-1.305553e+01
5.405880e+01	-1.310382e+01
5.437105e+01	-1.315063e+01
5.468509e+01	-1.319922e+01
5.500095e+01	-1.324648e+01
5.531863e+01	-1.329352e+01
5.563815e+01	-1.334178e+01
5.595951e+01	-1.338991e+01
5.628273e+01	-1.343740e+01
5.660782e+01	-1.348470e+01
5.693479e+01	-1.353273e+01
5.726364e+01	-1.358107e+01
5.759439e+01	-1.362880e+01
5.792705e+01	-1.367640e+01
5.826164e+01	-1.372501e+01
5.859815e+01	-1.377223e+01
5.893662e+01	-1.381962e+01
5.927703e+01	-1.386805e+01
5.961941e+01	-1.391645e+01
5.996377e+01	-1.396370e+01
6.031012e+01	-1.401199e+01
6.065847e+01	-1.405996e+01
6.100883e+01	-1.410811e+01
6.136121e+01	-1.415506e+01
6.171563e+01	-1.420514e+01
6.207210e+01	-1.425293e+01
6.243063e+01	-1.430048e+01
6.279122e+01	-1.434867e+01
6.315390e+01	-1.439691e+01
6.351868e+01	-1.444525e+01
6.388556e+01	-1.449381e+01
6.425456e+01	-1.454176e+01
6.462569e+01	-1.458952e+01
6.499897e+01	-1.463861e+01
6.537440e+01	-1.468637e+01
6.575200e+01	-1.473494e+01
6.613178e+01	-1.478319e+01
6.651375e+01	-1.483203e+01
6.689793e+01	-1.488044e+01
6.728433e+01	-1.492867e+01
6.767297e+01	-1.497721e+01
6.806384e+01	-1.502625e+01
6.845698e+01	-1.507277e+01
6.885238e+01	-1.512127e+01
6.925007e+01	-1.517075e+01
6.965005e+01	-1.521924e+01
7.005235e+01	-1.526805e+01
7.045697e+01	-1.531741e+01
7.086393e+01	-1.536441e+01
7.127323e+01	-1.541302e+01
7.168490e+01	-1.546227e+01
7.209895e+01	-1.550982e+01
7.251539e+01	-1.555948e+01
7.293424e+01	-1.560794e+01
7.335551e+01	-1.565693e+01
7.377920e+01	-1.570559e+01
7.420535e+01	-1.575467e+01
7.463396e+01	-1.580229e+01
7.506504e+01	-1.585122e+01
7.549861e+01	-1.590065e+01
7.593469e+01	-1.594806e+01
7.637328e+01	-1.599853e+01
7.681441e+01	-1.604772e+01
7.725809e+01	-1.609565e+01
7.770433e+01	-1.614499e+01
7.815315e+01	-1.619346e+01
7.860456e+01	-1.624270e+01
7.905857e+01	-1.629072e+01
7.951521e+01	-1.633883e+01
7.997449e+01	-1.638856e+01
8.043642e+01	-1.643708e+01
8.090102e+01	-1.648546e+01
8.136830e+01	-1.653569e+01
8.183828e+01	-1.658433e+01
8.231097e+01	-1.663394e+01
8.278640e+01	-1.668206e+01
8.326457e+01	-1.673118e+01
8.374550e+01	-1.677950e+01
8.422921e+01	-1.683051e+01
8.471572e+01	-1.687781e+01
8.520503e+01	-1.692707e+01
8.569717e+01	-1.697503e+01
8.619215e+01	-1.702542e+01
8.669000e+01	-1.707427e+01
8.719071e+01	-1.712335e+01
8.769432e+01	-1.717050e+01
8.820084e+01	-1.722063e+01
8.871029e+01	-1.726894e+01
8.922267e+01	-1.731974e+01
8.973802e+01	-1.736887e+01
9.025634e+01	-1.741723e+01
9.077766e+01	-1.746799e+01
9.130199e+01	-1.751557e+01
9.182935e+01	-1.756432e+01
9.235975e+01	-1.761505e+01
9.289321e+01	-1.766416e+01
9.342976e+01	-1.771207e+01
9.396941e+01	-1.776073e+01
9.451217e+01	-1.780990e+01
9.505807e+01	-1.786052e+01
9.560712e+01	-1.790917e+01
9.615934e+01	-1.795944e+01
9.671476e+01	-1.800736e+01
9.727338e+01	-1.805731e+01
9.783522e+01	-1.810625e+01
9.840032e+01	-1.815486e+01
9.896867e+01	-1.820437e+01
9.954031e+01	-1.825382e+01
1.001153e+02	-1.830413e+01
1.006935e+02	-1.835192e+01
1.012751e+02	-1.840353e+01
1.018601e+02	-1.845189e+01
1.024484e+02	-1.850033e+01
1.030402e+02	-1.855018e+01
1.036353e+02	-1.859827e+01
1.042339e+02	-1.864770e+01
1.048360e+02	-1.869721e+01
1.054415e+02	-1.874691e+01
1.060505e+02	-1.879683e+01
1.066631e+02	-1.884681e+01
1.072791e+02	-1.889550e+01
1.078988e+02	-1.894502e+01
1.085220e+02	-1.899472e+01
1.091488e+02	-1.904345e+01
1.097793e+02	-1.909301e+01
1.104133e+02	-1.914265e+01
1.110511e+02	-1.919236e+01
1.116925e+02	-1.924236e+01
1.123376e+02	-1.929095e+01
1.129865e+02	-1.934123e+01
1.136391e+02	-1.939038e+01
1.142955e+02	-1.944010e+01
1.149556e+02	-1.948876e+01
1.156196e+02	-1.953888e+01
1.162874e+02	-1.958783e+01
1.169591e+02	-1.963682e+01
1.176347e+02	-1.968740e+01
1.183141e+02	-1.973719e+01
1.189975e+02	-1.978545e+01
1.196848e+02	-1.983468e+01
1.203761e+02	-1.988704e+01
1.210714e+02	-1.993495e+01
1.217707e+02	-1.998469e+01
1.224740e+02	-2.003468e+01
1.231814e+02	-2.008260e+01
1.238929e+02	-2.013295e+01
1.246085e+02	-2.018289e+01
1.253283e+02	-2.023211e+01
1.260522e+02	-2.028181e+01
1.267802e+02	-2.033238e+01
1.275125e+02	-2.038159e+01
1.282490e+02	-2.042955e+01
1.289898e+02	-2.047889e+01
1.297348e+02	-2.053023e+01
1.304842e+02	-2.057895e+01
1.312378e+02	-2.062758e+01
1.319959e+02	-2.067835e+01
1.327583e+02	-2.072773e+01
1.335251e+02	-2.077611e+01
1.342963e+02	-2.082739e+01
1.350720e+02	-2.087700e+01
1.358522e+02	-2.092614e+01
1.366368e+02	-2.097631e+01
1.374260e+02	-2.102588e+01
1.382198e+02	-2.107555e+01
1.390182e+02	-2.112574e+01
1.398211e+02	-2.117387e+01
1.406287e+02	-2.122394e+01
1.414410e+02	-2.127372e+01
1.422579e+02	-2.132412e+01
1.430796e+02	-2.137290e+01
1.439060e+02	-2.142436e+01
1.447372e+02	-2.147299e+01
1.455732e+02	-2.152193e+01
1.464141e+02	-2.157155e+01
1.472597e+02	-2.162168e+01
1.481103e+02	-2.166996e+01
1.489658e+02	-2.172178e+01
1.498262e+02	-2.177164e+01
1.506916e+02	-2.181936e+01
1.515620e+02	-2.186969e+01
1.524374e+02	-2.191884e+01
1.533179e+02	-2.197099e+01
1.542034e+02	-2.201823e+01
1.550941e+02	-2.206929e+01
1.559899e+02	-2.211733e+01
1.568909e+02	-2.216972e+01
1.577971e+02	-2.221755e+01
1.587085e+02	-2.226946e+01
1.596252e+02	-2.231654e+01
1.605472e+02	-2.236427e+01
1.614745e+02	-2.241717e+01
1.624072e+02	-2.246722e+01
1.633453e+02	-2.251568e+01
1.642887e+02	-2.256684e+01
1.652377e+02	-2.261855e+01
1.661921e+02	-2.266665e+01
1.671520e+02	-2.271493e+01
1.681175e+02	-2.276504e+01
1.690885e+02	-2.281495e+01
1.700651e+02	-2.286300e+01
1.710474e+02	-2.291238e+01
1.720354e+02	-2.296182e+01
1.730291e+02	-2.301508e+01
1.740285e+02	-2.306321e+01
1.750337e+02	-2.311270e+01
1.760446e+02	-2.316517e+01
1.770615e+02	-2.321527e+01
1.780842e+02	-2.326255e+01
1.791128e+02	-2.331685e+01
1.801473e+02	-2.336455e+01
1.811878e+02	-2.341581e+01
1.822344e+02	-2.346103e+01
1.832870e+02	-2.351463e+01
1.843456e+02	-2.356115e+01
1.854104e+02	-2.361198e+01
1.864813e+02	-2.366073e+01
1.875584e+02	-2.371056e+01
1.886418e+02	-2.376067e+01
1.897313e+02	-2.381151e+01
1.908272e+02	-2.385931e+01
1.919294e+02	-2.391128e+01
1.930380e+02	-2.396309e+01
1.941530e+02	-2.401123e+01
1.952744e+02	-2.406137e+01
1.964023e+02	-2.410899e+01
1.975367e+02	-2.416287e+01
1.986777e+02	-2.420965e+01
1.998252e+02	-2.426097e+01
2.009794e+02	-2.430930e+01
2.021403e+02	-2.436190e+01
2.033078e+02	-2.440727e+01
2.044821e+02	-2.445949e+01
2.056632e+02	-2.450987e+01
2.068511e+02	-2.455707e+01
2.080459e+02	-2.461066e+01
2.092475e+02	-2.465885e+01
2.104561e+02	-2.471097e+01
2.116717e+02	-2.475737e+01
2.128943e+02	-2.481060e+01
2.141240e+02	-2.486014e+01
2.153608e+02	-2.490889e+01
2.166047e+02	-2.495828e+01
2.178558e+02	-2.500862e+01
2.191141e+02	-2.505760e+01
2.203797e+02	-2.510965e+01
2.216526e+02	-2.515727e+01
2.229329e+02	-2.520910e+01
2.242205e+02	-2.525742e+01
2.255156e+02	-2.530919e+01
2.268182e+02	-2.535850e+01
2.281283e+02	-2.540548e+01
2.294459e+02	-2.545650e+01
2.307712e+02	-2.550728e+01
2.321041e+02	-2.555797e+01
2.334447e+02	-2.560666e+01
2.347931e+02	-2.565631e+01
2.361493e+02	-2.570703e+01
2.375133e+02	-2.575838e+01
2.388851e+02	-2.580479e+01
2.402649e+02	-2.585708e+01
2.416527e+02	-2.590772e+01
2.430484e+02	-2.595697e+01
2.444523e+02	-2.600912e+01
2.458642e+02	-2.605724e+01
2.472843e+02	-2.610752e+01
2.487126e+02	-2.615468e+01
2.501492e+02	-2.620808e+01
2.515940e+02	-2.625626e+01
2.530472e+02	-2.631044e+01
2.545088e+02	-2.635703e+01
2.559789e+02	-2.640473e+01
2.574574e+02	-2.645915e+01
2.589444e+02	-2.650480e+01
2.604401e+02	-2.655586e+01
2.619444e+02	-2.660682e+01
2.634574e+02	-2.665729e+01
2.649791e+02	-2.670278e+01
2.665096e+02	-2.675494e+01
2.680489e+02	-2.680768e+01
2.695972e+02	-2.685592e+01
2.711544e+02	-2.690783e+01
2.727205e+02	-2.695691e+01
2.742958e+02	-2.700597e+01
2.758801e+02	-2.705619e+01
2.774736e+02	-2.710572e+01
2.790762e+02	-2.715835e+01
2.806882e+02	-2.720656e+01
2.823094e+02	-2.725727e+01
2.839400e+02	-2.730565e+01
2.855800e+02	-2.735772e+01
2.872295e+02	-2.740311e+01
2.888886e+02	-2.745543e+01
2.905572e+02	-2.750631e+01
2.922354e+02	-2.755541e+01
2.939234e+02	-2.760383e+01
2.956211e+02	-2.765366e+01
2.973286e+02	-2.770813e+01
2.990459e+02	-2.775439e+01
3.007732e+02	-2.780587e+01
3.025104e+02	-2.785778e+01
3.042577e+02	-2.790739e+01
3.060151e+02	-2.795518e+01
3.077826e+02	-2.800872e+01
3.095604e+02	-2.805528e+01
3.113484e+02	-2.810852e+01
3.131467e+02	-2.815789e+01
3.149554e+02	-2.820792e+01
3.167746e+02	-2.825839e+01
3.186043e+02	-2.830595e+01
3.204445e+02	-2.835680e+01
3.222954e+02	-2.840489e+01
3.241570e+02	-2.846070e+01
3.260293e+02	-2.850997e+01
3.279124e+02	-2.855835e+01
3.298064e+02	-2.860001e+01
3.317114e+02	-2.865934e+01
3.336273e+02	-2.870954e+01
3.355544e+02	-2.875116e+01
3.374925e+02	-2.880695e+01
3.394418e+02	-2.886032e+01
3.414024e+02	-2.890765e+01
3.433744e+02	-2.895905e+01
3.453577e+02	-2.901110e+01
3.473525e+02	-2.905871e+01
3.493588e+02	-2.910469e+01
3.513766e+02	-2.915506e+01
3.534062e+02	-2.920701e+01
3.554474e+02	-2.925575e+01
3.575005e+02	-2.930954e+01
3.595654e+02	-2.935619e+01
3.616422e+02	-2.940702e+01
3.637311e+02	-2.945880e+01
3.658320e+02	-2.950850e+01
3.679450e+02	-2.956131e+01
3.700702e+02	-2.960361e+01
3.722077e+02	-2.965738e+01
3.743576e+02	-2.971250e+01
3.765199e+02	-2.976259e+01
3.786946e+02	-2.980899e+01
3.808820e+02	-2.986075e+01
3.830819e+02	-2.990619e+01
3.852946e+02	-2.995848e+01
3.875200e+02	-3.000775e+01
3.897583e+02	-3.005830e+01
3.920096e+02	-3.011006e+01
3.942738e+02	-3.016024e+01
3.965511e+02	-3.020685e+01
3.988416e+02	-3.025201e+01
4.011452e+02	-3.030912e+01
4.034622e+02	-3.035769e+01
4.057926e+02	-3.041262e+01
4.081365e+02	-3.046086e+01
4.104938e+02	-3.051015e+01
4.128648e+02	-3.055775e+01
4.152495e+02	-3.061202e+01
4.176480e+02	-3.066155e+01
4.200603e+02	-3.071136e+01
4.224866e+02	-3.075937e+01
4.249268e+02	-3.081457e+01
4.273812e+02	-3.085923e+01
4.298497e+02	-3.091179e+01
4.323325e+02	-3.095889e+01
4.348297e+02	-3.101367e+01
4.373412e+02	-3.106906e+01
4.398673e+02	-3.111778e+01
4.424079e+02	-3.116192e+01
4.449633e+02	-3.121175e+01
4.475334e+02	-3.126487e+01
4.501183e+02	-3.131087e+01
4.527182e+02	-3.136802e+01
4.553330e+02	-3.141132e+01
4.579630e+02	-3.146069e+01
4.606082e+02	-3.151175e+01
4.632687e+02	-3.155762e+01
4.659445e+02	-3.161140e+01
4.686358e+02	-3.166953e+01
4.713426e+02	-3.170887e+01
4.740650e+02	-3.176650e+01
4.768032e+02	-3.181541e+01
4.795572e+02	-3.186647e+01
4.823271e+02	-3.191722e+01
4.851130e+02	-3.196317e+01
4.879150e+02	-3.201699e+01
4.907332e+02	-3.205549e+01
4.935676e+02	-3.211463e+01
4.964185e+02	-3.216316e+01
4.992858e+02	-3.221722e+01
5.021696e+02	-3.226494e+01
5.050701e+02	-3.231164e+01
5.079874e+02	-3.236249e+01
5.109215e+02	-3.241456e+01
5.138726e+02	-3.247153e+01
5.168407e+02	-3.251177e+01
5.198259e+02	-3.256857e+01
5.228284e+02	-3.261908e+01
5.258482e+02	-3.266658e+01
5.288855e+02	-3.271082e+01
5.319403e+02	-3.276398e+01
5.350128e+02	-3.281243e+01
5.381030e+02	-3.286878e+01
5.412111e+02	-3.291812e+01
5.443371e+02	-3.297066e+01
5.474812e+02	-3.302053e+01
5.506434e+02	-3.306578e+01
5.538239e+02	-3.311477e+01
5.570228e+02	-3.318341e+01
5.602401e+02	-3.321139e+01
5.634760e+02	-3.327625e+01
5.667306e+02	-3.332374e+01
5.700040e+02	-3.337828e+01
5.732964e+02	-3.342598e+01
5.766077e+02	-3.348079e+01
5.799382e+02	-3.352753e+01
5.832879e+02	-3.357547e+01
5.866569e+02	-3.362065e+01
5.900454e+02	-3.366823e+01
5.934535e+02	-3.372325e+01
5.968813e+02	-3.377347e+01
6.003288e+02	-3.381843e+01
6.037963e+02	-3.386670e+01
6.072838e+02	-3.392027e+01
6.107914e+02	-3.397726e+01
6.143194e+02	-3.402442e+01
6.178676e+02	-3.406731e+01
6.214364e+02	-3.412520e+01
6.250258e+02	-3.417521e+01
6.286359e+02	-3.421960e+01
6.322669e+02	-3.427767e+01
6.359189e+02	-3.433245e+01
6.395919e+02	-3.438114e+01
6.432862e+02	-3.443174e+01
6.470017e+02	-3.447359e+01
6.507388e+02	-3.452823e+01
6.544974e+02	-3.458055e+01
6.582778e+02	-3.462222e+01
6.620800e+02	-3.468060e+01
6.659041e+02	-3.472899e+01
6.697504e+02	-3.478125e+01
6.736188e+02	-3.483220e+01
6.775096e+02	-3.487868e+01
6.814229e+02	-3.492832e+01
6.853587e+02	-3.498250e+01
6.893173e+02	-3.503961e+01
6.932988e+02	-3.509009e+01
6.973033e+02	-3.513251e+01
7.013309e+02	-3.518933e+01
