Frequency(Hz)	Magnitude(dB)
1.000000e+01	-2.273254e+00
1.005776e+01	-2.293879e+00
1.011585e+01	-2.314488e+00
1.017428e+01	-2.335424e+00
1.023305e+01	-2.356161e+00
1.029215e+01	-2.377252e+00
1.035160e+01	-2.398505e+00
1.041139e+01	-2.419748e+00
1.047153e+01	-2.441028e+00
1.053201e+01	-2.462700e+00
1.059284e+01	-2.484288e+00
1.065403e+01	-2.506214e+00
1.071556e+01	-2.528409e+00
1.077746e+01	-2.550579e+00
1.083971e+01	-2.572446e+00
1.090232e+01	-2.595244e+00
1.096529e+01	-2.617610e+00
1.102862e+01	-2.640417e+00
1.109232e+01	-2.663475e+00
1.115639e+01	-2.686339e+00
1.122083e+01	-2.709395e+00
1.128564e+01	-2.732808e+00
1.135083e+01	-2.756215e+00
1.141639e+01	-2.779585e+00
1.148233e+01	-2.803445e+00
1.154865e+01	-2.827182e+00
1.161536e+01	-2.851294e+00
1.168245e+01	-2.875620e+00
1.174992e+01	-2.899727e+00
1.181779e+01	-2.924121e+00
1.188605e+01	-2.948658e+00
1.195470e+01	-2.973394e+00
1.202375e+01	-2.998384e+00
1.209320e+01	-3.023408e+00
1.216305e+01	-3.048631e+00
1.223330e+01	-3.073662e+00
1.230396e+01	-3.099120e+00
1.237503e+01	-3.125017e+00
1.244651e+01	-3.150643e+00
1.251840e+01	-3.176420e+00
1.259070e+01	-3.202630e+00
1.266343e+01	-3.228772e+00
1.273657e+01	-3.255015e+00
1.281014e+01	-3.281585e+00
1.288413e+01	-3.308111e+00
1.295855e+01	-3.334757e+00
1.303339e+01	-3.361658e+00
1.310867e+01	-3.388795e+00
1.318439e+01	-3.415711e+00
1.326054e+01	-3.442901e+00
1.333713e+01	-3.470735e+00
1.341417e+01	-3.498318e+00
1.349165e+01	-3.525892e+00
1.356958e+01	-3.553802e+00
1.364795e+01	-3.581792e+00
1.372678e+01	-3.610116e+00
1.380607e+01	-3.638352e+00
1.388581e+01	-3.667012e+00
1.396602e+01	-3.695609e+00
1.404668e+01	-3.724171e+00
1.412782e+01	-3.753238e+00
1.420942e+01	-3.782075e+00
1.429149e+01	-3.811249e+00
1.437404e+01	-3.840629e+00
1.445706e+01	-3.869866e+00
1.454057e+01	-3.899556e+00
1.462455e+01	-3.929173e+00
1.470902e+01	-3.959213e+00
1.479398e+01	-3.989060e+00
1.487943e+01	-4.019273e+00
1.496537e+01	-4.049483e+00
1.505181e+01	-4.079818e+00
1.513875e+01	-4.110279e+00
1.522619e+01	-4.141144e+00
1.531414e+01	-4.172029e+00
1.540259e+01	-4.202871e+00
1.549156e+01	-4.233852e+00
1.558103e+01	-4.265140e+00
1.567103e+01	-4.296483e+00
1.576155e+01	-4.327979e+00
1.585258e+01	-4.359639e+00
1.594415e+01	-4.391344e+00
1.603624e+01	-4.423268e+00
1.612886e+01	-4.455186e+00
1.622202e+01	-4.487514e+00
1.631572e+01	-4.519508e+00
1.640996e+01	-4.552366e+00
1.650474e+01	-4.584786e+00
1.660008e+01	-4.617396e+00
1.669596e+01	-4.650168e+00
1.679239e+01	-4.683244e+00
1.688938e+01	-4.716290e+00
1.698694e+01	-4.749424e+00
1.708505e+01	-4.782617e+00
1.718373e+01	-4.816249e+00
1.728299e+01	-4.849701e+00
1.738281e+01	-4.883656e+00
1.748322e+01	-4.917138e+00
1.758420e+01	-4.951054e+00
1.768576e+01	-4.985404e+00
1.778792e+01	-5.019444e+00
1.789066e+01	-5.053897e+00
1.799399e+01	-5.088462e+00
1.809793e+01	-5.123278e+00
1.820246e+01	-5.157706e+00
1.830760e+01	-5.192438e+00
1.841334e+01	-5.227617e+00
1.851969e+01	-5.262600e+00
1.862666e+01	-5.297766e+00
1.873425e+01	-5.333090e+00
1.884246e+01	-5.368782e+00
1.895129e+01	-5.403975e+00
1.906075e+01	-5.439531e+00
1.917085e+01	-5.475599e+00
1.928158e+01	-5.511457e+00
1.939295e+01	-5.547621e+00
1.950496e+01	-5.583540e+00
1.961762e+01	-5.620068e+00
1.973093e+01	-5.656199e+00
1.984490e+01	-5.692676e+00
1.995952e+01	-5.729273e+00
2.007480e+01	-5.765856e+00
2.019076e+01	-5.802961e+00
2.030738e+01	-5.839962e+00
2.042467e+01	-5.876785e+00
2.054264e+01	-5.914049e+00
2.066130e+01	-5.951269e+00
2.078064e+01	-5.988657e+00
2.090066e+01	-6.026168e+00
2.102139e+01	-6.063918e+00
2.114280e+01	-6.101178e+00
2.126492e+01	-6.139004e+00
2.138775e+01	-6.176817e+00
2.151128e+01	-6.215207e+00
2.163553e+01	-6.253060e+00
2.176050e+01	-6.291452e+00
2.188619e+01	-6.330115e+00
2.201260e+01	-6.368394e+00
2.213974e+01	-6.406768e+00
2.226762e+01	-6.445229e+00
2.239624e+01	-6.484175e+00
2.252560e+01	-6.522911e+00
2.265571e+01	-6.561978e+00
2.278656e+01	-6.600991e+00
2.291818e+01	-6.639862e+00
2.305055e+01	-6.679191e+00
2.318369e+01	-6.718554e+00
2.331760e+01	-6.758021e+00
2.345228e+01	-6.797726e+00
2.358774e+01	-6.837203e+00
2.372398e+01	-6.876770e+00
2.386101e+01	-6.916620e+00
2.399883e+01	-6.956678e+00
2.413745e+01	-6.996062e+00
2.427686e+01	-7.036532e+00
2.441709e+01	-7.076779e+00
2.455812e+01	-7.116875e+00
2.469997e+01	-7.157536e+00
2.484263e+01	-7.197818e+00
2.498612e+01	-7.238463e+00
2.513044e+01	-7.279092e+00
2.527559e+01	-7.320218e+00
2.542158e+01	-7.360612e+00
2.556842e+01	-7.401226e+00
2.571610e+01	-7.442354e+00
2.586463e+01	-7.483265e+00
2.601403e+01	-7.524290e+00
2.616428e+01	-7.565918e+00
2.631541e+01	-7.606821e+00
2.646740e+01	-7.648245e+00
2.662028e+01	-7.690078e+00
2.677404e+01	-7.731613e+00
2.692868e+01	-7.773580e+00
2.708422e+01	-7.815088e+00
2.724066e+01	-7.856639e+00
2.739800e+01	-7.898691e+00
2.755625e+01	-7.940633e+00
2.771541e+01	-7.982703e+00
2.787550e+01	-8.024537e+00
2.803650e+01	-8.066943e+00
2.819844e+01	-8.109168e+00
2.836131e+01	-8.151358e+00
2.852513e+01	-8.194115e+00
2.868989e+01	-8.235734e+00
2.885560e+01	-8.278880e+00
2.902227e+01	-8.321504e+00
2.918990e+01	-8.364055e+00
2.935850e+01	-8.407230e+00
2.952807e+01	-8.449508e+00
2.969863e+01	-8.492760e+00
2.987016e+01	-8.535824e+00
3.004269e+01	-8.579241e+00
3.021622e+01	-8.621697e+00
3.039075e+01	-8.665109e+00
3.056628e+01	-8.708290e+00
3.074283e+01	-8.751675e+00
3.092040e+01	-8.794684e+00
3.109900e+01	-8.838368e+00
3.127862e+01	-8.882063e+00
3.145929e+01	-8.925735e+00
3.164099e+01	-8.968886e+00
3.182375e+01	-9.012490e+00
3.200756e+01	-9.057069e+00
3.219244e+01	-9.100493e+00
3.237838e+01	-9.144511e+00
3.256540e+01	-9.188457e+00
3.275349e+01	-9.232138e+00
3.294268e+01	-9.276445e+00
3.313295e+01	-9.320950e+00
3.332433e+01	-9.364695e+00
3.351681e+01	-9.409316e+00
3.371040e+01	-9.453149e+00
3.390511e+01	-9.497961e+00
3.410094e+01	-9.542451e+00
3.429791e+01	-9.586849e+00
3.449601e+01	-9.631315e+00
3.469526e+01	-9.676055e+00
3.489566e+01	-9.720608e+00
3.509721e+01	-9.765699e+00
3.529993e+01	-9.810138e+00
3.550382e+01	-9.854958e+00
3.570889e+01	-9.899361e+00
3.591515e+01	-9.944407e+00
3.612259e+01	-9.989803e+00
3.633123e+01	-1.003442e+01
3.654108e+01	-1.007963e+01
3.675214e+01	-1.012481e+01
3.696442e+01	-1.016968e+01
3.717792e+01	-1.021570e+01
3.739266e+01	-1.026079e+01
3.760864e+01	-1.030612e+01
3.782587e+01	-1.035128e+01
3.804435e+01	-1.039698e+01
3.826409e+01	-1.044255e+01
3.848510e+01	-1.048832e+01
3.870739e+01	-1.053376e+01
3.893096e+01	-1.057926e+01
3.915583e+01	-1.062487e+01
3.938199e+01	-1.067012e+01
3.960946e+01	-1.071625e+01
3.983824e+01	-1.076181e+01
4.006834e+01	-1.080816e+01
4.029978e+01	-1.085392e+01
4.053255e+01	-1.090013e+01
4.076666e+01	-1.094561e+01
4.100213e+01	-1.099170e+01
4.123896e+01	-1.103768e+01
4.147715e+01	-1.108396e+01
4.171672e+01	-1.112952e+01
4.195767e+01	-1.117602e+01
4.220002e+01	-1.122257e+01
4.244377e+01	-1.126877e+01
4.268892e+01	-1.131514e+01
4.293549e+01	-1.136158e+01
4.318348e+01	-1.140764e+01
4.343291e+01	-1.145442e+01
4.368377e+01	-1.150041e+01
4.393609e+01	-1.154722e+01
4.418986e+01	-1.159438e+01
4.444510e+01	-1.164035e+01
4.470182e+01	-1.168719e+01
4.496001e+01	-1.173411e+01
4.521970e+01	-1.178003e+01
4.548089e+01	-1.182732e+01
4.574358e+01	-1.187402e+01
4.600779e+01	-1.191970e+01
4.627353e+01	-1.196660e+01
4.654081e+01	-1.201448e+01
4.680963e+01	-1.206117e+01
4.708000e+01	-1.210788e+01
4.735193e+01	-1.215494e+01
4.762543e+01	-1.220160e+01
4.790051e+01	-1.224897e+01
4.817719e+01	-1.229609e+01
4.845545e+01	-1.234322e+01
4.873533e+01	-1.239042e+01
4.901682e+01	-1.243793e+01
4.929994e+01	-1.248447e+01
4.958470e+01	-1.253166e+01
4.987110e+01	-1.257906e+01
5.015915e+01	-1.262638e+01
5.044887e+01	-1.267306e+01
5.074026e+01	-1.272101e+01
5.103333e+01	-1.276864e+01
5.132810e+01	-1.281565e+01
5.162457e+01	-1.286403e+01
5.192275e+01	-1.291029e+01
5.222265e+01	-1.295938e+01
5.252429e+01	-1.300655e+01
5.282767e+01	-1.305307e+01
5.313280e+01	-1.310104e+01
5.343969e+01	-1.314866e+01
5.374836e+01	-1.319617e+01
5.405880e+01	-1.324364e+01
5.437105e+01	-1.329223e+01
5.468509e+01	-1.333949e+01
5.500095e+01	-1.338730e+01
5.531863e+01	-1.343453e+01
5.563815e+01	-1.348221e+01
5.595951e+01	-1.353022e+01
5.628273e+01	-1.357840e+01
5.660782e+01	-1.362532e+01
5.693479e+01	-1.367308e+01
5.726364e+01	-1.372114e+01
5.759439e+01	-1.376881e+01
5.792705e+01	-1.381691e+01
5.826164e+01	-1.386509e+01
5.859815e+01	-1.391348e+01
5.893662e+01	-1.396205e+01
5.927703e+01	-1.401029e+01
5.961941e+01	-1.405798e+01
5.996377e+01	-1.410548e+01
6.031012e+01	-1.415351e+01
6.065847e+01	-1.420134e+01
6.100883e+01	-1.424883e+01
6.136121e+01	-1.429805e+01
6.171563e+01	-1.434626e+01
6.207210e+01	-1.439404e+01
6.243063e+01	-1.444231e+01
6.279122e+01	-1.449117e+01
6.315390e+01	-1.453886e+01
6.351868e+01	-1.458700e+01
6.388556e+01	-1.463562e+01
6.425456e+01	-1.468405e+01
6.462569e+01	-1.473295e+01
6.499897e+01	-1.478059e+01
6.537440e+01	-1.482894e+01
6.575200e+01	-1.487829e+01
6.613178e+01	-1.492584e+01
6.651375e+01	-1.497511e+01
6.689793e+01	-1.502301e+01
6.728433e+01	-1.507049e+01
6.767297e+01	-1.511947e+01
6.806384e+01	-1.516832e+01
6.845698e+01	-1.521743e+01
6.885238e+01	-1.526579e+01
6.925007e+01	-1.531327e+01
6.965005e+01	-1.536230e+01
7.005235e+01	-1.541068e+01
7.045697e+01	-1.545941e+01
7.086393e+01	-1.550852e+01
7.127323e+01	-1.555682e+01
7.168490e+01	-1.560529e+01
7.209895e+01	-1.565431e+01
7.251539e+01	-1.570246e+01
7.293424e+01	-1.575207e+01
7.335551e+01	-1.580038e+01
7.377920e+01	-1.584890e+01
7.420535e+01	-1.589729e+01
7.463396e+01	-1.594674e+01
7.506504e+01	-1.599520e+01
7.549861e+01	-1.604322e+01
7.593469e+01	-1.609314e+01
7.637328e+01	-1.614122e+01
7.681441e+01	-1.618999e+01
7.725809e+01	-1.623915e+01
7.770433e+01	-1.628819e+01
7.815315e+01	-1.633689e+01
7.860456e+01	-1.638656e+01
7.905857e+01	-1.643433e+01
7.951521e+01	-1.648362e+01
7.997449e+01	-1.653237e+01
8.043642e+01	-1.658212e+01
8.090102e+01	-1.663025e+01
8.136830e+01	-1.667949e+01
8.183828e+01	-1.672773e+01
8.231097e+01	-1.677673e+01
8.278640e+01	-1.682646e+01
8.326457e+01	-1.687570e+01
8.374550e+01	-1.692457e+01
8.422921e+01	-1.697347e+01
8.471572e+01	-1.702231e+01
8.520503e+01	-1.707121e+01
8.569717e+01	-1.712050e+01
8.619215e+01	-1.716916e+01
8.669000e+01	-1.721828e+01
8.719071e+01	-1.726836e+01
8.769432e+01	-1.731653e+01
8.820084e+01	-1.736674e+01
8.871029e+01	-1.741431e+01
8.922267e+01	-1.746340e+01
8.973802e+01	-1.751269e+01
9.025634e+01	-1.756275e+01
9.077766e+01	-1.761290e+01
9.130199e+01	-1.766072e+01
9.182935e+01	-1.770927e+01
9.235975e+01	-1.775952e+01
9.289321e+01	-1.780834e+01
9.342976e+01	-1.785603e+01
9.396941e+01	-1.790741e+01
9.451217e+01	-1.795592e+01
9.505807e+01	-1.800576e+01
9.560712e+01	-1.805391e+01
9.615934e+01	-1.810325e+01
9.671476e+01	-1.815212e+01
9.727338e+01	-1.820223e+01
9.783522e+01	-1.825155e+01
9.840032e+01	-1.830115e+01
9.896867e+01	-1.835198e+01
9.954031e+01	-1.839936e+01
1.001153e+02	-1.844774e+01
1.006935e+02	-1.849884e+01
1.012751e+02	-1.854579e+01
1.018601e+02	-1.859552e+01
1.024484e+02	-1.864408e+01
1.030402e+02	-1.869464e+01
1.036353e+02	-1.874527e+01
1.042339e+02	-1.879399e+01
1.048360e+02	-1.884306e+01
1.054415e+02	-1.889247e+01
1.060505e+02	-1.894186e+01
1.066631e+02	-1.899051e+01
1.072791e+02	-1.904109e+01
1.078988e+02	-1.908966e+01
1.085220e+02	-1.914135e+01
1.091488e+02	-1.919056e+01
1.097793e+02	-1.923792e+01
1.104133e+02	-1.928617e+01
1.110511e+02	-1.933673e+01
1.116925e+02	-1.938650e+01
1.123376e+02	-1.943674e+01
1.129865e+02	-1.948535e+01
1.136391e+02	-1.953465e+01
1.142955e+02	-1.958441e+01
1.149556e+02	-1.963410e+01
1.156196e+02	-1.968331e+01
1.162874e+02	-1.973297e+01
1.169591e+02	-1.978140e+01
1.176347e+02	-1.983283e+01
1.183141e+02	-1.988156e+01
1.189975e+02	-1.993262e+01
1.196848e+02	-1.998091e+01
1.203761e+02	-2.002913e+01
1.210714e+02	-2.007989e+01
1.217707e+02	-2.012974e+01
1.224740e+02	-2.017843e+01
1.231814e+02	-2.022902e+01
1.238929e+02	-2.027815e+01
1.246085e+02	-2.032888e+01
1.253283e+02	-2.037824e+01
1.260522e+02	-2.042681e+01
1.267802e+02	-2.047707e+01
1.275125e+02	-2.052706e+01
1.282490e+02	-2.057521e+01
1.289898e+02	-2.062651e+01
1.297348e+02	-2.067460e+01
1.304842e+02	-2.072390e+01
1.312378e+02	-2.077524e+01
1.319959e+02	-2.082464e+01
1.327583e+02	-2.087423e+01
1.335251e+02	-2.092373e+01
1.342963e+02	-2.097338e+01
1.350720e+02	-2.102199e+01
1.358522e+02	-2.107134e+01
1.366368e+02	-2.112191e+01
1.374260e+02	-2.117268e+01
1.382198e+02	-2.122160e+01
1.390182e+02	-2.127075e+01
1.398211e+02	-2.132047e+01
1.406287e+02	-2.137049e+01
1.414410e+02	-2.141978e+01
1.422579e+02	-2.146960e+01
1.430796e+02	-2.151854e+01
1.439060e+02	-2.156707e+01
1.447372e+02	-2.161871e+01
1.455732e+02	-2.166899e+01
1.464141e+02	-2.171861e+01
1.472597e+02	-2.176781e+01
1.481103e+02	-2.181898e+01
1.489658e+02	-2.186596e+01
1.498262e+02	-2.191776e+01
1.506916e+02	-2.196550e+01
1.515620e+02	-2.201670e+01
1.524374e+02	-2.206795e+01
1.533179e+02	-2.211511e+01
1.542034e+02	-2.216605e+01
1.550941e+02	-2.221349e+01
1.559899e+02	-2.226549e+01
1.568909e+02	-2.231443e+01
1.577971e+02	-2.236397e+01
1.587085e+02	-2.241522e+01
1.596252e+02	-2.246298e+01
1.605472e+02	-2.251446e+01
1.614745e+02	-2.256445e+01
1.624072e+02	-2.261458e+01
1.633453e+02	-2.266354e+01
1.642887e+02	-2.271262e+01
1.652377e+02	-2.276293e+01
1.661921e+02	-2.281145e+01
1.671520e+02	-2.286294e+01
1.681175e+02	-2.291145e+01
1.690885e+02	-2.296379e+01
1.700651e+02	-2.301244e+01
1.710474e+02	-2.306302e+01
1.720354e+02	-2.311230e+01
1.730291e+02	-2.316301e+01
1.740285e+02	-2.321233e+01
1.750337e+02	-2.325965e+01
1.760446e+02	-2.331109e+01
1.770615e+02	-2.336093e+01
1.780842e+02	-2.340888e+01
1.791128e+02	-2.345968e+01
1.801473e+02	-2.350862e+01
1.811878e+02	-2.355768e+01
1.822344e+02	-2.360942e+01
1.832870e+02	-2.365959e+01
1.843456e+02	-2.370871e+01
1.854104e+02	-2.375846e+01
1.864813e+02	-2.380976e+01
1.875584e+02	-2.385717e+01
1.886418e+02	-2.390851e+01
1.897313e+02	-2.395807e+01
1.908272e+02	-2.400843e+01
1.919294e+02	-2.405646e+01
1.930380e+02	-2.410603e+01
1.941530e+02	-2.415776e+01
1.952744e+02	-2.420708e+01
1.964023e+02	-2.425867e+01
1.975367e+02	-2.430873e+01
1.986777e+02	-2.435672e+01
1.998252e+02	-2.440827e+01
2.009794e+02	-2.445550e+01
2.021403e+02	-2.450657e+01
2.033078e+02	-2.455749e+01
2.044821e+02	-2.460546e+01
2.056632e+02	-2.465693e+01
2.068511e+02	-2.470511e+01
2.080459e+02	-2.475655e+01
2.092475e+02	-2.481024e+01
2.104561e+02	-2.485637e+01
2.116717e+02	-2.490693e+01
2.128943e+02	-2.495783e+01
2.141240e+02	-2.500736e+01
2.153608e+02	-2.505763e+01
2.166047e+02	-2.510625e+01
2.178558e+02	-2.515670e+01
2.191141e+02	-2.520496e+01
2.203797e+02	-2.525537e+01
2.216526e+02	-2.530564e+01
2.229329e+02	-2.535581e+01
2.242205e+02	-2.540389e+01
2.255156e+02	-2.545461e+01
2.268182e+02	-2.550524e+01
2.281283e+02	-2.555395e+01
2.294459e+02	-2.560643e+01
2.307712e+02	-2.565378e+01
2.321041e+02	-2.570532e+01
2.334447e+02	-2.575410e+01
2.347931e+02	-2.580345e+01
2.361493e+02	-2.585656e+01
2.375133e+02	-2.590340e+01
2.388851e+02	-2.595529e+01
2.402649e+02	-2.600318e+01
2.416527e+02	-2.605499e+01
2.430484e+02	-2.610400e+01
2.444523e+02	-2.615202e+01
2.458642e+02	-2.620665e+01
2.472843e+02	-2.625686e+01
2.487126e+02	-2.630804e+01
2.501492e+02	-2.635402e+01
2.515940e+02	-2.640614e+01
2.530472e+02	-2.645643e+01
2.545088e+02	-2.650678e+01
2.559789e+02	-2.655407e+01
2.574574e+02	-2.660440e+01
2.589444e+02	-2.665429e+01
2.604401e+02	-2.670059e+01
2.619444e+02	-2.675451e+01
2.634574e+02	-2.680254e+01
2.649791e+02	-2.685240e+01
2.665096e+02	-2.690213e+01
2.680489e+02	-2.695559e+01
2.695972e+02	-2.700192e+01
2.711544e+02	-2.705379e+01
2.727205e+02	-2.710615e+01
2.742958e+02	-2.715523e+01
2.758801e+02	-2.720368e+01
2.774736e+02	-2.725269e+01
2.790762e+02	-2.730333e+01
2.806882e+02	-2.735054e+01
2.823094e+02	-2.740269e+01
2.839400e+02	-2.745123e+01
2.855800e+02	-2.750584e+01
2.872295e+02	-2.755438e+01
2.888886e+02	-2.760189e+01
2.905572e+02	-2.765442e+01
2.922354e+02	-2.770152e+01
2.939234e+02	-2.775674e+01
2.956211e+02	-2.780482e+01
2.973286e+02	-2.785480e+01
2.990459e+02	-2.790600e+01
3.007732e+02	-2.795267e+01
3.025104e+02	-2.800151e+01
3.042577e+02	-2.805256e+01
3.060151e+02	-2.810892e+01
3.077826e+02	-2.815541e+01
3.095604e+02	-2.820424e+01
3.113484e+02	-2.825463e+01
3.131467e+02	-2.830566e+01
3.149554e+02	-2.835325e+01
3.167746e+02	-2.840566e+01
3.186043e+02	-2.845780e+01
3.204445e+02	-2.850202e+01
3.222954e+02	-2.855438e+01
3.241570e+02	-2.860553e+01
3.260293e+02	-2.865571e+01
3.279124e+02	-2.870455e+01
3.298064e+02	-2.875416e+01
3.317114e+02	-2.880337e+01
3.336273e+02	-2.885717e+01
3.355544e+02	-2.890306e+01
3.374925e+02	-2.895268e+01
3.394418e+02	-2.900590e+01
3.414024e+02	-2.905609e+01
3.433744e+02	-2.911067e+01
3.453577e+02	-2.915660e+01
3.473525e+02	-2.919902e+01
3.493588e+02	-2.925835e+01
3.513766e+02	-2.930843e+01
3.534062e+02	-2.935433e+01
3.554474e+02	-2.940944e+01
3.575005e+02	-2.945766e+01
3.595654e+02	-2.950305e+01
3.616422e+02	-2.955426e+01
3.637311e+02	-2.960290e+01
3.658320e+02	-2.965450e+01
3.679450e+02	-2.970691e+01
3.700702e+02	-2.975748e+01
3.722077e+02	-2.980696e+01
3.743576e+02	-2.985266e+01
3.765199e+02	-2.990574e+01
3.786946e+02	-2.996023e+01
3.808820e+02	-3.000059e+01
3.830819e+02	-3.005369e+01
3.852946e+02	-3.011170e+01
3.875200e+02	-3.015812e+01
3.897583e+02	-3.020458e+01
3.920096e+02	-3.025455e+01
3.942738e+02	-3.030910e+01
3.965511e+02	-3.035523e+01
3.988416e+02	-3.040741e+01
4.011452e+02	-3.045835e+01
4.034622e+02	-3.050940e+01
4.057926e+02	-3.055830e+01
4.081365e+02	-3.060721e+01
4.104938e+02	-3.065159e+01
4.128648e+02	-3.071348e+01
4.152495e+02	-3.075912e+01
4.176480e+02	-3.080562e+01
4.200603e+02	-3.085739e+01
4.224866e+02	-3.090858e+01
4.249268e+02	-3.095936e+01
4.273812e+02	-3.100637e+01
4.298497e+02	-3.106190e+01
4.323325e+02	-3.111099e+01
4.348297e+02	-3.115889e+01
4.373412e+02	-3.121039e+01
4.398673e+02	-3.126054e+01
4.424079e+02	-3.131039e+01
4.449633e+02	-3.136096e+01
4.475334e+02	-3.140664e+01
4.501183e+02	-3.145902e+01
4.527182e+02	-3.151456e+01
4.553330e+02	-3.156384e+01
4.579630e+02	-3.161156e+01
4.606082e+02	-3.166588e+01
4.632687e+02	-3.171288e+01
4.659445e+02	-3.176116e+01
4.686358e+02	-3.180929e+01
4.713426e+02	-3.185581e+01
4.740650e+02	-3.190817e+01
4.768032e+02	-3.195272e+01
4.795572e+02	-3.201707e+01
4.823271e+02	-3.205934e+01
4.851130e+02	-3.211111e+01
4.879150e+02	-3.216280e+01
4.907332e+02	-3.221617e+01
4.935676e+02	-3.226305e+01
4.964185e+02	-3.231282e+01
4.992858e+02	-3.236250e+01
5.021696e+02	-3.241874e+01
5.050701e+02	-3.246253e+01
5.079874e+02	-3.251694e+01
5.109215e+02	-3.256098e+01
5.138726e+02	-3.261718e+01
5.168407e+02	-3.266493e+01
5.198259e+02	-3.271186e+01
5.228284e+02	-3.276533e+01
5.258482e+02	-3.281663e+01
5.288855e+02	-3.286946e+01
5.319403e+02	-3.292054e+01
5.350128e+02	-3.296820e+01
5.381030e+02	-3.301887e+01
5.412111e+02	-3.307375e+01
5.443371e+02	-3.311681e+01
5.474812e+02	-3.316833e+01
5.506434e+02	-3.322507e+01
5.538239e+02	-3.326796e+01
5.570228e+02	-3.332752e+01
5.602401e+02	-3.337527e+01
5.634760e+02	-3.342776e+01
5.667306e+02	-3.346911e+01
5.700040e+02	-3.351940e+01
5.732964e+02	-3.356715e+01
5.766077e+02	-3.362687e+01
5.799382e+02	-3.366754e+01
5.832879e+02	-3.371814e+01
5.866569e+02	-3.377666e+01
5.900454e+02	-3.382219e+01
5.934535e+02	-3.387702e+01
5.968813e+02	-3.391986e+01
6.003288e+02	-3.397386e+01
6.037963e+02	-3.401925e+01
6.072838e+02	-3.407574e+01
6.107914e+02	-3.412424e+01
6.143194e+02	-3.417353e+01
6.178676e+02	-3.422901e+01
6.214364e+02	-3.426905e+01
6.250258e+02	-3.432189e+01
6.286359e+02	-3.437770e+01
6.322669e+02	-3.443055e+01
6.359189e+02	-3.447787e+01
6.395919e+02	-3.452510e+01
6.432862e+02	-3.458085e+01
6.470017e+02	-3.462855e+01
6.507388e+02	-3.467908e+01
6.544974e+02	-3.473159e+01
6.582778e+02	-3.479253e+01
6.620800e+02	-3.483294e+01
6.659041e+02	-3.487503e+01
6.697504e+02	-3.491909e+01
6.736188e+02	-3.498209e+01
6.775096e+02	-3.502203e+01
6.814229e+02	-3.507927e+01
6.853587e+02	-3.512981e+01
6.893173e+02	-3.517754e+01
6.932988e+02	-3.522935e+01
6.973033e+02	-3.528938e+01
7.013309e+02	-3.533920e+01
