Frequency(Hz)	Magnitude(dB)
1.000000e+01	-1.617554e-05
1.005776e+01	-1.636294e-05
1.011585e+01	-1.655250e-05
1.017428e+01	-1.674427e-05
1.023305e+01	-1.693826e-05
1.029215e+01	-1.713449e-05
1.035160e+01	-1.733300e-05
1.041139e+01	-1.753380e-05
1.047153e+01	-1.773694e-05
1.053201e+01	-1.794243e-05
1.059284e+01	-1.815029e-05
1.065403e+01	-1.836057e-05
1.071556e+01	-1.857328e-05
1.077746e+01	-1.878846e-05
1.083971e+01	-1.900613e-05
1.090232e+01	-1.922632e-05
1.096529e+01	-1.944906e-05
1.102862e+01	-1.967438e-05
1.109232e+01	-1.990231e-05
1.115639e+01	-2.013289e-05
1.122083e+01	-2.036613e-05
1.128564e+01	-2.060208e-05
1.135083e+01	-2.084076e-05
1.141639e+01	-2.108220e-05
1.148233e+01	-2.132645e-05
1.154865e+01	-2.157352e-05
1.161536e+01	-2.182345e-05
1.168245e+01	-2.207628e-05
1.174992e+01	-2.233204e-05
1.181779e+01	-2.259076e-05
1.188605e+01	-2.285248e-05
1.195470e+01	-2.311724e-05
1.202375e+01	-2.338505e-05
1.209320e+01	-2.365598e-05
1.216305e+01	-2.393004e-05
1.223330e+01	-2.420727e-05
1.230396e+01	-2.448772e-05
1.237503e+01	-2.477142e-05
1.244651e+01	-2.505840e-05
1.251840e+01	-2.534871e-05
1.259070e+01	-2.564238e-05
1.266343e+01	-2.593945e-05
1.273657e+01	-2.623997e-05
1.281014e+01	-2.654396e-05
1.288413e+01	-2.685148e-05
1.295855e+01	-2.716256e-05
1.303339e+01	-2.747725e-05
1.310867e+01	-2.779558e-05
1.318439e+01	-2.811760e-05
1.326054e+01	-2.844334e-05
1.333713e+01	-2.877287e-05
1.341417e+01	-2.910621e-05
1.349165e+01	-2.944341e-05
1.356958e+01	-2.978452e-05
1.364795e+01	-3.012958e-05
1.372678e+01	-3.047864e-05
1.380607e+01	-3.083174e-05
1.388581e+01	-3.118893e-05
1.396602e+01	-3.155027e-05
1.404668e+01	-3.191578e-05
1.412782e+01	-3.228553e-05
1.420942e+01	-3.265957e-05
1.429149e+01	-3.303794e-05
1.437404e+01	-3.342069e-05
1.445706e+01	-3.380788e-05
1.454057e+01	-3.419955e-05
1.462455e+01	-3.459576e-05
1.470902e+01	-3.499656e-05
1.479398e+01	-3.540200e-05
1.487943e+01	-3.581214e-05
1.496537e+01	-3.622704e-05
1.505181e+01	-3.664673e-05
1.513875e+01	-3.707129e-05
1.522619e+01	-3.750077e-05
1.531414e+01	-3.793523e-05
1.540259e+01	-3.837472e-05
1.549156e+01	-3.881930e-05
1.558103e+01	-3.926903e-05
1.567103e+01	-3.972397e-05
1.576155e+01	-4.018418e-05
1.585258e+01	-4.064972e-05
1.594415e+01	-4.112066e-05
1.603624e+01	-4.159705e-05
1.612886e+01	-4.207896e-05
1.622202e+01	-4.256646e-05
1.631572e+01	-4.305960e-05
1.640996e+01	-4.355845e-05
1.650474e+01	-4.406309e-05
1.660008e+01	-4.457357e-05
1.669596e+01	-4.508996e-05
1.679239e+01	-4.561234e-05
1.688938e+01	-4.614077e-05
1.698694e+01	-4.667532e-05
1.708505e+01	-4.721606e-05
1.718373e+01	-4.776307e-05
1.728299e+01	-4.831642e-05
1.738281e+01	-4.887617e-05
1.748322e+01	-4.944241e-05
1.758420e+01	-5.001521e-05
1.768576e+01	-5.059465e-05
1.778792e+01	-5.118080e-05
1.789066e+01	-5.177374e-05
1.799399e+01	-5.237355e-05
1.809793e+01	-5.298031e-05
1.820246e+01	-5.359410e-05
1.830760e+01	-5.421500e-05
1.841334e+01	-5.484309e-05
1.851969e+01	-5.547846e-05
1.862666e+01	-5.612119e-05
1.873425e+01	-5.677136e-05
1.884246e+01	-5.742907e-05
1.895129e+01	-5.809440e-05
1.906075e+01	-5.876743e-05
1.917085e+01	-5.944826e-05
1.928158e+01	-6.013698e-05
1.939295e+01	-6.083368e-05
1.950496e+01	-6.153845e-05
1.961762e+01	-6.225139e-05
1.973093e+01	-6.297258e-05
1.984490e+01	-6.370213e-05
1.995952e+01	-6.444013e-05
2.007480e+01	-6.518669e-05
2.019076e+01	-6.594189e-05
2.030738e+01	-6.670584e-05
2.042467e+01	-6.747864e-05
2.054264e+01	-6.826039e-05
2.066130e+01	-6.905120e-05
2.078064e+01	-6.985117e-05
2.090066e+01	-7.066041e-05
2.102139e+01	-7.147902e-05
2.114280e+01	-7.230712e-05
2.126492e+01	-7.314481e-05
2.138775e+01	-7.399221e-05
2.151128e+01	-7.484942e-05
2.163553e+01	-7.571656e-05
2.176050e+01	-7.659375e-05
2.188619e+01	-7.748110e-05
2.201260e+01	-7.837874e-05
2.213974e+01	-7.928677e-05
2.226762e+01	-8.020532e-05
2.239624e+01	-8.113451e-05
2.252560e+01	-8.207447e-05
2.265571e+01	-8.302531e-05
2.278656e+01	-8.398718e-05
2.291818e+01	-8.496018e-05
2.305055e+01	-8.594446e-05
2.318369e+01	-8.694014e-05
2.331760e+01	-8.794736e-05
2.345228e+01	-8.896624e-05
2.358774e+01	-8.999693e-05
2.372398e+01	-9.103956e-05
2.386101e+01	-9.209426e-05
2.399883e+01	-9.316119e-05
2.413745e+01	-9.424048e-05
2.427686e+01	-9.533227e-05
2.441709e+01	-9.643671e-05
2.455812e+01	-9.755394e-05
2.469997e+01	-9.868412e-05
2.484263e+01	-9.982739e-05
2.498612e+01	-1.009839e-04
2.513044e+01	-1.021538e-04
2.527559e+01	-1.033373e-04
2.542158e+01	-1.045345e-04
2.556842e+01	-1.057455e-04
2.571610e+01	-1.069706e-04
2.586463e+01	-1.082098e-04
2.601403e+01	-1.094635e-04
2.616428e+01	-1.107316e-04
2.631541e+01	-1.120145e-04
2.646740e+01	-1.133122e-04
2.662028e+01	-1.146249e-04
2.677404e+01	-1.159528e-04
2.692868e+01	-1.172962e-04
2.708422e+01	-1.186551e-04
2.724066e+01	-1.200297e-04
2.739800e+01	-1.214203e-04
2.755625e+01	-1.228269e-04
2.771541e+01	-1.242499e-04
2.787550e+01	-1.256893e-04
2.803650e+01	-1.271455e-04
2.819844e+01	-1.286185e-04
2.836131e+01	-1.301085e-04
2.852513e+01	-1.316158e-04
2.868989e+01	-1.331406e-04
2.885560e+01	-1.346831e-04
2.902227e+01	-1.362434e-04
2.918990e+01	-1.378218e-04
2.935850e+01	-1.394184e-04
2.952807e+01	-1.410336e-04
2.969863e+01	-1.426675e-04
2.987016e+01	-1.443203e-04
3.004269e+01	-1.459923e-04
3.021622e+01	-1.476836e-04
3.039075e+01	-1.493946e-04
3.056628e+01	-1.511253e-04
3.074283e+01	-1.528761e-04
3.092040e+01	-1.546472e-04
3.109900e+01	-1.564388e-04
3.127862e+01	-1.582511e-04
3.145929e+01	-1.600845e-04
3.164099e+01	-1.619391e-04
3.182375e+01	-1.638151e-04
3.200756e+01	-1.657129e-04
3.219244e+01	-1.676327e-04
3.237838e+01	-1.695748e-04
3.256540e+01	-1.715393e-04
3.275349e+01	-1.735266e-04
3.294268e+01	-1.755369e-04
3.313295e+01	-1.775705e-04
3.332433e+01	-1.796277e-04
3.351681e+01	-1.817087e-04
3.371040e+01	-1.838138e-04
3.390511e+01	-1.859433e-04
3.410094e+01	-1.880974e-04
3.429791e+01	-1.902765e-04
3.449601e+01	-1.924809e-04
3.469526e+01	-1.947108e-04
3.489566e+01	-1.969665e-04
3.509721e+01	-1.992484e-04
3.529993e+01	-2.015567e-04
3.550382e+01	-2.038917e-04
3.570889e+01	-2.062538e-04
3.591515e+01	-2.086432e-04
3.612259e+01	-2.110604e-04
3.633123e+01	-2.135055e-04
3.654108e+01	-2.159790e-04
3.675214e+01	-2.184811e-04
3.696442e+01	-2.210122e-04
3.717792e+01	-2.235726e-04
3.739266e+01	-2.261627e-04
3.760864e+01	-2.287828e-04
3.782587e+01	-2.314332e-04
3.804435e+01	-2.341144e-04
3.826409e+01	-2.368266e-04
3.848510e+01	-2.395702e-04
3.870739e+01	-2.423456e-04
3.893096e+01	-2.451532e-04
3.915583e+01	-2.479932e-04
3.938199e+01	-2.508662e-04
3.960946e+01	-2.537725e-04
3.983824e+01	-2.567124e-04
4.006834e+01	-2.596864e-04
4.029978e+01	-2.626949e-04
4.053255e+01	-2.657382e-04
4.076666e+01	-2.688167e-04
4.100213e+01	-2.719310e-04
4.123896e+01	-2.750813e-04
4.147715e+01	-2.782680e-04
4.171672e+01	-2.814918e-04
4.195767e+01	-2.847528e-04
4.220002e+01	-2.880516e-04
4.244377e+01	-2.913887e-04
4.268892e+01	-2.947644e-04
4.293549e+01	-2.981792e-04
4.318348e+01	-3.016336e-04
4.343291e+01	-3.051280e-04
4.368377e+01	-3.086628e-04
4.393609e+01	-3.122386e-04
4.418986e+01	-3.158559e-04
4.444510e+01	-3.195150e-04
4.470182e+01	-3.232166e-04
4.496001e+01	-3.269610e-04
4.521970e+01	-3.307488e-04
4.548089e+01	-3.345804e-04
4.574358e+01	-3.384565e-04
4.600779e+01	-3.423774e-04
4.627353e+01	-3.463438e-04
4.654081e+01	-3.503561e-04
4.680963e+01	-3.544150e-04
4.708000e+01	-3.585208e-04
4.735193e+01	-3.626742e-04
4.762543e+01	-3.668757e-04
4.790051e+01	-3.711258e-04
4.817719e+01	-3.754253e-04
4.845545e+01	-3.797745e-04
4.873533e+01	-3.841741e-04
4.901682e+01	-3.886246e-04
4.929994e+01	-3.931268e-04
4.958470e+01	-3.976810e-04
4.987110e+01	-4.022881e-04
5.015915e+01	-4.069485e-04
5.044887e+01	-4.116628e-04
5.074026e+01	-4.164318e-04
5.103333e+01	-4.212561e-04
5.132810e+01	-4.261362e-04
5.162457e+01	-4.310729e-04
5.192275e+01	-4.360667e-04
5.222265e+01	-4.411184e-04
5.252429e+01	-4.462286e-04
5.282767e+01	-4.513981e-04
5.313280e+01	-4.566274e-04
5.343969e+01	-4.619172e-04
5.374836e+01	-4.672684e-04
5.405880e+01	-4.726815e-04
5.437105e+01	-4.781574e-04
5.468509e+01	-4.836966e-04
5.500095e+01	-4.893001e-04
5.531863e+01	-4.949684e-04
5.563815e+01	-5.007025e-04
5.595951e+01	-5.065029e-04
5.628273e+01	-5.123705e-04
5.660782e+01	-5.183061e-04
5.693479e+01	-5.243105e-04
5.726364e+01	-5.303844e-04
5.759439e+01	-5.365287e-04
5.792705e+01	-5.427441e-04
5.826164e+01	-5.490315e-04
5.859815e+01	-5.553918e-04
5.893662e+01	-5.618258e-04
5.927703e+01	-5.683343e-04
5.961941e+01	-5.749181e-04
5.996377e+01	-5.815783e-04
6.031012e+01	-5.883156e-04
6.065847e+01	-5.951309e-04
6.100883e+01	-6.020252e-04
6.136121e+01	-6.089993e-04
6.171563e+01	-6.160542e-04
6.207210e+01	-6.231909e-04
6.243063e+01	-6.304102e-04
6.279122e+01	-6.377131e-04
6.315390e+01	-6.451007e-04
6.351868e+01	-6.525738e-04
6.388556e+01	-6.601334e-04
6.425456e+01	-6.677807e-04
6.462569e+01	-6.755165e-04
6.499897e+01	-6.833419e-04
6.537440e+01	-6.912580e-04
6.575200e+01	-6.992658e-04
6.613178e+01	-7.073663e-04
6.651375e+01	-7.155607e-04
6.689793e+01	-7.238499e-04
6.728433e+01	-7.322352e-04
6.767297e+01	-7.407176e-04
6.806384e+01	-7.492983e-04
6.845698e+01	-7.579784e-04
6.885238e+01	-7.667590e-04
6.925007e+01	-7.756413e-04
6.965005e+01	-7.846265e-04
7.005235e+01	-7.937158e-04
7.045697e+01	-8.029104e-04
7.086393e+01	-8.122114e-04
7.127323e+01	-8.216202e-04
7.168490e+01	-8.311380e-04
7.209895e+01	-8.407661e-04
7.251539e+01	-8.505056e-04
7.293424e+01	-8.603580e-04
7.335551e+01	-8.703245e-04
7.377920e+01	-8.804064e-04
7.420535e+01	-8.906051e-04
7.463396e+01	-9.009219e-04
7.506504e+01	-9.113583e-04
7.549861e+01	-9.219155e-04
7.593469e+01	-9.325950e-04
7.637328e+01	-9.433982e-04
7.681441e+01	-9.543265e-04
7.725809e+01	-9.653814e-04
7.770433e+01	-9.765643e-04
7.815315e+01	-9.878768e-04
7.860456e+01	-9.993203e-04
7.905857e+01	-1.010896e-03
7.951521e+01	-1.022606e-03
7.997449e+01	-1.034452e-03
8.043642e+01	-1.046435e-03
8.090102e+01	-1.058557e-03
8.136830e+01	-1.070819e-03
8.183828e+01	-1.083223e-03
8.231097e+01	-1.095771e-03
8.278640e+01	-1.108464e-03
8.326457e+01	-1.121305e-03
8.374550e+01	-1.134293e-03
8.422921e+01	-1.147433e-03
8.471572e+01	-1.160724e-03
8.520503e+01	-1.174170e-03
8.569717e+01	-1.187771e-03
8.619215e+01	-1.201530e-03
8.669000e+01	-1.215448e-03
8.719071e+01	-1.229527e-03
8.769432e+01	-1.243770e-03
8.820084e+01	-1.258177e-03
8.871029e+01	-1.272751e-03
8.922267e+01	-1.287494e-03
8.973802e+01	-1.302408e-03
9.025634e+01	-1.317494e-03
9.077766e+01	-1.332755e-03
9.130199e+01	-1.348193e-03
9.182935e+01	-1.363810e-03
9.235975e+01	-1.379608e-03
9.289321e+01	-1.395588e-03
9.342976e+01	-1.411754e-03
9.396941e+01	-1.428107e-03
9.451217e+01	-1.444649e-03
9.505807e+01	-1.461383e-03
9.560712e+01	-1.478311e-03
9.615934e+01	-1.495434e-03
9.671476e+01	-1.512756e-03
9.727338e+01	-1.530279e-03
9.783522e+01	-1.548004e-03
9.840032e+01	-1.565935e-03
9.896867e+01	-1.584074e-03
9.954031e+01	-1.602422e-03
1.001153e+02	-1.620983e-03
1.006935e+02	-1.639759e-03
1.012751e+02	-1.658753e-03
1.018601e+02	-1.677966e-03
1.024484e+02	-1.697402e-03
1.030402e+02	-1.717063e-03
1.036353e+02	-1.736951e-03
1.042339e+02	-1.757070e-03
1.048360e+02	-1.777422e-03
1.054415e+02	-1.798010e-03
1.060505e+02	-1.818836e-03
1.066631e+02	-1.839903e-03
1.072791e+02	-1.861215e-03
1.078988e+02	-1.882773e-03
1.085220e+02	-1.904580e-03
1.091488e+02	-1.926640e-03
1.097793e+02	-1.948956e-03
1.104133e+02	-1.971530e-03
1.110511e+02	-1.994365e-03
1.116925e+02	-2.017465e-03
1.123376e+02	-2.040833e-03
1.129865e+02	-2.064471e-03
1.136391e+02	-2.088382e-03
1.142955e+02	-2.112571e-03
1.149556e+02	-2.137040e-03
1.156196e+02	-2.161792e-03
1.162874e+02	-2.186830e-03
1.169591e+02	-2.212159e-03
1.176347e+02	-2.237781e-03
1.183141e+02	-2.263699e-03
1.189975e+02	-2.289918e-03
1.196848e+02	-2.316440e-03
1.203761e+02	-2.343269e-03
1.210714e+02	-2.370409e-03
1.217707e+02	-2.397864e-03
1.224740e+02	-2.425636e-03
1.231814e+02	-2.453729e-03
1.238929e+02	-2.482148e-03
1.246085e+02	-2.510896e-03
1.253283e+02	-2.539977e-03
1.260522e+02	-2.569395e-03
1.267802e+02	-2.599153e-03
1.275125e+02	-2.629256e-03
1.282490e+02	-2.659707e-03
1.289898e+02	-2.690511e-03
1.297348e+02	-2.721671e-03
1.304842e+02	-2.753193e-03
1.312378e+02	-2.785079e-03
1.319959e+02	-2.817334e-03
1.327583e+02	-2.849963e-03
1.335251e+02	-2.882970e-03
1.342963e+02	-2.916359e-03
1.350720e+02	-2.950134e-03
1.358522e+02	-2.984300e-03
1.366368e+02	-3.018862e-03
1.374260e+02	-3.053824e-03
1.382198e+02	-3.089191e-03
1.390182e+02	-3.124967e-03
1.398211e+02	-3.161157e-03
1.406287e+02	-3.197767e-03
1.414410e+02	-3.234800e-03
1.422579e+02	-3.272262e-03
1.430796e+02	-3.310157e-03
1.439060e+02	-3.348491e-03
1.447372e+02	-3.387269e-03
1.455732e+02	-3.426496e-03
1.464141e+02	-3.466177e-03
1.472597e+02	-3.506318e-03
1.481103e+02	-3.546923e-03
1.489658e+02	-3.587998e-03
1.498262e+02	-3.629548e-03
1.506916e+02	-3.671580e-03
1.515620e+02	-3.714098e-03
1.524374e+02	-3.757108e-03
1.533179e+02	-3.800616e-03
1.542034e+02	-3.844627e-03
1.550941e+02	-3.889148e-03
1.559899e+02	-3.934185e-03
1.568909e+02	-3.979742e-03
1.577971e+02	-4.025827e-03
1.587085e+02	-4.072446e-03
1.596252e+02	-4.119604e-03
1.605472e+02	-4.167307e-03
1.614745e+02	-4.215563e-03
1.624072e+02	-4.264378e-03
1.633453e+02	-4.313757e-03
1.642887e+02	-4.363708e-03
1.652377e+02	-4.414237e-03
1.661921e+02	-4.465350e-03
1.671520e+02	-4.517056e-03
1.681175e+02	-4.569359e-03
1.690885e+02	-4.622268e-03
1.700651e+02	-4.675790e-03
1.710474e+02	-4.729930e-03
1.720354e+02	-4.784698e-03
1.730291e+02	-4.840099e-03
1.740285e+02	-4.896141e-03
1.750337e+02	-4.952831e-03
1.760446e+02	-5.010178e-03
1.770615e+02	-5.068188e-03
1.780842e+02	-5.126870e-03
1.791128e+02	-5.186230e-03
1.801473e+02	-5.246278e-03
1.811878e+02	-5.307020e-03
1.822344e+02	-5.368465e-03
1.832870e+02	-5.430621e-03
1.843456e+02	-5.493496e-03
1.854104e+02	-5.557099e-03
1.864813e+02	-5.621438e-03
1.875584e+02	-5.686521e-03
1.886418e+02	-5.752357e-03
1.897313e+02	-5.818955e-03
1.908272e+02	-5.886323e-03
1.919294e+02	-5.954471e-03
1.930380e+02	-6.023407e-03
1.941530e+02	-6.093141e-03
1.952744e+02	-6.163681e-03
1.964023e+02	-6.235037e-03
1.975367e+02	-6.307219e-03
1.986777e+02	-6.380236e-03
1.998252e+02	-6.454098e-03
2.009794e+02	-6.528814e-03
2.021403e+02	-6.604394e-03
2.033078e+02	-6.680849e-03
2.044821e+02	-6.758188e-03
2.056632e+02	-6.836421e-03
2.068511e+02	-6.915560e-03
2.080459e+02	-6.995614e-03
2.092475e+02	-7.076593e-03
2.104561e+02	-7.158510e-03
2.116717e+02	-7.241374e-03
2.128943e+02	-7.325196e-03
2.141240e+02	-7.409987e-03
2.153608e+02	-7.495760e-03
2.166047e+02	-7.582524e-03
2.178558e+02	-7.670292e-03
2.191141e+02	-7.759074e-03
2.203797e+02	-7.848884e-03
2.216526e+02	-7.939732e-03
2.229329e+02	-8.031630e-03
2.242205e+02	-8.124591e-03
2.255156e+02	-8.218628e-03
2.268182e+02	-8.313751e-03
2.281283e+02	-8.409974e-03
2.294459e+02	-8.507310e-03
2.307712e+02	-8.605772e-03
2.321041e+02	-8.705372e-03
2.334447e+02	-8.806123e-03
2.347931e+02	-8.908039e-03
2.361493e+02	-9.011134e-03
2.375133e+02	-9.115420e-03
2.388851e+02	-9.220912e-03
2.402649e+02	-9.327624e-03
2.416527e+02	-9.435569e-03
2.430484e+02	-9.544762e-03
2.444523e+02	-9.655217e-03
2.458642e+02	-9.766949e-03
2.472843e+02	-9.879973e-03
2.487126e+02	-9.994302e-03
2.501492e+02	-1.010995e-02
2.515940e+02	-1.022694e-02
2.530472e+02	-1.034528e-02
2.545088e+02	-1.046499e-02
2.559789e+02	-1.058608e-02
2.574574e+02	-1.070857e-02
2.589444e+02	-1.083248e-02
2.604401e+02	-1.095782e-02
2.619444e+02	-1.108460e-02
2.634574e+02	-1.121285e-02
2.649791e+02	-1.134259e-02
2.665096e+02	-1.147382e-02
2.680489e+02	-1.160657e-02
2.695972e+02	-1.174085e-02
2.711544e+02	-1.187669e-02
2.727205e+02	-1.201409e-02
2.742958e+02	-1.215308e-02
2.758801e+02	-1.229368e-02
2.774736e+02	-1.243590e-02
2.790762e+02	-1.257976e-02
2.806882e+02	-1.272529e-02
2.823094e+02	-1.287249e-02
2.839400e+02	-1.302140e-02
2.855800e+02	-1.317203e-02
2.872295e+02	-1.332439e-02
2.888886e+02	-1.347852e-02
2.905572e+02	-1.363443e-02
2.922354e+02	-1.379213e-02
2.939234e+02	-1.395166e-02
2.956211e+02	-1.411303e-02
2.973286e+02	-1.427626e-02
2.990459e+02	-1.444138e-02
3.007732e+02	-1.460841e-02
3.025104e+02	-1.477736e-02
3.042577e+02	-1.494826e-02
3.060151e+02	-1.512114e-02
3.077826e+02	-1.529601e-02
3.095604e+02	-1.547291e-02
3.113484e+02	-1.565184e-02
3.131467e+02	-1.583284e-02
3.149554e+02	-1.601593e-02
3.167746e+02	-1.620113e-02
3.186043e+02	-1.638847e-02
3.204445e+02	-1.657797e-02
3.222954e+02	-1.676965e-02
3.241570e+02	-1.696355e-02
3.260293e+02	-1.715969e-02
3.279124e+02	-1.735809e-02
3.298064e+02	-1.755878e-02
3.317114e+02	-1.776179e-02
3.336273e+02	-1.796714e-02
3.355544e+02	-1.817485e-02
3.374925e+02	-1.838497e-02
3.394418e+02	-1.859750e-02
3.414024e+02	-1.881249e-02
3.433744e+02	-1.902996e-02
3.453577e+02	-1.924994e-02
3.473525e+02	-1.947245e-02
3.493588e+02	-1.969753e-02
3.513766e+02	-1.992521e-02
3.534062e+02	-2.015551e-02
3.554474e+02	-2.038846e-02
3.575005e+02	-2.062411e-02
3.595654e+02	-2.086247e-02
3.616422e+02	-2.110357e-02
3.637311e+02	-2.134746e-02
3.658320e+02	-2.159416e-02
3.679450e+02	-2.184370e-02
3.700702e+02	-2.209612e-02
3.722077e+02	-2.235145e-02
3.743576e+02	-2.260972e-02
3.765199e+02	-2.287097e-02
3.786946e+02	-2.313523e-02
3.808820e+02	-2.340253e-02
3.830819e+02	-2.367291e-02
3.852946e+02	-2.394641e-02
3.875200e+02	-2.422306e-02
3.897583e+02	-2.450290e-02
3.920096e+02	-2.478596e-02
3.942738e+02	-2.507228e-02
3.965511e+02	-2.536189e-02
3.988416e+02	-2.565485e-02
4.011452e+02	-2.595117e-02
4.034622e+02	-2.625091e-02
4.057926e+02	-2.655410e-02
4.081365e+02	-2.686079e-02
4.104938e+02	-2.717100e-02
4.128648e+02	-2.748478e-02
4.152495e+02	-2.780218e-02
4.176480e+02	-2.812323e-02
4.200603e+02	-2.844797e-02
4.224866e+02	-2.877645e-02
4.249268e+02	-2.910872e-02
4.273812e+02	-2.944480e-02
4.298497e+02	-2.978475e-02
4.323325e+02	-3.012862e-02
4.348297e+02	-3.047644e-02
4.373412e+02	-3.082826e-02
4.398673e+02	-3.118412e-02
4.424079e+02	-3.154408e-02
4.449633e+02	-3.190818e-02
4.475334e+02	-3.227647e-02
4.501183e+02	-3.264899e-02
4.527182e+02	-3.302580e-02
4.553330e+02	-3.340694e-02
4.579630e+02	-3.379245e-02
4.606082e+02	-3.418240e-02
4.632687e+02	-3.457683e-02
4.659445e+02	-3.497580e-02
4.686358e+02	-3.537935e-02
4.713426e+02	-3.578753e-02
4.740650e+02	-3.620041e-02
4.768032e+02	-3.661803e-02
4.795572e+02	-3.704044e-02
4.823271e+02	-3.746771e-02
4.851130e+02	-3.789988e-02
4.879150e+02	-3.833702e-02
4.907332e+02	-3.877918e-02
4.935676e+02	-3.922641e-02
4.964185e+02	-3.967878e-02
4.992858e+02	-4.013634e-02
5.021696e+02	-4.059915e-02
5.050701e+02	-4.106727e-02
5.079874e+02	-4.154076e-02
5.109215e+02	-4.201969e-02
5.138726e+02	-4.250411e-02
5.168407e+02	-4.299409e-02
5.198259e+02	-4.348969e-02
5.228284e+02	-4.399097e-02
5.258482e+02	-4.449800e-02
5.288855e+02	-4.501085e-02
5.319403e+02	-4.552957e-02
5.350128e+02	-4.605424e-02
5.381030e+02	-4.658492e-02
5.412111e+02	-4.712169e-02
5.443371e+02	-4.766460e-02
5.474812e+02	-4.821374e-02
5.506434e+02	-4.876916e-02
5.538239e+02	-4.933095e-02
5.570228e+02	-4.989918e-02
5.602401e+02	-5.047391e-02
5.634760e+02	-5.105522e-02
5.667306e+02	-5.164318e-02
5.700040e+02	-5.223788e-02
5.732964e+02	-5.283938e-02
5.766077e+02	-5.344777e-02
5.799382e+02	-5.406311e-02
5.832879e+02	-5.468550e-02
5.866569e+02	-5.531500e-02
5.900454e+02	-5.595171e-02
5.934535e+02	-5.659570e-02
5.968813e+02	-5.724704e-02
6.003288e+02	-5.790584e-02
6.037963e+02	-5.857216e-02
6.072838e+02	-5.924610e-02
6.107914e+02	-5.992775e-02
6.143194e+02	-6.061717e-02
6.178676e+02	-6.131448e-02
6.214364e+02	-6.201975e-02
6.250258e+02	-6.273307e-02
6.286359e+02	-6.345453e-02
6.322669e+02	-6.418423e-02
6.359189e+02	-6.492226e-02
6.395919e+02	-6.566871e-02
6.432862e+02	-6.642368e-02
6.470017e+02	-6.718726e-02
6.507388e+02	-6.795955e-02
6.544974e+02	-6.874065e-02
6.582778e+02	-6.953065e-02
6.620800e+02	-7.032965e-02
6.659041e+02	-7.113777e-02
6.697504e+02	-7.195509e-02
6.736188e+02	-7.278172e-02
6.775096e+02	-7.361777e-02
6.814229e+02	-7.446334e-02
6.853587e+02	-7.531853e-02
6.893173e+02	-7.618347e-02
6.932988e+02	-7.705824e-02
6.973033e+02	-7.794297e-02
7.013309e+02	-7.883777e-02
