Frequency(Hz)	Magnitude(dB)
1.000000e+01	-1.792722e-05
1.005776e+01	-1.813491e-05
1.011585e+01	-1.834501e-05
1.017428e+01	-1.855754e-05
1.023305e+01	-1.877254e-05
1.029215e+01	-1.899002e-05
1.035160e+01	-1.921003e-05
1.041139e+01	-1.943258e-05
1.047153e+01	-1.965771e-05
1.053201e+01	-1.988545e-05
1.059284e+01	-2.011583e-05
1.065403e+01	-2.034887e-05
1.071556e+01	-2.058462e-05
1.077746e+01	-2.082310e-05
1.083971e+01	-2.106434e-05
1.090232e+01	-2.130838e-05
1.096529e+01	-2.155524e-05
1.102862e+01	-2.180496e-05
1.109232e+01	-2.205758e-05
1.115639e+01	-2.231312e-05
1.122083e+01	-2.257162e-05
1.128564e+01	-2.283312e-05
1.135083e+01	-2.309765e-05
1.141639e+01	-2.336524e-05
1.148233e+01	-2.363593e-05
1.154865e+01	-2.390976e-05
1.161536e+01	-2.418676e-05
1.168245e+01	-2.446697e-05
1.174992e+01	-2.475043e-05
1.181779e+01	-2.503717e-05
1.188605e+01	-2.532723e-05
1.195470e+01	-2.562065e-05
1.202375e+01	-2.591747e-05
1.209320e+01	-2.621773e-05
1.216305e+01	-2.652147e-05
1.223330e+01	-2.682873e-05
1.230396e+01	-2.713955e-05
1.237503e+01	-2.745396e-05
1.244651e+01	-2.777203e-05
1.251840e+01	-2.809377e-05
1.259070e+01	-2.841924e-05
1.266343e+01	-2.874849e-05
1.273657e+01	-2.908155e-05
1.281014e+01	-2.941846e-05
1.288413e+01	-2.975928e-05
1.295855e+01	-3.010405e-05
1.303339e+01	-3.045281e-05
1.310867e+01	-3.080562e-05
1.318439e+01	-3.116251e-05
1.326054e+01	-3.152353e-05
1.333713e+01	-3.188874e-05
1.341417e+01	-3.225818e-05
1.349165e+01	-3.263190e-05
1.356958e+01	-3.300995e-05
1.364795e+01	-3.339237e-05
1.372678e+01	-3.377923e-05
1.380607e+01	-3.417057e-05
1.388581e+01	-3.456645e-05
1.396602e+01	-3.496691e-05
1.404668e+01	-3.537201e-05
1.412782e+01	-3.578180e-05
1.420942e+01	-3.619634e-05
1.429149e+01	-3.661568e-05
1.437404e+01	-3.703988e-05
1.445706e+01	-3.746900e-05
1.454057e+01	-3.790309e-05
1.462455e+01	-3.834220e-05
1.470902e+01	-3.878641e-05
1.479398e+01	-3.923575e-05
1.487943e+01	-3.969031e-05
1.496537e+01	-4.015013e-05
1.505181e+01	-4.061528e-05
1.513875e+01	-4.108582e-05
1.522619e+01	-4.156181e-05
1.531414e+01	-4.204331e-05
1.540259e+01	-4.253039e-05
1.549156e+01	-4.302311e-05
1.558103e+01	-4.352155e-05
1.567103e+01	-4.402575e-05
1.576155e+01	-4.453580e-05
1.585258e+01	-4.505176e-05
1.594415e+01	-4.557369e-05
1.603624e+01	-4.610167e-05
1.612886e+01	-4.663577e-05
1.622202e+01	-4.717606e-05
1.631572e+01	-4.772260e-05
1.640996e+01	-4.827548e-05
1.650474e+01	-4.883476e-05
1.660008e+01	-4.940052e-05
1.669596e+01	-4.997284e-05
1.679239e+01	-5.055178e-05
1.688938e+01	-5.113744e-05
1.698694e+01	-5.172987e-05
1.708505e+01	-5.232917e-05
1.718373e+01	-5.293542e-05
1.728299e+01	-5.354869e-05
1.738281e+01	-5.416906e-05
1.748322e+01	-5.479662e-05
1.758420e+01	-5.543145e-05
1.768576e+01	-5.607363e-05
1.778792e+01	-5.672326e-05
1.789066e+01	-5.738041e-05
1.799399e+01	-5.804517e-05
1.809793e+01	-5.871764e-05
1.820246e+01	-5.939789e-05
1.830760e+01	-6.008603e-05
1.841334e+01	-6.078214e-05
1.851969e+01	-6.148631e-05
1.862666e+01	-6.219864e-05
1.873425e+01	-6.291923e-05
1.884246e+01	-6.364816e-05
1.895129e+01	-6.438553e-05
1.906075e+01	-6.513145e-05
1.917085e+01	-6.588601e-05
1.928158e+01	-6.664931e-05
1.939295e+01	-6.742146e-05
1.950496e+01	-6.820255e-05
1.961762e+01	-6.899269e-05
1.973093e+01	-6.979198e-05
1.984490e+01	-7.060054e-05
1.995952e+01	-7.141846e-05
2.007480e+01	-7.224585e-05
2.019076e+01	-7.308283e-05
2.030738e+01	-7.392951e-05
2.042467e+01	-7.478600e-05
2.054264e+01	-7.565241e-05
2.066130e+01	-7.652885e-05
2.078064e+01	-7.741545e-05
2.090066e+01	-7.831233e-05
2.102139e+01	-7.921959e-05
2.114280e+01	-8.013736e-05
2.126492e+01	-8.106576e-05
2.138775e+01	-8.200493e-05
2.151128e+01	-8.295497e-05
2.163553e+01	-8.391601e-05
2.176050e+01	-8.488820e-05
2.188619e+01	-8.587164e-05
2.201260e+01	-8.686648e-05
2.213974e+01	-8.787284e-05
2.226762e+01	-8.889086e-05
2.239624e+01	-8.992067e-05
2.252560e+01	-9.096242e-05
2.265571e+01	-9.201623e-05
2.278656e+01	-9.308226e-05
2.291818e+01	-9.416063e-05
2.305055e+01	-9.525149e-05
2.318369e+01	-9.635500e-05
2.331760e+01	-9.747128e-05
2.345228e+01	-9.860050e-05
2.358774e+01	-9.974280e-05
2.372398e+01	-1.008983e-04
2.386101e+01	-1.020673e-04
2.399883e+01	-1.032497e-04
2.413745e+01	-1.044459e-04
2.427686e+01	-1.056559e-04
2.441709e+01	-1.068799e-04
2.455812e+01	-1.081182e-04
2.469997e+01	-1.093707e-04
2.484263e+01	-1.106378e-04
2.498612e+01	-1.119196e-04
2.513044e+01	-1.132162e-04
2.527559e+01	-1.145278e-04
2.542158e+01	-1.158546e-04
2.556842e+01	-1.171968e-04
2.571610e+01	-1.185545e-04
2.586463e+01	-1.199280e-04
2.601403e+01	-1.213174e-04
2.616428e+01	-1.227229e-04
2.631541e+01	-1.241446e-04
2.646740e+01	-1.255828e-04
2.662028e+01	-1.270377e-04
2.677404e+01	-1.285095e-04
2.692868e+01	-1.299983e-04
2.708422e+01	-1.315043e-04
2.724066e+01	-1.330278e-04
2.739800e+01	-1.345689e-04
2.755625e+01	-1.361279e-04
2.771541e+01	-1.377050e-04
2.787550e+01	-1.393003e-04
2.803650e+01	-1.409141e-04
2.819844e+01	-1.425466e-04
2.836131e+01	-1.441980e-04
2.852513e+01	-1.458686e-04
2.868989e+01	-1.475585e-04
2.885560e+01	-1.492680e-04
2.902227e+01	-1.509972e-04
2.918990e+01	-1.527466e-04
2.935850e+01	-1.545161e-04
2.952807e+01	-1.563062e-04
2.969863e+01	-1.581170e-04
2.987016e+01	-1.599488e-04
3.004269e+01	-1.618019e-04
3.021622e+01	-1.636763e-04
3.039075e+01	-1.655725e-04
3.056628e+01	-1.674907e-04
3.074283e+01	-1.694311e-04
3.092040e+01	-1.713940e-04
3.109900e+01	-1.733796e-04
3.127862e+01	-1.753882e-04
3.145929e+01	-1.774201e-04
3.164099e+01	-1.794755e-04
3.182375e+01	-1.815547e-04
3.200756e+01	-1.836580e-04
3.219244e+01	-1.857857e-04
3.237838e+01	-1.879380e-04
3.256540e+01	-1.901153e-04
3.275349e+01	-1.923178e-04
3.294268e+01	-1.945458e-04
3.313295e+01	-1.967996e-04
3.332433e+01	-1.990795e-04
3.351681e+01	-2.013859e-04
3.371040e+01	-2.037189e-04
3.390511e+01	-2.060790e-04
3.410094e+01	-2.084665e-04
3.429791e+01	-2.108815e-04
3.449601e+01	-2.133246e-04
3.469526e+01	-2.157960e-04
3.489566e+01	-2.182960e-04
3.509721e+01	-2.208249e-04
3.529993e+01	-2.233832e-04
3.550382e+01	-2.259711e-04
3.570889e+01	-2.285889e-04
3.591515e+01	-2.312371e-04
3.612259e+01	-2.339160e-04
3.633123e+01	-2.366259e-04
3.654108e+01	-2.393672e-04
3.675214e+01	-2.421403e-04
3.696442e+01	-2.449454e-04
3.717792e+01	-2.477831e-04
3.739266e+01	-2.506537e-04
3.760864e+01	-2.535575e-04
3.782587e+01	-2.564949e-04
3.804435e+01	-2.594664e-04
3.826409e+01	-2.624723e-04
3.848510e+01	-2.655130e-04
3.870739e+01	-2.685890e-04
3.893096e+01	-2.717006e-04
3.915583e+01	-2.748482e-04
3.938199e+01	-2.780323e-04
3.960946e+01	-2.812533e-04
3.983824e+01	-2.845115e-04
4.006834e+01	-2.878076e-04
4.029978e+01	-2.911418e-04
4.053255e+01	-2.945146e-04
4.076666e+01	-2.979266e-04
4.100213e+01	-3.013780e-04
4.123896e+01	-3.048694e-04
4.147715e+01	-3.084013e-04
4.171672e+01	-3.119741e-04
4.195767e+01	-3.155883e-04
4.220002e+01	-3.192443e-04
4.244377e+01	-3.229427e-04
4.268892e+01	-3.266839e-04
4.293549e+01	-3.304685e-04
4.318348e+01	-3.342969e-04
4.343291e+01	-3.381697e-04
4.368377e+01	-3.420873e-04
4.393609e+01	-3.460504e-04
4.418986e+01	-3.500593e-04
4.444510e+01	-3.541147e-04
4.470182e+01	-3.582170e-04
4.496001e+01	-3.623669e-04
4.521970e+01	-3.665648e-04
4.548089e+01	-3.708114e-04
4.574358e+01	-3.751072e-04
4.600779e+01	-3.794527e-04
4.627353e+01	-3.838486e-04
4.654081e+01	-3.882954e-04
4.680963e+01	-3.927937e-04
4.708000e+01	-3.973441e-04
4.735193e+01	-4.019472e-04
4.762543e+01	-4.066037e-04
4.790051e+01	-4.113141e-04
4.817719e+01	-4.160790e-04
4.845545e+01	-4.208992e-04
4.873533e+01	-4.257752e-04
4.901682e+01	-4.307076e-04
4.929994e+01	-4.356973e-04
4.958470e+01	-4.407447e-04
4.987110e+01	-4.458506e-04
5.015915e+01	-4.510156e-04
5.044887e+01	-4.562405e-04
5.074026e+01	-4.615259e-04
5.103333e+01	-4.668725e-04
5.132810e+01	-4.722810e-04
5.162457e+01	-4.777522e-04
5.192275e+01	-4.832868e-04
5.222265e+01	-4.888855e-04
5.252429e+01	-4.945491e-04
5.282767e+01	-5.002782e-04
5.313280e+01	-5.060737e-04
5.343969e+01	-5.119364e-04
5.374836e+01	-5.178670e-04
5.405880e+01	-5.238662e-04
5.437105e+01	-5.299350e-04
5.468509e+01	-5.360741e-04
5.500095e+01	-5.422842e-04
5.531863e+01	-5.485664e-04
5.563815e+01	-5.549213e-04
5.595951e+01	-5.613498e-04
5.628273e+01	-5.678527e-04
5.660782e+01	-5.744310e-04
5.693479e+01	-5.810855e-04
5.726364e+01	-5.878171e-04
5.759439e+01	-5.946266e-04
5.792705e+01	-6.015151e-04
5.826164e+01	-6.084833e-04
5.859815e+01	-6.155323e-04
5.893662e+01	-6.226629e-04
5.927703e+01	-6.298761e-04
5.961941e+01	-6.371728e-04
5.996377e+01	-6.445541e-04
6.031012e+01	-6.520209e-04
6.065847e+01	-6.595741e-04
6.100883e+01	-6.672149e-04
6.136121e+01	-6.749442e-04
6.171563e+01	-6.827630e-04
6.207210e+01	-6.906723e-04
6.243063e+01	-6.986733e-04
6.279122e+01	-7.067670e-04
6.315390e+01	-7.149544e-04
6.351868e+01	-7.232366e-04
6.388556e+01	-7.316148e-04
6.425456e+01	-7.400901e-04
6.462569e+01	-7.486635e-04
6.499897e+01	-7.573362e-04
6.537440e+01	-7.661094e-04
6.575200e+01	-7.749842e-04
6.613178e+01	-7.839617e-04
6.651375e+01	-7.930433e-04
6.689793e+01	-8.022301e-04
6.728433e+01	-8.115233e-04
6.767297e+01	-8.209241e-04
6.806384e+01	-8.304338e-04
6.845698e+01	-8.400537e-04
6.885238e+01	-8.497850e-04
6.925007e+01	-8.596290e-04
6.965005e+01	-8.695871e-04
7.005235e+01	-8.796605e-04
7.045697e+01	-8.898505e-04
7.086393e+01	-9.001586e-04
7.127323e+01	-9.105861e-04
7.168490e+01	-9.211344e-04
7.209895e+01	-9.318048e-04
7.251539e+01	-9.425989e-04
7.293424e+01	-9.535179e-04
7.335551e+01	-9.645635e-04
7.377920e+01	-9.757369e-04
7.420535e+01	-9.870398e-04
7.463396e+01	-9.984736e-04
7.506504e+01	-1.010040e-03
7.549861e+01	-1.021740e-03
7.593469e+01	-1.033576e-03
7.637328e+01	-1.045549e-03
7.681441e+01	-1.057660e-03
7.725809e+01	-1.069912e-03
7.770433e+01	-1.082306e-03
7.815315e+01	-1.094843e-03
7.860456e+01	-1.107525e-03
7.905857e+01	-1.120355e-03
7.951521e+01	-1.133332e-03
7.997449e+01	-1.146461e-03
8.043642e+01	-1.159741e-03
8.090102e+01	-1.173175e-03
8.136830e+01	-1.186765e-03
8.183828e+01	-1.200512e-03
8.231097e+01	-1.214418e-03
8.278640e+01	-1.228486e-03
8.326457e+01	-1.242716e-03
8.374550e+01	-1.257111e-03
8.422921e+01	-1.271673e-03
8.471572e+01	-1.286403e-03
8.520503e+01	-1.301304e-03
8.569717e+01	-1.316378e-03
8.619215e+01	-1.331626e-03
8.669000e+01	-1.347051e-03
8.719071e+01	-1.362655e-03
8.769432e+01	-1.378439e-03
8.820084e+01	-1.394406e-03
8.871029e+01	-1.410558e-03
8.922267e+01	-1.426897e-03
8.973802e+01	-1.443425e-03
9.025634e+01	-1.460145e-03
9.077766e+01	-1.477058e-03
9.130199e+01	-1.494167e-03
9.182935e+01	-1.511475e-03
9.235975e+01	-1.528982e-03
9.289321e+01	-1.546693e-03
9.342976e+01	-1.564608e-03
9.396941e+01	-1.582732e-03
9.451217e+01	-1.601065e-03
9.505807e+01	-1.619610e-03
9.560712e+01	-1.638370e-03
9.615934e+01	-1.657347e-03
9.671476e+01	-1.676544e-03
9.727338e+01	-1.695964e-03
9.783522e+01	-1.715608e-03
9.840032e+01	-1.735480e-03
9.896867e+01	-1.755582e-03
9.954031e+01	-1.775917e-03
1.001153e+02	-1.796487e-03
1.006935e+02	-1.817295e-03
1.012751e+02	-1.838345e-03
1.018601e+02	-1.859638e-03
1.024484e+02	-1.881177e-03
1.030402e+02	-1.902967e-03
1.036353e+02	-1.925008e-03
1.042339e+02	-1.947305e-03
1.048360e+02	-1.969860e-03
1.054415e+02	-1.992676e-03
1.060505e+02	-2.015756e-03
1.066631e+02	-2.039104e-03
1.072791e+02	-2.062722e-03
1.078988e+02	-2.086613e-03
1.085220e+02	-2.110781e-03
1.091488e+02	-2.135229e-03
1.097793e+02	-2.159960e-03
1.104133e+02	-2.184978e-03
1.110511e+02	-2.210285e-03
1.116925e+02	-2.235885e-03
1.123376e+02	-2.261781e-03
1.129865e+02	-2.287978e-03
1.136391e+02	-2.314478e-03
1.142955e+02	-2.341284e-03
1.149556e+02	-2.368401e-03
1.156196e+02	-2.395832e-03
1.162874e+02	-2.423581e-03
1.169591e+02	-2.451651e-03
1.176347e+02	-2.480046e-03
1.183141e+02	-2.508769e-03
1.189975e+02	-2.537826e-03
1.196848e+02	-2.567218e-03
1.203761e+02	-2.596951e-03
1.210714e+02	-2.627028e-03
1.217707e+02	-2.657454e-03
1.224740e+02	-2.688232e-03
1.231814e+02	-2.719366e-03
1.238929e+02	-2.750860e-03
1.246085e+02	-2.782720e-03
1.253283e+02	-2.814948e-03
1.260522e+02	-2.847549e-03
1.267802e+02	-2.880528e-03
1.275125e+02	-2.913888e-03
1.282490e+02	-2.947635e-03
1.289898e+02	-2.981772e-03
1.297348e+02	-3.016305e-03
1.304842e+02	-3.051237e-03
1.312378e+02	-3.086574e-03
1.319959e+02	-3.122320e-03
1.327583e+02	-3.158479e-03
1.335251e+02	-3.195058e-03
1.342963e+02	-3.232060e-03
1.350720e+02	-3.269490e-03
1.358522e+02	-3.307353e-03
1.366368e+02	-3.345655e-03
1.374260e+02	-3.384400e-03
1.382198e+02	-3.423594e-03
1.390182e+02	-3.463241e-03
1.398211e+02	-3.503347e-03
1.406287e+02	-3.543918e-03
1.414410e+02	-3.584958e-03
1.422579e+02	-3.626474e-03
1.430796e+02	-3.668470e-03
1.439060e+02	-3.710951e-03
1.447372e+02	-3.753925e-03
1.455732e+02	-3.797396e-03
1.464141e+02	-3.841371e-03
1.472597e+02	-3.885854e-03
1.481103e+02	-3.930852e-03
1.489658e+02	-3.976371e-03
1.498262e+02	-4.022417e-03
1.506916e+02	-4.068996e-03
1.515620e+02	-4.116114e-03
1.524374e+02	-4.163777e-03
1.533179e+02	-4.211992e-03
1.542034e+02	-4.260765e-03
1.550941e+02	-4.310103e-03
1.559899e+02	-4.360012e-03
1.568909e+02	-4.410498e-03
1.577971e+02	-4.461568e-03
1.587085e+02	-4.513230e-03
1.596252e+02	-4.565489e-03
1.605472e+02	-4.618353e-03
1.614745e+02	-4.671829e-03
1.624072e+02	-4.725924e-03
1.633453e+02	-4.780645e-03
1.642887e+02	-4.835999e-03
1.652377e+02	-4.891994e-03
1.661921e+02	-4.948636e-03
1.671520e+02	-5.005934e-03
1.681175e+02	-5.063896e-03
1.690885e+02	-5.122527e-03
1.700651e+02	-5.181838e-03
1.710474e+02	-5.241834e-03
1.720354e+02	-5.302525e-03
1.730291e+02	-5.363918e-03
1.740285e+02	-5.426022e-03
1.750337e+02	-5.488844e-03
1.760446e+02	-5.552393e-03
1.770615e+02	-5.616677e-03
1.780842e+02	-5.681705e-03
1.791128e+02	-5.747485e-03
1.801473e+02	-5.814026e-03
1.811878e+02	-5.881338e-03
1.822344e+02	-5.949428e-03
1.832870e+02	-6.018306e-03
1.843456e+02	-6.087980e-03
1.854104e+02	-6.158461e-03
1.864813e+02	-6.229757e-03
1.875584e+02	-6.301878e-03
1.886418e+02	-6.374833e-03
1.897313e+02	-6.448632e-03
1.908272e+02	-6.523285e-03
1.919294e+02	-6.598801e-03
1.930380e+02	-6.675191e-03
1.941530e+02	-6.752464e-03
1.952744e+02	-6.830632e-03
1.964023e+02	-6.909703e-03
1.975367e+02	-6.989689e-03
1.986777e+02	-7.070600e-03
1.998252e+02	-7.152447e-03
2.009794e+02	-7.235241e-03
2.021403e+02	-7.318992e-03
2.033078e+02	-7.403712e-03
2.044821e+02	-7.489412e-03
2.056632e+02	-7.576103e-03
2.068511e+02	-7.663796e-03
2.080459e+02	-7.752504e-03
2.092475e+02	-7.842237e-03
2.104561e+02	-7.933008e-03
2.116717e+02	-8.024829e-03
2.128943e+02	-8.117712e-03
2.141240e+02	-8.211668e-03
2.153608e+02	-8.306711e-03
2.166047e+02	-8.402853e-03
2.178558e+02	-8.500107e-03
2.191141e+02	-8.598485e-03
2.203797e+02	-8.698000e-03
2.216526e+02	-8.798667e-03
2.229329e+02	-8.900497e-03
2.242205e+02	-9.003504e-03
2.255156e+02	-9.107702e-03
2.268182e+02	-9.213105e-03
2.281283e+02	-9.319726e-03
2.294459e+02	-9.427580e-03
2.307712e+02	-9.536680e-03
2.321041e+02	-9.647042e-03
2.334447e+02	-9.758679e-03
2.347931e+02	-9.871607e-03
2.361493e+02	-9.985840e-03
2.375133e+02	-1.010139e-02
2.388851e+02	-1.021828e-02
2.402649e+02	-1.033652e-02
2.416527e+02	-1.045613e-02
2.430484e+02	-1.057712e-02
2.444523e+02	-1.069951e-02
2.458642e+02	-1.082331e-02
2.472843e+02	-1.094854e-02
2.487126e+02	-1.107522e-02
2.501492e+02	-1.120336e-02
2.515940e+02	-1.133299e-02
2.530472e+02	-1.146411e-02
2.545088e+02	-1.159674e-02
2.559789e+02	-1.173091e-02
2.574574e+02	-1.186663e-02
2.589444e+02	-1.200392e-02
2.604401e+02	-1.214279e-02
2.619444e+02	-1.228327e-02
2.634574e+02	-1.242537e-02
2.649791e+02	-1.256911e-02
2.665096e+02	-1.271452e-02
2.680489e+02	-1.286160e-02
2.695972e+02	-1.301038e-02
2.711544e+02	-1.316088e-02
2.727205e+02	-1.331312e-02
2.742958e+02	-1.346711e-02
2.758801e+02	-1.362289e-02
2.774736e+02	-1.378046e-02
2.790762e+02	-1.393985e-02
2.806882e+02	-1.410109e-02
2.823094e+02	-1.426418e-02
2.839400e+02	-1.442916e-02
2.855800e+02	-1.459604e-02
2.872295e+02	-1.476485e-02
2.888886e+02	-1.493561e-02
2.905572e+02	-1.510834e-02
2.922354e+02	-1.528307e-02
2.939234e+02	-1.545981e-02
2.956211e+02	-1.563859e-02
2.973286e+02	-1.581944e-02
2.990459e+02	-1.600237e-02
3.007732e+02	-1.618742e-02
3.025104e+02	-1.637460e-02
3.042577e+02	-1.656394e-02
3.060151e+02	-1.675546e-02
3.077826e+02	-1.694920e-02
3.095604e+02	-1.714517e-02
3.113484e+02	-1.734340e-02
3.131467e+02	-1.754392e-02
3.149554e+02	-1.774676e-02
3.167746e+02	-1.795193e-02
3.186043e+02	-1.815947e-02
3.204445e+02	-1.836941e-02
3.222954e+02	-1.858177e-02
3.241570e+02	-1.879657e-02
3.260293e+02	-1.901386e-02
3.279124e+02	-1.923365e-02
3.298064e+02	-1.945598e-02
3.317114e+02	-1.968086e-02
3.336273e+02	-1.990835e-02
3.355544e+02	-2.013845e-02
3.374925e+02	-2.037121e-02
3.394418e+02	-2.060666e-02
3.414024e+02	-2.084482e-02
3.433744e+02	-2.108572e-02
3.453577e+02	-2.132940e-02
3.473525e+02	-2.157589e-02
3.493588e+02	-2.182522e-02
3.513766e+02	-2.207743e-02
3.534062e+02	-2.233254e-02
3.554474e+02	-2.259060e-02
3.575005e+02	-2.285162e-02
3.595654e+02	-2.311566e-02
3.616422e+02	-2.338274e-02
3.637311e+02	-2.365289e-02
3.658320e+02	-2.392616e-02
3.679450e+02	-2.420257e-02
3.700702e+02	-2.448217e-02
3.722077e+02	-2.476499e-02
3.743576e+02	-2.505107e-02
3.765199e+02	-2.534044e-02
3.786946e+02	-2.563315e-02
3.808820e+02	-2.592923e-02
3.830819e+02	-2.622871e-02
3.852946e+02	-2.653165e-02
3.875200e+02	-2.683807e-02
3.897583e+02	-2.714802e-02
3.920096e+02	-2.746154e-02
3.942738e+02	-2.777867e-02
3.965511e+02	-2.809945e-02
3.988416e+02	-2.842392e-02
4.011452e+02	-2.875212e-02
4.034622e+02	-2.908411e-02
4.057926e+02	-2.941991e-02
4.081365e+02	-2.975957e-02
4.104938e+02	-3.010315e-02
4.128648e+02	-3.045067e-02
4.152495e+02	-3.080220e-02
4.176480e+02	-3.115776e-02
4.200603e+02	-3.151742e-02
4.224866e+02	-3.188121e-02
4.249268e+02	-3.224919e-02
4.273812e+02	-3.262140e-02
4.298497e+02	-3.299788e-02
4.323325e+02	-3.337870e-02
4.348297e+02	-3.376389e-02
4.373412e+02	-3.415351e-02
4.398673e+02	-3.454761e-02
4.424079e+02	-3.494624e-02
4.449633e+02	-3.534945e-02
4.475334e+02	-3.575729e-02
4.501183e+02	-3.616982e-02
4.527182e+02	-3.658708e-02
4.553330e+02	-3.700914e-02
4.579630e+02	-3.743605e-02
4.606082e+02	-3.786786e-02
4.632687e+02	-3.830463e-02
4.659445e+02	-3.874641e-02
4.686358e+02	-3.919327e-02
4.713426e+02	-3.964526e-02
4.740650e+02	-4.010243e-02
4.768032e+02	-4.056485e-02
4.795572e+02	-4.103258e-02
4.823271e+02	-4.150567e-02
4.851130e+02	-4.198420e-02
4.879150e+02	-4.246821e-02
4.907332e+02	-4.295778e-02
4.935676e+02	-4.345296e-02
4.964185e+02	-4.395382e-02
4.992858e+02	-4.446042e-02
5.021696e+02	-4.497284e-02
5.050701e+02	-4.549112e-02
5.079874e+02	-4.601535e-02
5.109215e+02	-4.654559e-02
5.138726e+02	-4.708190e-02
5.168407e+02	-4.762436e-02
5.198259e+02	-4.817303e-02
5.228284e+02	-4.872799e-02
5.258482e+02	-4.928931e-02
5.288855e+02	-4.985705e-02
5.319403e+02	-5.043130e-02
5.350128e+02	-5.101212e-02
5.381030e+02	-5.159959e-02
5.412111e+02	-5.219379e-02
5.443371e+02	-5.279478e-02
5.474812e+02	-5.340266e-02
5.506434e+02	-5.401749e-02
5.538239e+02	-5.463935e-02
5.570228e+02	-5.526833e-02
5.602401e+02	-5.590450e-02
5.634760e+02	-5.654794e-02
5.667306e+02	-5.719874e-02
5.700040e+02	-5.785699e-02
5.732964e+02	-5.852275e-02
5.766077e+02	-5.919613e-02
5.799382e+02	-5.987719e-02
5.832879e+02	-6.056604e-02
5.866569e+02	-6.126276e-02
5.900454e+02	-6.196744e-02
5.934535e+02	-6.268016e-02
5.968813e+02	-6.340102e-02
6.003288e+02	-6.413011e-02
6.037963e+02	-6.486752e-02
6.072838e+02	-6.561334e-02
6.107914e+02	-6.636768e-02
6.143194e+02	-6.713062e-02
6.178676e+02	-6.790226e-02
6.214364e+02	-6.868270e-02
6.250258e+02	-6.947204e-02
6.286359e+02	-7.027037e-02
6.322669e+02	-7.107781e-02
6.359189e+02	-7.189444e-02
6.395919e+02	-7.272038e-02
6.432862e+02	-7.355573e-02
6.470017e+02	-7.440059e-02
6.507388e+02	-7.525507e-02
6.544974e+02	-7.611928e-02
6.582778e+02	-7.699332e-02
6.620800e+02	-7.787731e-02
6.659041e+02	-7.877136e-02
6.697504e+02	-7.967558e-02
6.736188e+02	-8.059008e-02
6.775096e+02	-8.151497e-02
6.814229e+02	-8.245038e-02
6.853587e+02	-8.339642e-02
6.893173e+02	-8.435321e-02
6.932988e+02	-8.532087e-02
6.973033e+02	-8.629952e-02
7.013309e+02	-8.728928e-02
