Frequency(Hz)	Magnitude(dB)
1.000000e+01	-2.070948e+00
1.005776e+01	-2.090035e+00
1.011585e+01	-2.109189e+00
1.017428e+01	-2.128551e+00
1.023305e+01	-2.147883e+00
1.029215e+01	-2.167570e+00
1.035160e+01	-2.187185e+00
1.041139e+01	-2.207160e+00
1.047153e+01	-2.227224e+00
1.053201e+01	-2.247366e+00
1.059284e+01	-2.267706e+00
1.065403e+01	-2.287913e+00
1.071556e+01	-2.308518e+00
1.077746e+01	-2.329350e+00
1.083971e+01	-2.350015e+00
1.090232e+01	-2.371111e+00
1.096529e+01	-2.392499e+00
1.102862e+01	-2.413365e+00
1.109232e+01	-2.434692e+00
1.115639e+01	-2.456095e+00
1.122083e+01	-2.478083e+00
1.128564e+01	-2.499781e+00
1.135083e+01	-2.521806e+00
1.141639e+01	-2.544155e+00
1.148233e+01	-2.566084e+00
1.154865e+01	-2.588525e+00
1.161536e+01	-2.611166e+00
1.168245e+01	-2.633929e+00
1.174992e+01	-2.656375e+00
1.181779e+01	-2.679767e+00
1.188605e+01	-2.702587e+00
1.195470e+01	-2.725916e+00
1.202375e+01	-2.749142e+00
1.209320e+01	-2.772798e+00
1.216305e+01	-2.796620e+00
1.223330e+01	-2.820231e+00
1.230396e+01	-2.844149e+00
1.237503e+01	-2.868488e+00
1.244651e+01	-2.892623e+00
1.251840e+01	-2.917189e+00
1.259070e+01	-2.941700e+00
1.266343e+01	-2.966296e+00
1.273657e+01	-2.990881e+00
1.281014e+01	-3.016308e+00
1.288413e+01	-3.041332e+00
1.295855e+01	-3.066544e+00
1.303339e+01	-3.091821e+00
1.310867e+01	-3.117244e+00
1.318439e+01	-3.143270e+00
1.326054e+01	-3.168876e+00
1.333713e+01	-3.194957e+00
1.341417e+01	-3.221016e+00
1.349165e+01	-3.247323e+00
1.356958e+01	-3.273748e+00
1.364795e+01	-3.300384e+00
1.372678e+01	-3.326840e+00
1.380607e+01	-3.353793e+00
1.388581e+01	-3.380738e+00
1.396602e+01	-3.408051e+00
1.404668e+01	-3.435374e+00
1.412782e+01	-3.462691e+00
1.420942e+01	-3.490147e+00
1.429149e+01	-3.518027e+00
1.437404e+01	-3.545830e+00
1.445706e+01	-3.573831e+00
1.454057e+01	-3.601778e+00
1.462455e+01	-3.630280e+00
1.470902e+01	-3.658614e+00
1.479398e+01	-3.687264e+00
1.487943e+01	-3.715574e+00
1.496537e+01	-3.744738e+00
1.505181e+01	-3.773599e+00
1.513875e+01	-3.803020e+00
1.522619e+01	-3.831839e+00
1.531414e+01	-3.861294e+00
1.540259e+01	-3.890758e+00
1.549156e+01	-3.920688e+00
1.558103e+01	-3.950319e+00
1.567103e+01	-3.980538e+00
1.576155e+01	-4.010460e+00
1.585258e+01	-4.040521e+00
1.594415e+01	-4.071331e+00
1.603624e+01	-4.101688e+00
1.612886e+01	-4.131935e+00
1.622202e+01	-4.163065e+00
1.631572e+01	-4.193800e+00
1.640996e+01	-4.225040e+00
1.650474e+01	-4.256181e+00
1.660008e+01	-4.287354e+00
1.669596e+01	-4.318831e+00
1.679239e+01	-4.350277e+00
1.688938e+01	-4.381999e+00
1.698694e+01	-4.413883e+00
1.708505e+01	-4.446130e+00
1.718373e+01	-4.477837e+00
1.728299e+01	-4.510383e+00
1.738281e+01	-4.542818e+00
1.748322e+01	-4.575382e+00
1.758420e+01	-4.607970e+00
1.768576e+01	-4.640700e+00
1.778792e+01	-4.673672e+00
1.789066e+01	-4.706571e+00
1.799399e+01	-4.739964e+00
1.809793e+01	-4.773303e+00
1.820246e+01	-4.806343e+00
1.830760e+01	-4.840032e+00
1.841334e+01	-4.873599e+00
1.851969e+01	-4.907482e+00
1.862666e+01	-4.941559e+00
1.873425e+01	-4.975437e+00
1.884246e+01	-5.009724e+00
1.895129e+01	-5.043803e+00
1.906075e+01	-5.078311e+00
1.917085e+01	-5.113130e+00
1.928158e+01	-5.147534e+00
1.939295e+01	-5.182463e+00
1.950496e+01	-5.217699e+00
1.961762e+01	-5.252201e+00
1.973093e+01	-5.287858e+00
1.984490e+01	-5.322683e+00
1.995952e+01	-5.358429e+00
2.007480e+01	-5.393631e+00
2.019076e+01	-5.429277e+00
2.030738e+01	-5.465309e+00
2.042467e+01	-5.501134e+00
2.054264e+01	-5.537152e+00
2.066130e+01	-5.573111e+00
2.078064e+01	-5.609540e+00
2.090066e+01	-5.645596e+00
2.102139e+01	-5.682260e+00
2.114280e+01	-5.718614e+00
2.126492e+01	-5.755179e+00
2.138775e+01	-5.792167e+00
2.151128e+01	-5.828961e+00
2.163553e+01	-5.866228e+00
2.176050e+01	-5.903185e+00
2.188619e+01	-5.940583e+00
2.201260e+01	-5.977570e+00
2.213974e+01	-6.015363e+00
2.226762e+01	-6.052689e+00
2.239624e+01	-6.090172e+00
2.252560e+01	-6.128003e+00
2.265571e+01	-6.166021e+00
2.278656e+01	-6.203795e+00
2.291818e+01	-6.241934e+00
2.305055e+01	-6.280587e+00
2.318369e+01	-6.318426e+00
2.331760e+01	-6.356709e+00
2.345228e+01	-6.395519e+00
2.358774e+01	-6.434167e+00
2.372398e+01	-6.472619e+00
2.386101e+01	-6.511592e+00
2.399883e+01	-6.550677e+00
2.413745e+01	-6.589657e+00
2.427686e+01	-6.628781e+00
2.441709e+01	-6.667813e+00
2.455812e+01	-6.706970e+00
2.469997e+01	-6.746471e+00
2.484263e+01	-6.786074e+00
2.498612e+01	-6.825307e+00
2.513044e+01	-6.865100e+00
2.527559e+01	-6.905259e+00
2.542158e+01	-6.944687e+00
2.556842e+01	-6.985166e+00
2.571610e+01	-7.024967e+00
2.586463e+01	-7.065534e+00
2.601403e+01	-7.105710e+00
2.616428e+01	-7.145541e+00
2.631541e+01	-7.185888e+00
2.646740e+01	-7.226557e+00
2.662028e+01	-7.267008e+00
2.677404e+01	-7.308016e+00
2.692868e+01	-7.348719e+00
2.708422e+01	-7.389049e+00
2.724066e+01	-7.430510e+00
2.739800e+01	-7.471243e+00
2.755625e+01	-7.512398e+00
2.771541e+01	-7.553829e+00
2.787550e+01	-7.594901e+00
2.803650e+01	-7.636268e+00
2.819844e+01	-7.678071e+00
2.836131e+01	-7.719286e+00
2.852513e+01	-7.760916e+00
2.868989e+01	-7.802437e+00
2.885560e+01	-7.844481e+00
2.902227e+01	-7.886617e+00
2.918990e+01	-7.928346e+00
2.935850e+01	-7.970192e+00
2.952807e+01	-8.012228e+00
2.969863e+01	-8.054549e+00
2.987016e+01	-8.096502e+00
3.004269e+01	-8.139151e+00
3.021622e+01	-8.181559e+00
3.039075e+01	-8.223703e+00
3.056628e+01	-8.266096e+00
3.074283e+01	-8.309110e+00
3.092040e+01	-8.351745e+00
3.109900e+01	-8.394319e+00
3.127862e+01	-8.437477e+00
3.145929e+01	-8.480303e+00
3.164099e+01	-8.523258e+00
3.182375e+01	-8.566575e+00
3.200756e+01	-8.609169e+00
3.219244e+01	-8.652451e+00
3.237838e+01	-8.695764e+00
3.256540e+01	-8.738839e+00
3.275349e+01	-8.782204e+00
3.294268e+01	-8.825205e+00
3.313295e+01	-8.869194e+00
3.332433e+01	-8.912720e+00
3.351681e+01	-8.956368e+00
3.371040e+01	-8.999945e+00
3.390511e+01	-9.043682e+00
3.410094e+01	-9.087764e+00
3.429791e+01	-9.131507e+00
3.449601e+01	-9.175114e+00
3.469526e+01	-9.219554e+00
3.489566e+01	-9.263497e+00
3.509721e+01	-9.307239e+00
3.529993e+01	-9.352327e+00
3.550382e+01	-9.396679e+00
3.570889e+01	-9.440772e+00
3.591515e+01	-9.484568e+00
3.612259e+01	-9.529601e+00
3.633123e+01	-9.573596e+00
3.654108e+01	-9.618610e+00
3.675214e+01	-9.662834e+00
3.696442e+01	-9.707302e+00
3.717792e+01	-9.752590e+00
3.739266e+01	-9.797327e+00
3.760864e+01	-9.841995e+00
3.782587e+01	-9.886482e+00
3.804435e+01	-9.931542e+00
3.826409e+01	-9.976884e+00
3.848510e+01	-1.002170e+01
3.870739e+01	-1.006668e+01
3.893096e+01	-1.011084e+01
3.915583e+01	-1.015703e+01
3.938199e+01	-1.020262e+01
3.960946e+01	-1.024731e+01
3.983824e+01	-1.029239e+01
4.006834e+01	-1.033829e+01
4.029978e+01	-1.038343e+01
4.053255e+01	-1.042985e+01
4.076666e+01	-1.047451e+01
4.100213e+01	-1.052008e+01
4.123896e+01	-1.056565e+01
4.147715e+01	-1.061174e+01
4.171672e+01	-1.065748e+01
4.195767e+01	-1.070279e+01
4.220002e+01	-1.074902e+01
4.244377e+01	-1.079423e+01
4.268892e+01	-1.084033e+01
4.293549e+01	-1.088672e+01
4.318348e+01	-1.093242e+01
4.343291e+01	-1.097797e+01
4.368377e+01	-1.102448e+01
4.393609e+01	-1.107003e+01
4.418986e+01	-1.111671e+01
4.444510e+01	-1.116290e+01
4.470182e+01	-1.120931e+01
4.496001e+01	-1.125508e+01
4.521970e+01	-1.130211e+01
4.548089e+01	-1.134769e+01
4.574358e+01	-1.139388e+01
4.600779e+01	-1.144110e+01
4.627353e+01	-1.148695e+01
4.654081e+01	-1.153385e+01
4.680963e+01	-1.158010e+01
4.708000e+01	-1.162596e+01
4.735193e+01	-1.167351e+01
4.762543e+01	-1.171961e+01
4.790051e+01	-1.176649e+01
4.817719e+01	-1.181343e+01
4.845545e+01	-1.185989e+01
4.873533e+01	-1.190669e+01
4.901682e+01	-1.195344e+01
4.929994e+01	-1.200062e+01
4.958470e+01	-1.204754e+01
4.987110e+01	-1.209454e+01
5.015915e+01	-1.214156e+01
5.044887e+01	-1.218779e+01
5.074026e+01	-1.223555e+01
5.103333e+01	-1.228303e+01
5.132810e+01	-1.232891e+01
5.162457e+01	-1.237675e+01
5.192275e+01	-1.242350e+01
5.222265e+01	-1.247070e+01
5.252429e+01	-1.251792e+01
5.282767e+01	-1.256530e+01
5.313280e+01	-1.261333e+01
5.343969e+01	-1.266013e+01
5.374836e+01	-1.270698e+01
5.405880e+01	-1.275375e+01
5.437105e+01	-1.280198e+01
5.468509e+01	-1.284974e+01
5.500095e+01	-1.289700e+01
5.531863e+01	-1.294409e+01
5.563815e+01	-1.299221e+01
5.595951e+01	-1.303928e+01
5.628273e+01	-1.308731e+01
5.660782e+01	-1.313457e+01
5.693479e+01	-1.318319e+01
5.726364e+01	-1.322929e+01
5.759439e+01	-1.327759e+01
5.792705e+01	-1.332505e+01
5.826164e+01	-1.337239e+01
5.859815e+01	-1.341982e+01
5.893662e+01	-1.346881e+01
5.927703e+01	-1.351629e+01
5.961941e+01	-1.356366e+01
5.996377e+01	-1.361244e+01
6.031012e+01	-1.365941e+01
6.065847e+01	-1.370762e+01
6.100883e+01	-1.375535e+01
6.136121e+01	-1.380310e+01
6.171563e+01	-1.385103e+01
6.207210e+01	-1.389878e+01
6.243063e+01	-1.394804e+01
6.279122e+01	-1.399471e+01
6.315390e+01	-1.404377e+01
6.351868e+01	-1.409102e+01
6.388556e+01	-1.413979e+01
6.425456e+01	-1.418817e+01
6.462569e+01	-1.423553e+01
6.499897e+01	-1.428360e+01
6.537440e+01	-1.433222e+01
6.575200e+01	-1.437982e+01
6.613178e+01	-1.442929e+01
6.651375e+01	-1.447763e+01
6.689793e+01	-1.452428e+01
6.728433e+01	-1.457323e+01
6.767297e+01	-1.462149e+01
6.806384e+01	-1.467008e+01
6.845698e+01	-1.471727e+01
6.885238e+01	-1.476700e+01
6.925007e+01	-1.481539e+01
6.965005e+01	-1.486387e+01
7.005235e+01	-1.491186e+01
7.045697e+01	-1.496007e+01
7.086393e+01	-1.500866e+01
7.127323e+01	-1.505757e+01
7.168490e+01	-1.510445e+01
7.209895e+01	-1.515437e+01
7.251539e+01	-1.520234e+01
7.293424e+01	-1.525163e+01
7.335551e+01	-1.529874e+01
7.377920e+01	-1.534769e+01
7.420535e+01	-1.539630e+01
7.463396e+01	-1.544514e+01
7.506504e+01	-1.549284e+01
7.549861e+01	-1.554205e+01
7.593469e+01	-1.559086e+01
7.637328e+01	-1.564101e+01
7.681441e+01	-1.568810e+01
7.725809e+01	-1.573695e+01
7.770433e+01	-1.578653e+01
7.815315e+01	-1.583372e+01
7.860456e+01	-1.588300e+01
7.905857e+01	-1.593274e+01
7.951521e+01	-1.598139e+01
7.997449e+01	-1.603065e+01
8.043642e+01	-1.607801e+01
8.090102e+01	-1.612701e+01
8.136830e+01	-1.617724e+01
8.183828e+01	-1.622510e+01
8.231097e+01	-1.627410e+01
8.278640e+01	-1.632321e+01
8.326457e+01	-1.637084e+01
8.374550e+01	-1.642008e+01
8.422921e+01	-1.646869e+01
8.471572e+01	-1.651791e+01
8.520503e+01	-1.656740e+01
8.569717e+01	-1.661699e+01
8.619215e+01	-1.666441e+01
8.669000e+01	-1.671355e+01
8.719071e+01	-1.676249e+01
8.769432e+01	-1.681167e+01
8.820084e+01	-1.686021e+01
8.871029e+01	-1.691038e+01
8.922267e+01	-1.695873e+01
8.973802e+01	-1.700881e+01
9.025634e+01	-1.705636e+01
9.077766e+01	-1.710579e+01
9.130199e+01	-1.715555e+01
9.182935e+01	-1.720391e+01
9.235975e+01	-1.725357e+01
9.289321e+01	-1.730172e+01
9.342976e+01	-1.735177e+01
9.396941e+01	-1.740022e+01
9.451217e+01	-1.744966e+01
9.505807e+01	-1.749824e+01
9.560712e+01	-1.754877e+01
9.615934e+01	-1.759765e+01
9.671476e+01	-1.764601e+01
9.727338e+01	-1.769545e+01
9.783522e+01	-1.774578e+01
9.840032e+01	-1.779434e+01
9.896867e+01	-1.784256e+01
9.954031e+01	-1.789197e+01
1.001153e+02	-1.794154e+01
1.006935e+02	-1.799039e+01
1.012751e+02	-1.803899e+01
1.018601e+02	-1.809015e+01
1.024484e+02	-1.813740e+01
1.030402e+02	-1.818764e+01
1.036353e+02	-1.823648e+01
1.042339e+02	-1.828551e+01
1.048360e+02	-1.833576e+01
1.054415e+02	-1.838565e+01
1.060505e+02	-1.843471e+01
1.066631e+02	-1.848437e+01
1.072791e+02	-1.853252e+01
1.078988e+02	-1.858036e+01
1.085220e+02	-1.863133e+01
1.091488e+02	-1.868137e+01
1.097793e+02	-1.873048e+01
1.104133e+02	-1.878001e+01
1.110511e+02	-1.882845e+01
1.116925e+02	-1.887769e+01
1.123376e+02	-1.892763e+01
1.129865e+02	-1.897720e+01
1.136391e+02	-1.902757e+01
1.142955e+02	-1.907777e+01
1.149556e+02	-1.912348e+01
1.156196e+02	-1.917481e+01
1.162874e+02	-1.922396e+01
1.169591e+02	-1.927427e+01
1.176347e+02	-1.932230e+01
1.183141e+02	-1.937205e+01
1.189975e+02	-1.942230e+01
1.196848e+02	-1.947071e+01
1.203761e+02	-1.952095e+01
1.210714e+02	-1.957043e+01
1.217707e+02	-1.962133e+01
1.224740e+02	-1.967019e+01
1.231814e+02	-1.971779e+01
1.238929e+02	-1.976972e+01
1.246085e+02	-1.981763e+01
1.253283e+02	-1.986891e+01
1.260522e+02	-1.991786e+01
1.267802e+02	-1.996748e+01
1.275125e+02	-2.001617e+01
1.282490e+02	-2.006409e+01
1.289898e+02	-2.011516e+01
1.297348e+02	-2.016624e+01
1.304842e+02	-2.021491e+01
1.312378e+02	-2.026445e+01
1.319959e+02	-2.031321e+01
1.327583e+02	-2.036208e+01
1.335251e+02	-2.041398e+01
1.342963e+02	-2.046040e+01
1.350720e+02	-2.051041e+01
1.358522e+02	-2.056002e+01
1.366368e+02	-2.061130e+01
1.374260e+02	-2.066138e+01
1.382198e+02	-2.070940e+01
1.390182e+02	-2.076125e+01
1.398211e+02	-2.080868e+01
1.406287e+02	-2.085948e+01
1.414410e+02	-2.090975e+01
1.422579e+02	-2.095743e+01
1.430796e+02	-2.100875e+01
1.439060e+02	-2.105647e+01
1.447372e+02	-2.110683e+01
1.455732e+02	-2.115791e+01
1.464141e+02	-2.120648e+01
1.472597e+02	-2.125789e+01
1.481103e+02	-2.130445e+01
1.489658e+02	-2.135418e+01
1.498262e+02	-2.140637e+01
1.506916e+02	-2.145582e+01
1.515620e+02	-2.150660e+01
1.524374e+02	-2.155303e+01
1.533179e+02	-2.160322e+01
1.542034e+02	-2.165438e+01
1.550941e+02	-2.170162e+01
1.559899e+02	-2.175235e+01
1.568909e+02	-2.180315e+01
1.577971e+02	-2.185377e+01
1.587085e+02	-2.190478e+01
1.596252e+02	-2.195188e+01
1.605472e+02	-2.200243e+01
1.614745e+02	-2.205170e+01
1.624072e+02	-2.209971e+01
1.633453e+02	-2.215073e+01
1.642887e+02	-2.219991e+01
1.652377e+02	-2.224947e+01
1.661921e+02	-2.229895e+01
1.671520e+02	-2.235077e+01
1.681175e+02	-2.239830e+01
1.690885e+02	-2.245015e+01
1.700651e+02	-2.249960e+01
1.710474e+02	-2.254827e+01
1.720354e+02	-2.259806e+01
1.730291e+02	-2.265032e+01
1.740285e+02	-2.269888e+01
1.750337e+02	-2.274789e+01
1.760446e+02	-2.280000e+01
1.770615e+02	-2.284662e+01
1.780842e+02	-2.289619e+01
1.791128e+02	-2.294754e+01
1.801473e+02	-2.299612e+01
1.811878e+02	-2.304847e+01
1.822344e+02	-2.309714e+01
1.832870e+02	-2.314560e+01
1.843456e+02	-2.319588e+01
1.854104e+02	-2.324565e+01
1.864813e+02	-2.329547e+01
1.875584e+02	-2.334553e+01
1.886418e+02	-2.339667e+01
1.897313e+02	-2.344546e+01
1.908272e+02	-2.349445e+01
1.919294e+02	-2.354612e+01
1.930380e+02	-2.359466e+01
1.941530e+02	-2.364584e+01
1.952744e+02	-2.369434e+01
1.964023e+02	-2.374320e+01
1.975367e+02	-2.379305e+01
1.986777e+02	-2.384281e+01
1.998252e+02	-2.389471e+01
2.009794e+02	-2.394286e+01
2.021403e+02	-2.399574e+01
2.033078e+02	-2.404340e+01
2.044821e+02	-2.409434e+01
2.056632e+02	-2.414218e+01
2.068511e+02	-2.419430e+01
2.080459e+02	-2.424197e+01
2.092475e+02	-2.429142e+01
2.104561e+02	-2.434362e+01
2.116717e+02	-2.439224e+01
2.128943e+02	-2.444430e+01
2.141240e+02	-2.449204e+01
2.153608e+02	-2.454328e+01
2.166047e+02	-2.459429e+01
2.178558e+02	-2.464222e+01
2.191141e+02	-2.469117e+01
2.203797e+02	-2.474337e+01
2.216526e+02	-2.479349e+01
2.229329e+02	-2.484188e+01
2.242205e+02	-2.489252e+01
2.255156e+02	-2.494199e+01
2.268182e+02	-2.499196e+01
2.281283e+02	-2.504060e+01
2.294459e+02	-2.509093e+01
2.307712e+02	-2.513950e+01
2.321041e+02	-2.519050e+01
2.334447e+02	-2.524190e+01
2.347931e+02	-2.528796e+01
2.361493e+02	-2.534205e+01
2.375133e+02	-2.538863e+01
2.388851e+02	-2.544031e+01
2.402649e+02	-2.548964e+01
2.416527e+02	-2.554213e+01
2.430484e+02	-2.559161e+01
2.444523e+02	-2.564279e+01
2.458642e+02	-2.569196e+01
2.472843e+02	-2.573995e+01
2.487126e+02	-2.578953e+01
2.501492e+02	-2.584223e+01
2.515940e+02	-2.588739e+01
2.530472e+02	-2.594006e+01
2.545088e+02	-2.599006e+01
2.559789e+02	-2.604091e+01
2.574574e+02	-2.609326e+01
2.589444e+02	-2.613809e+01
2.604401e+02	-2.618904e+01
2.619444e+02	-2.623720e+01
2.634574e+02	-2.628674e+01
2.649791e+02	-2.633731e+01
2.665096e+02	-2.638738e+01
2.680489e+02	-2.643850e+01
2.695972e+02	-2.649013e+01
2.711544e+02	-2.653763e+01
2.727205e+02	-2.659076e+01
2.742958e+02	-2.664111e+01
2.758801e+02	-2.668945e+01
2.774736e+02	-2.674201e+01
2.790762e+02	-2.679222e+01
2.806882e+02	-2.684020e+01
2.823094e+02	-2.689162e+01
2.839400e+02	-2.693999e+01
2.855800e+02	-2.699078e+01
2.872295e+02	-2.704070e+01
2.888886e+02	-2.709159e+01
2.905572e+02	-2.713982e+01
2.922354e+02	-2.718680e+01
2.939234e+02	-2.723556e+01
2.956211e+02	-2.728996e+01
2.973286e+02	-2.733397e+01
2.990459e+02	-2.738736e+01
3.007732e+02	-2.743834e+01
3.025104e+02	-2.749091e+01
3.042577e+02	-2.753792e+01
3.060151e+02	-2.758702e+01
3.077826e+02	-2.763871e+01
3.095604e+02	-2.768951e+01
3.113484e+02	-2.774219e+01
3.131467e+02	-2.778913e+01
3.149554e+02	-2.783895e+01
3.167746e+02	-2.789278e+01
3.186043e+02	-2.793909e+01
3.204445e+02	-2.798788e+01
3.222954e+02	-2.804295e+01
3.241570e+02	-2.808450e+01
3.260293e+02	-2.813821e+01
3.279124e+02	-2.818632e+01
3.298064e+02	-2.823960e+01
3.317114e+02	-2.829213e+01
3.336273e+02	-2.834141e+01
3.355544e+02	-2.838668e+01
3.374925e+02	-2.844219e+01
3.394418e+02	-2.849260e+01
3.414024e+02	-2.853889e+01
3.433744e+02	-2.858632e+01
3.453577e+02	-2.864219e+01
3.473525e+02	-2.868562e+01
3.493588e+02	-2.874284e+01
3.513766e+02	-2.879083e+01
3.534062e+02	-2.884413e+01
3.554474e+02	-2.889434e+01
3.575005e+02	-2.894031e+01
3.595654e+02	-2.899064e+01
3.616422e+02	-2.904106e+01
3.637311e+02	-2.909282e+01
3.658320e+02	-2.913945e+01
3.679450e+02	-2.919294e+01
3.700702e+02	-2.923776e+01
3.722077e+02	-2.929358e+01
3.743576e+02	-2.934200e+01
3.765199e+02	-2.939063e+01
3.786946e+02	-2.943657e+01
3.808820e+02	-2.949234e+01
3.830819e+02	-2.954043e+01
3.852946e+02	-2.959578e+01
3.875200e+02	-2.964186e+01
3.897583e+02	-2.969216e+01
3.920096e+02	-2.974245e+01
3.942738e+02	-2.979322e+01
3.965511e+02	-2.984132e+01
3.988416e+02	-2.989155e+01
4.011452e+02	-2.994217e+01
4.034622e+02	-2.998892e+01
4.057926e+02	-3.004213e+01
4.081365e+02	-3.009528e+01
4.104938e+02	-3.014385e+01
4.128648e+02	-3.019496e+01
4.152495e+02	-3.024096e+01
4.176480e+02	-3.029276e+01
4.200603e+02	-3.034232e+01
4.224866e+02	-3.039302e+01
4.249268e+02	-3.044436e+01
4.273812e+02	-3.049505e+01
4.298497e+02	-3.054496e+01
4.323325e+02	-3.059601e+01
4.348297e+02	-3.064228e+01
4.373412e+02	-3.069504e+01
4.398673e+02	-3.073990e+01
4.424079e+02	-3.078816e+01
4.449633e+02	-3.084654e+01
4.475334e+02	-3.089512e+01
4.501183e+02	-3.094727e+01
4.527182e+02	-3.099167e+01
4.553330e+02	-3.104177e+01
4.579630e+02	-3.109359e+01
4.606082e+02	-3.113541e+01
4.632687e+02	-3.119099e+01
4.659445e+02	-3.124742e+01
4.686358e+02	-3.129672e+01
4.713426e+02	-3.134259e+01
4.740650e+02	-3.138953e+01
4.768032e+02	-3.144932e+01
4.795572e+02	-3.150121e+01
4.823271e+02	-3.154884e+01
4.851130e+02	-3.160230e+01
4.879150e+02	-3.164867e+01
4.907332e+02	-3.169970e+01
4.935676e+02	-3.175001e+01
4.964185e+02	-3.180143e+01
4.992858e+02	-3.184139e+01
5.021696e+02	-3.189669e+01
5.050701e+02	-3.194565e+01
5.079874e+02	-3.199772e+01
5.109215e+02	-3.205045e+01
5.138726e+02	-3.209435e+01
5.168407e+02	-3.215036e+01
5.198259e+02	-3.220176e+01
5.228284e+02	-3.225012e+01
5.258482e+02	-3.229747e+01
5.288855e+02	-3.234997e+01
5.319403e+02	-3.240070e+01
5.350128e+02	-3.245121e+01
5.381030e+02	-3.249367e+01
5.412111e+02	-3.255555e+01
5.443371e+02	-3.259870e+01
5.474812e+02	-3.264543e+01
5.506434e+02	-3.270435e+01
5.538239e+02	-3.275213e+01
5.570228e+02	-3.279864e+01
5.602401e+02	-3.285434e+01
5.634760e+02	-3.290167e+01
5.667306e+02	-3.295374e+01
5.700040e+02	-3.300403e+01
5.732964e+02	-3.305370e+01
5.766077e+02	-3.310725e+01
5.799382e+02	-3.315426e+01
5.832879e+02	-3.320183e+01
5.866569e+02	-3.325831e+01
5.900454e+02	-3.330645e+01
5.934535e+02	-3.335696e+01
5.968813e+02	-3.340757e+01
6.003288e+02	-3.345492e+01
6.037963e+02	-3.350230e+01
6.072838e+02	-3.355154e+01
6.107914e+02	-3.360744e+01
6.143194e+02	-3.366381e+01
6.178676e+02	-3.371164e+01
6.214364e+02	-3.375212e+01
6.250258e+02	-3.381398e+01
6.286359e+02	-3.385358e+01
6.322669e+02	-3.390904e+01
6.359189e+02	-3.395592e+01
6.395919e+02	-3.401220e+01
6.432862e+02	-3.406263e+01
6.470017e+02	-3.410957e+01
6.507388e+02	-3.415734e+01
6.544974e+02	-3.421587e+01
6.582778e+02	-3.425873e+01
6.620800e+02	-3.431712e+01
6.659041e+02	-3.435926e+01
6.697504e+02	-3.441015e+01
6.736188e+02	-3.446205e+01
6.775096e+02	-3.451662e+01
6.814229e+02	-3.456541e+01
6.853587e+02	-3.460936e+01
6.893173e+02	-3.466260e+01
6.932988e+02	-3.471495e+01
6.973033e+02	-3.476031e+01
7.013309e+02	-3.481677e+01
