Frequency(Hz)	Magnitude(dB)
1.000000e+01	-2.063879e+00
1.005776e+01	-2.082927e+00
1.011585e+01	-2.101824e+00
1.017428e+01	-2.121335e+00
1.023305e+01	-2.140660e+00
1.029215e+01	-2.160269e+00
1.035160e+01	-2.179921e+00
1.041139e+01	-2.199908e+00
1.047153e+01	-2.219627e+00
1.053201e+01	-2.239874e+00
1.059284e+01	-2.259973e+00
1.065403e+01	-2.280320e+00
1.071556e+01	-2.300825e+00
1.077746e+01	-2.321239e+00
1.083971e+01	-2.342075e+00
1.090232e+01	-2.363254e+00
1.096529e+01	-2.384134e+00
1.102862e+01	-2.405531e+00
1.109232e+01	-2.426611e+00
1.115639e+01	-2.448231e+00
1.122083e+01	-2.469945e+00
1.128564e+01	-2.491563e+00
1.135083e+01	-2.513701e+00
1.141639e+01	-2.535513e+00
1.148233e+01	-2.557811e+00
1.154865e+01	-2.580141e+00
1.161536e+01	-2.602738e+00
1.168245e+01	-2.625191e+00
1.174992e+01	-2.648017e+00
1.181779e+01	-2.670777e+00
1.188605e+01	-2.694157e+00
1.195470e+01	-2.717176e+00
1.202375e+01	-2.740613e+00
1.209320e+01	-2.763872e+00
1.216305e+01	-2.787551e+00
1.223330e+01	-2.811350e+00
1.230396e+01	-2.835231e+00
1.237503e+01	-2.859253e+00
1.244651e+01	-2.883595e+00
1.251840e+01	-2.907897e+00
1.259070e+01	-2.932729e+00
1.266343e+01	-2.956736e+00
1.273657e+01	-2.981600e+00
1.281014e+01	-3.006733e+00
1.288413e+01	-3.031693e+00
1.295855e+01	-3.056714e+00
1.303339e+01	-3.082234e+00
1.310867e+01	-3.107540e+00
1.318439e+01	-3.133702e+00
1.326054e+01	-3.159299e+00
1.333713e+01	-3.185202e+00
1.341417e+01	-3.211236e+00
1.349165e+01	-3.237380e+00
1.356958e+01	-3.263792e+00
1.364795e+01	-3.290135e+00
1.372678e+01	-3.316923e+00
1.380607e+01	-3.343855e+00
1.388581e+01	-3.370527e+00
1.396602e+01	-3.397824e+00
1.404668e+01	-3.425101e+00
1.412782e+01	-3.452319e+00
1.420942e+01	-3.479903e+00
1.429149e+01	-3.507422e+00
1.437404e+01	-3.535134e+00
1.445706e+01	-3.563073e+00
1.454057e+01	-3.591166e+00
1.462455e+01	-3.619180e+00
1.470902e+01	-3.647773e+00
1.479398e+01	-3.676194e+00
1.487943e+01	-3.704923e+00
1.496537e+01	-3.733864e+00
1.505181e+01	-3.762848e+00
1.513875e+01	-3.791695e+00
1.522619e+01	-3.820983e+00
1.531414e+01	-3.850380e+00
1.540259e+01	-3.879761e+00
1.549156e+01	-3.909352e+00
1.558103e+01	-3.939168e+00
1.567103e+01	-3.969098e+00
1.576155e+01	-3.999118e+00
1.585258e+01	-4.029295e+00
1.594415e+01	-4.059471e+00
1.603624e+01	-4.090310e+00
1.612886e+01	-4.120500e+00
1.622202e+01	-4.151236e+00
1.631572e+01	-4.182146e+00
1.640996e+01	-4.213065e+00
1.650474e+01	-4.244103e+00
1.660008e+01	-4.275824e+00
1.669596e+01	-4.307047e+00
1.679239e+01	-4.338437e+00
1.688938e+01	-4.370472e+00
1.698694e+01	-4.402034e+00
1.708505e+01	-4.433992e+00
1.718373e+01	-4.466224e+00
1.728299e+01	-4.498234e+00
1.738281e+01	-4.530508e+00
1.748322e+01	-4.562943e+00
1.758420e+01	-4.595426e+00
1.768576e+01	-4.628611e+00
1.778792e+01	-4.661159e+00
1.789066e+01	-4.693917e+00
1.799399e+01	-4.727587e+00
1.809793e+01	-4.760177e+00
1.820246e+01	-4.793920e+00
1.830760e+01	-4.827240e+00
1.841334e+01	-4.860927e+00
1.851969e+01	-4.894749e+00
1.862666e+01	-4.929022e+00
1.873425e+01	-4.962608e+00
1.884246e+01	-4.996815e+00
1.895129e+01	-5.031105e+00
1.906075e+01	-5.065514e+00
1.917085e+01	-5.099927e+00
1.928158e+01	-5.134675e+00
1.939295e+01	-5.169556e+00
1.950496e+01	-5.204166e+00
1.961762e+01	-5.239204e+00
1.973093e+01	-5.274596e+00
1.984490e+01	-5.309826e+00
1.995952e+01	-5.344710e+00
2.007480e+01	-5.380158e+00
2.019076e+01	-5.415900e+00
2.030738e+01	-5.451513e+00
2.042467e+01	-5.487391e+00
2.054264e+01	-5.523051e+00
2.066130e+01	-5.559244e+00
2.078064e+01	-5.595738e+00
2.090066e+01	-5.631758e+00
2.102139e+01	-5.668402e+00
2.114280e+01	-5.704668e+00
2.126492e+01	-5.741400e+00
2.138775e+01	-5.778436e+00
2.151128e+01	-5.814930e+00
2.163553e+01	-5.852188e+00
2.176050e+01	-5.889194e+00
2.188619e+01	-5.926217e+00
2.201260e+01	-5.963347e+00
2.213974e+01	-6.001082e+00
2.226762e+01	-6.038654e+00
2.239624e+01	-6.076193e+00
2.252560e+01	-6.114007e+00
2.265571e+01	-6.151891e+00
2.278656e+01	-6.189782e+00
2.291818e+01	-6.227826e+00
2.305055e+01	-6.265744e+00
2.318369e+01	-6.304368e+00
2.331760e+01	-6.342645e+00
2.345228e+01	-6.381000e+00
2.358774e+01	-6.419400e+00
2.372398e+01	-6.458484e+00
2.386101e+01	-6.497352e+00
2.399883e+01	-6.536107e+00
2.413745e+01	-6.574754e+00
2.427686e+01	-6.614117e+00
2.441709e+01	-6.653303e+00
2.455812e+01	-6.692804e+00
2.469997e+01	-6.731800e+00
2.484263e+01	-6.770849e+00
2.498612e+01	-6.810697e+00
2.513044e+01	-6.850067e+00
2.527559e+01	-6.890230e+00
2.542158e+01	-6.929709e+00
2.556842e+01	-6.969818e+00
2.571610e+01	-7.009816e+00
2.586463e+01	-7.050029e+00
2.601403e+01	-7.090380e+00
2.616428e+01	-7.130543e+00
2.631541e+01	-7.171060e+00
2.646740e+01	-7.211478e+00
2.662028e+01	-7.251945e+00
2.677404e+01	-7.292536e+00
2.692868e+01	-7.333715e+00
2.708422e+01	-7.374358e+00
2.724066e+01	-7.415407e+00
2.739800e+01	-7.456173e+00
2.755625e+01	-7.497017e+00
2.771541e+01	-7.538507e+00
2.787550e+01	-7.579547e+00
2.803650e+01	-7.620855e+00
2.819844e+01	-7.662093e+00
2.836131e+01	-7.703497e+00
2.852513e+01	-7.745248e+00
2.868989e+01	-7.786681e+00
2.885560e+01	-7.828607e+00
2.902227e+01	-7.870834e+00
2.918990e+01	-7.912122e+00
2.935850e+01	-7.954410e+00
2.952807e+01	-7.996591e+00
2.969863e+01	-8.038426e+00
2.987016e+01	-8.080762e+00
3.004269e+01	-8.122840e+00
3.021622e+01	-8.165142e+00
3.039075e+01	-8.208335e+00
3.056628e+01	-8.250540e+00
3.074283e+01	-8.292685e+00
3.092040e+01	-8.336134e+00
3.109900e+01	-8.378526e+00
3.127862e+01	-8.421152e+00
3.145929e+01	-8.463648e+00
3.164099e+01	-8.507145e+00
3.182375e+01	-8.550155e+00
3.200756e+01	-8.592879e+00
3.219244e+01	-8.636126e+00
3.237838e+01	-8.679524e+00
3.256540e+01	-8.722546e+00
3.275349e+01	-8.766012e+00
3.294268e+01	-8.809131e+00
3.313295e+01	-8.852899e+00
3.332433e+01	-8.896676e+00
3.351681e+01	-8.940080e+00
3.371040e+01	-8.983631e+00
3.390511e+01	-9.027116e+00
3.410094e+01	-9.072067e+00
3.429791e+01	-9.115034e+00
3.449601e+01	-9.158909e+00
3.469526e+01	-9.203187e+00
3.489566e+01	-9.246905e+00
3.509721e+01	-9.291744e+00
3.529993e+01	-9.335621e+00
3.550382e+01	-9.379597e+00
3.570889e+01	-9.423889e+00
3.591515e+01	-9.468134e+00
3.612259e+01	-9.512366e+00
3.633123e+01	-9.556673e+00
3.654108e+01	-9.601705e+00
3.675214e+01	-9.646271e+00
3.696442e+01	-9.690778e+00
3.717792e+01	-9.735691e+00
3.739266e+01	-9.780138e+00
3.760864e+01	-9.825287e+00
3.782587e+01	-9.869616e+00
3.804435e+01	-9.914655e+00
3.826409e+01	-9.959815e+00
3.848510e+01	-1.000508e+01
3.870739e+01	-1.004993e+01
3.893096e+01	-1.009509e+01
3.915583e+01	-1.013965e+01
3.938199e+01	-1.018499e+01
3.960946e+01	-1.023052e+01
3.983824e+01	-1.027560e+01
4.006834e+01	-1.032097e+01
4.029978e+01	-1.036669e+01
4.053255e+01	-1.041178e+01
4.076666e+01	-1.045750e+01
4.100213e+01	-1.050293e+01
4.123896e+01	-1.054880e+01
4.147715e+01	-1.059458e+01
4.171672e+01	-1.064002e+01
4.195767e+01	-1.068498e+01
4.220002e+01	-1.073181e+01
4.244377e+01	-1.077715e+01
4.268892e+01	-1.082316e+01
4.293549e+01	-1.086883e+01
4.318348e+01	-1.091528e+01
4.343291e+01	-1.096103e+01
4.368377e+01	-1.100693e+01
4.393609e+01	-1.105323e+01
4.418986e+01	-1.109920e+01
4.444510e+01	-1.114459e+01
4.470182e+01	-1.119150e+01
4.496001e+01	-1.123749e+01
4.521970e+01	-1.128440e+01
4.548089e+01	-1.133052e+01
4.574358e+01	-1.137733e+01
4.600779e+01	-1.142322e+01
4.627353e+01	-1.146988e+01
4.654081e+01	-1.151592e+01
4.680963e+01	-1.156248e+01
4.708000e+01	-1.160844e+01
4.735193e+01	-1.165581e+01
4.762543e+01	-1.170276e+01
4.790051e+01	-1.174892e+01
4.817719e+01	-1.179584e+01
4.845545e+01	-1.184241e+01
4.873533e+01	-1.188951e+01
4.901682e+01	-1.193579e+01
4.929994e+01	-1.198293e+01
4.958470e+01	-1.203010e+01
4.987110e+01	-1.207637e+01
5.015915e+01	-1.212446e+01
5.044887e+01	-1.217064e+01
5.074026e+01	-1.221749e+01
5.103333e+01	-1.226475e+01
5.132810e+01	-1.231246e+01
5.162457e+01	-1.235852e+01
5.192275e+01	-1.240663e+01
5.222265e+01	-1.245353e+01
5.252429e+01	-1.250065e+01
5.282767e+01	-1.254765e+01
5.313280e+01	-1.259480e+01
5.343969e+01	-1.264220e+01
5.374836e+01	-1.268993e+01
5.405880e+01	-1.273693e+01
5.437105e+01	-1.278451e+01
5.468509e+01	-1.283184e+01
5.500095e+01	-1.287849e+01
5.531863e+01	-1.292584e+01
5.563815e+01	-1.297431e+01
5.595951e+01	-1.302115e+01
5.628273e+01	-1.306902e+01
5.660782e+01	-1.311647e+01
5.693479e+01	-1.316433e+01
5.726364e+01	-1.321183e+01
5.759439e+01	-1.325941e+01
5.792705e+01	-1.330724e+01
5.826164e+01	-1.335515e+01
5.859815e+01	-1.340194e+01
5.893662e+01	-1.345037e+01
5.927703e+01	-1.349754e+01
5.961941e+01	-1.354586e+01
5.996377e+01	-1.359401e+01
6.031012e+01	-1.364202e+01
6.065847e+01	-1.369003e+01
6.100883e+01	-1.373720e+01
6.136121e+01	-1.378545e+01
6.171563e+01	-1.383346e+01
6.207210e+01	-1.388123e+01
6.243063e+01	-1.392943e+01
6.279122e+01	-1.397798e+01
6.315390e+01	-1.402585e+01
6.351868e+01	-1.407336e+01
6.388556e+01	-1.412088e+01
6.425456e+01	-1.416979e+01
6.462569e+01	-1.421825e+01
6.499897e+01	-1.426664e+01
6.537440e+01	-1.431392e+01
6.575200e+01	-1.436180e+01
6.613178e+01	-1.441008e+01
6.651375e+01	-1.445850e+01
6.689793e+01	-1.450680e+01
6.728433e+01	-1.455476e+01
6.767297e+01	-1.460364e+01
6.806384e+01	-1.465199e+01
6.845698e+01	-1.469890e+01
6.885238e+01	-1.474904e+01
6.925007e+01	-1.479661e+01
6.965005e+01	-1.484493e+01
7.005235e+01	-1.489375e+01
7.045697e+01	-1.494160e+01
7.086393e+01	-1.498998e+01
7.127323e+01	-1.503876e+01
7.168490e+01	-1.508762e+01
7.209895e+01	-1.513569e+01
7.251539e+01	-1.518435e+01
7.293424e+01	-1.523257e+01
7.335551e+01	-1.528176e+01
7.377920e+01	-1.532934e+01
7.420535e+01	-1.537800e+01
7.463396e+01	-1.542682e+01
7.506504e+01	-1.547555e+01
7.549861e+01	-1.552360e+01
7.593469e+01	-1.557308e+01
7.637328e+01	-1.562150e+01
7.681441e+01	-1.566971e+01
7.725809e+01	-1.571906e+01
7.770433e+01	-1.576782e+01
7.815315e+01	-1.581641e+01
7.860456e+01	-1.586402e+01
7.905857e+01	-1.591379e+01
7.951521e+01	-1.596260e+01
7.997449e+01	-1.601204e+01
8.043642e+01	-1.605922e+01
8.090102e+01	-1.610901e+01
8.136830e+01	-1.615824e+01
8.183828e+01	-1.620582e+01
8.231097e+01	-1.625525e+01
8.278640e+01	-1.630319e+01
8.326457e+01	-1.635303e+01
8.374550e+01	-1.640261e+01
8.422921e+01	-1.645175e+01
8.471572e+01	-1.649937e+01
8.520503e+01	-1.654873e+01
8.569717e+01	-1.659801e+01
8.619215e+01	-1.664640e+01
8.669000e+01	-1.669463e+01
8.719071e+01	-1.674330e+01
8.769432e+01	-1.679242e+01
8.820084e+01	-1.684303e+01
8.871029e+01	-1.689114e+01
8.922267e+01	-1.694129e+01
8.973802e+01	-1.698847e+01
9.025634e+01	-1.703813e+01
9.077766e+01	-1.708833e+01
9.130199e+01	-1.713699e+01
9.182935e+01	-1.718511e+01
9.235975e+01	-1.723523e+01
9.289321e+01	-1.728419e+01
9.342976e+01	-1.733323e+01
9.396941e+01	-1.738272e+01
9.451217e+01	-1.743033e+01
9.505807e+01	-1.748067e+01
9.560712e+01	-1.752948e+01
9.615934e+01	-1.757859e+01
9.671476e+01	-1.762776e+01
9.727338e+01	-1.767705e+01
9.783522e+01	-1.772584e+01
9.840032e+01	-1.777693e+01
9.896867e+01	-1.782389e+01
9.954031e+01	-1.787334e+01
1.001153e+02	-1.792417e+01
1.006935e+02	-1.797218e+01
1.012751e+02	-1.802148e+01
1.018601e+02	-1.807069e+01
1.024484e+02	-1.811986e+01
1.030402e+02	-1.816986e+01
1.036353e+02	-1.821698e+01
1.042339e+02	-1.826833e+01
1.048360e+02	-1.831653e+01
1.054415e+02	-1.836625e+01
1.060505e+02	-1.841514e+01
1.066631e+02	-1.846500e+01
1.072791e+02	-1.851438e+01
1.078988e+02	-1.856440e+01
1.085220e+02	-1.861295e+01
1.091488e+02	-1.866208e+01
1.097793e+02	-1.871035e+01
1.104133e+02	-1.876085e+01
1.110511e+02	-1.880949e+01
1.116925e+02	-1.886028e+01
1.123376e+02	-1.890892e+01
1.129865e+02	-1.895892e+01
1.136391e+02	-1.900728e+01
1.142955e+02	-1.905837e+01
1.149556e+02	-1.910579e+01
1.156196e+02	-1.915668e+01
1.162874e+02	-1.920436e+01
1.169591e+02	-1.925479e+01
1.176347e+02	-1.930424e+01
1.183141e+02	-1.935336e+01
1.189975e+02	-1.940350e+01
1.196848e+02	-1.945298e+01
1.203761e+02	-1.950229e+01
1.210714e+02	-1.955196e+01
1.217707e+02	-1.960066e+01
1.224740e+02	-1.965218e+01
1.231814e+02	-1.970107e+01
1.238929e+02	-1.974975e+01
1.246085e+02	-1.979843e+01
1.253283e+02	-1.984987e+01
1.260522e+02	-1.989882e+01
1.267802e+02	-1.994857e+01
1.275125e+02	-1.999903e+01
1.282490e+02	-2.004754e+01
1.289898e+02	-2.009680e+01
1.297348e+02	-2.014602e+01
1.304842e+02	-2.019627e+01
1.312378e+02	-2.024659e+01
1.319959e+02	-2.029536e+01
1.327583e+02	-2.034519e+01
1.335251e+02	-2.039404e+01
1.342963e+02	-2.044406e+01
1.350720e+02	-2.049534e+01
1.358522e+02	-2.054311e+01
1.366368e+02	-2.059367e+01
1.374260e+02	-2.064193e+01
1.382198e+02	-2.069119e+01
1.390182e+02	-2.074037e+01
1.398211e+02	-2.078964e+01
1.406287e+02	-2.084005e+01
1.414410e+02	-2.089025e+01
1.422579e+02	-2.093956e+01
1.430796e+02	-2.098868e+01
1.439060e+02	-2.103739e+01
1.447372e+02	-2.109001e+01
1.455732e+02	-2.113937e+01
1.464141e+02	-2.118814e+01
1.472597e+02	-2.123914e+01
1.481103e+02	-2.128817e+01
1.489658e+02	-2.133665e+01
1.498262e+02	-2.138687e+01
1.506916e+02	-2.143440e+01
1.515620e+02	-2.148599e+01
1.524374e+02	-2.153651e+01
1.533179e+02	-2.158473e+01
1.542034e+02	-2.163444e+01
1.550941e+02	-2.168312e+01
1.559899e+02	-2.173420e+01
1.568909e+02	-2.178263e+01
1.577971e+02	-2.183367e+01
1.587085e+02	-2.188373e+01
1.596252e+02	-2.193345e+01
1.605472e+02	-2.198228e+01
1.614745e+02	-2.203256e+01
1.624072e+02	-2.208200e+01
1.633453e+02	-2.213138e+01
1.642887e+02	-2.218188e+01
1.652377e+02	-2.223274e+01
1.661921e+02	-2.228094e+01
1.671520e+02	-2.233166e+01
1.681175e+02	-2.238137e+01
1.690885e+02	-2.243247e+01
1.700651e+02	-2.248174e+01
1.710474e+02	-2.253336e+01
1.720354e+02	-2.257950e+01
1.730291e+02	-2.263064e+01
1.740285e+02	-2.267958e+01
1.750337e+02	-2.272865e+01
1.760446e+02	-2.277774e+01
1.770615e+02	-2.282905e+01
1.780842e+02	-2.287862e+01
1.791128e+02	-2.292831e+01
1.801473e+02	-2.297829e+01
1.811878e+02	-2.302859e+01
1.822344e+02	-2.307930e+01
1.832870e+02	-2.312637e+01
1.843456e+02	-2.317815e+01
1.854104e+02	-2.322887e+01
1.864813e+02	-2.327680e+01
1.875584e+02	-2.332711e+01
1.886418e+02	-2.337663e+01
1.897313e+02	-2.342749e+01
1.908272e+02	-2.347768e+01
1.919294e+02	-2.352709e+01
1.930380e+02	-2.357609e+01
1.941530e+02	-2.362432e+01
1.952744e+02	-2.367721e+01
1.964023e+02	-2.372620e+01
1.975367e+02	-2.377572e+01
1.986777e+02	-2.382552e+01
1.998252e+02	-2.387582e+01
2.009794e+02	-2.392536e+01
2.021403e+02	-2.397391e+01
2.033078e+02	-2.402414e+01
2.044821e+02	-2.407552e+01
2.056632e+02	-2.412550e+01
2.068511e+02	-2.417717e+01
2.080459e+02	-2.422564e+01
2.092475e+02	-2.427443e+01
2.104561e+02	-2.432326e+01
2.116717e+02	-2.437533e+01
2.128943e+02	-2.442353e+01
2.141240e+02	-2.447429e+01
2.153608e+02	-2.452408e+01
2.166047e+02	-2.457223e+01
2.178558e+02	-2.462067e+01
2.191141e+02	-2.467366e+01
2.203797e+02	-2.472519e+01
2.216526e+02	-2.477179e+01
2.229329e+02	-2.482311e+01
2.242205e+02	-2.487464e+01
2.255156e+02	-2.492146e+01
2.268182e+02	-2.497421e+01
2.281283e+02	-2.502437e+01
2.294459e+02	-2.506966e+01
2.307712e+02	-2.512354e+01
2.321041e+02	-2.517318e+01
2.334447e+02	-2.522297e+01
2.347931e+02	-2.527235e+01
2.361493e+02	-2.532032e+01
2.375133e+02	-2.537208e+01
2.388851e+02	-2.542390e+01
2.402649e+02	-2.547255e+01
2.416527e+02	-2.552228e+01
2.430484e+02	-2.557324e+01
2.444523e+02	-2.562225e+01
2.458642e+02	-2.567218e+01
2.472843e+02	-2.572329e+01
2.487126e+02	-2.577079e+01
2.501492e+02	-2.582049e+01
2.515940e+02	-2.587245e+01
2.530472e+02	-2.592003e+01
2.545088e+02	-2.597283e+01
2.559789e+02	-2.602133e+01
2.574574e+02	-2.607187e+01
2.589444e+02	-2.612054e+01
2.604401e+02	-2.617036e+01
2.619444e+02	-2.622197e+01
2.634574e+02	-2.627192e+01
2.649791e+02	-2.631908e+01
2.665096e+02	-2.637360e+01
2.680489e+02	-2.641999e+01
2.695972e+02	-2.647307e+01
2.711544e+02	-2.652176e+01
2.727205e+02	-2.657390e+01
2.742958e+02	-2.662506e+01
2.758801e+02	-2.667280e+01
2.774736e+02	-2.672096e+01
2.790762e+02	-2.677258e+01
2.806882e+02	-2.682169e+01
2.823094e+02	-2.686890e+01
2.839400e+02	-2.691983e+01
2.855800e+02	-2.697088e+01
2.872295e+02	-2.702027e+01
2.888886e+02	-2.706928e+01
2.905572e+02	-2.712127e+01
2.922354e+02	-2.717107e+01
2.939234e+02	-2.722208e+01
2.956211e+02	-2.727484e+01
2.973286e+02	-2.731964e+01
2.990459e+02	-2.737492e+01
3.007732e+02	-2.741985e+01
3.025104e+02	-2.747510e+01
3.042577e+02	-2.752042e+01
3.060151e+02	-2.757181e+01
3.077826e+02	-2.761977e+01
3.095604e+02	-2.767374e+01
3.113484e+02	-2.772398e+01
3.131467e+02	-2.777048e+01
3.149554e+02	-2.782145e+01
3.167746e+02	-2.787089e+01
3.186043e+02	-2.792050e+01
3.204445e+02	-2.797177e+01
3.222954e+02	-2.802041e+01
3.241570e+02	-2.806684e+01
3.260293e+02	-2.812259e+01
3.279124e+02	-2.817178e+01
3.298064e+02	-2.822084e+01
3.317114e+02	-2.827491e+01
3.336273e+02	-2.831902e+01
3.355544e+02	-2.836602e+01
3.374925e+02	-2.841954e+01
3.394418e+02	-2.846758e+01
3.414024e+02	-2.852258e+01
3.433744e+02	-2.857028e+01
3.453577e+02	-2.862446e+01
3.473525e+02	-2.867020e+01
3.493588e+02	-2.871991e+01
3.513766e+02	-2.877042e+01
3.534062e+02	-2.882376e+01
3.554474e+02	-2.887031e+01
3.575005e+02	-2.891809e+01
3.595654e+02	-2.897411e+01
3.616422e+02	-2.902203e+01
3.637311e+02	-2.907281e+01
3.658320e+02	-2.912199e+01
3.679450e+02	-2.917644e+01
3.700702e+02	-2.922283e+01
3.722077e+02	-2.927575e+01
3.743576e+02	-2.931867e+01
3.765199e+02	-2.937588e+01
3.786946e+02	-2.942319e+01
3.808820e+02	-2.946873e+01
3.830819e+02	-2.952376e+01
3.852946e+02	-2.957549e+01
3.875200e+02	-2.962091e+01
3.897583e+02	-2.967118e+01
3.920096e+02	-2.972395e+01
3.942738e+02	-2.977217e+01
3.965511e+02	-2.982295e+01
3.988416e+02	-2.987415e+01
4.011452e+02	-2.992385e+01
4.034622e+02	-2.996921e+01
4.057926e+02	-3.002243e+01
4.081365e+02	-3.007356e+01
4.104938e+02	-3.012490e+01
4.128648e+02	-3.017400e+01
4.152495e+02	-3.022626e+01
4.176480e+02	-3.026916e+01
4.200603e+02	-3.032198e+01
4.224866e+02	-3.037047e+01
4.249268e+02	-3.042648e+01
4.273812e+02	-3.047470e+01
4.298497e+02	-3.052736e+01
4.323325e+02	-3.057093e+01
4.348297e+02	-3.062621e+01
4.373412e+02	-3.067721e+01
4.398673e+02	-3.072344e+01
4.424079e+02	-3.077448e+01
4.449633e+02	-3.082383e+01
4.475334e+02	-3.087491e+01
4.501183e+02	-3.092715e+01
4.527182e+02	-3.097687e+01
4.553330e+02	-3.102308e+01
4.579630e+02	-3.107268e+01
4.606082e+02	-3.112357e+01
4.632687e+02	-3.118181e+01
4.659445e+02	-3.123142e+01
4.686358e+02	-3.127745e+01
4.713426e+02	-3.132902e+01
4.740650e+02	-3.137374e+01
4.768032e+02	-3.142264e+01
4.795572e+02	-3.147446e+01
4.823271e+02	-3.152510e+01
4.851130e+02	-3.157833e+01
4.879150e+02	-3.163553e+01
4.907332e+02	-3.168016e+01
4.935676e+02	-3.172272e+01
4.964185e+02	-3.178159e+01
4.992858e+02	-3.183480e+01
5.021696e+02	-3.186969e+01
5.050701e+02	-3.192929e+01
5.079874e+02	-3.197446e+01
5.109215e+02	-3.202631e+01
5.138726e+02	-3.208018e+01
5.168407e+02	-3.212664e+01
5.198259e+02	-3.218191e+01
5.228284e+02	-3.222670e+01
5.258482e+02	-3.228086e+01
5.288855e+02	-3.233110e+01
5.319403e+02	-3.237884e+01
5.350128e+02	-3.242368e+01
5.381030e+02	-3.248074e+01
5.412111e+02	-3.252391e+01
5.443371e+02	-3.258718e+01
5.474812e+02	-3.263107e+01
5.506434e+02	-3.267672e+01
5.538239e+02	-3.272917e+01
5.570228e+02	-3.278304e+01
5.602401e+02	-3.282565e+01
5.634760e+02	-3.288165e+01
5.667306e+02	-3.293398e+01
5.700040e+02	-3.298359e+01
5.732964e+02	-3.303191e+01
5.766077e+02	-3.308545e+01
5.799382e+02	-3.313332e+01
5.832879e+02	-3.319315e+01
5.866569e+02	-3.323918e+01
5.900454e+02	-3.328683e+01
5.934535e+02	-3.334017e+01
5.968813e+02	-3.339131e+01
6.003288e+02	-3.343792e+01
6.037963e+02	-3.348563e+01
6.072838e+02	-3.353191e+01
6.107914e+02	-3.358434e+01
6.143194e+02	-3.363289e+01
6.178676e+02	-3.369161e+01
6.214364e+02	-3.373213e+01
6.250258e+02	-3.378932e+01
6.286359e+02	-3.383399e+01
6.322669e+02	-3.388017e+01
6.359189e+02	-3.394514e+01
6.395919e+02	-3.399914e+01
6.432862e+02	-3.403373e+01
6.470017e+02	-3.408646e+01
6.507388e+02	-3.414435e+01
6.544974e+02	-3.419773e+01
6.582778e+02	-3.423879e+01
6.620800e+02	-3.428309e+01
6.659041e+02	-3.433842e+01
6.697504e+02	-3.439601e+01
6.736188e+02	-3.444398e+01
6.775096e+02	-3.449785e+01
6.814229e+02	-3.455477e+01
6.853587e+02	-3.459364e+01
6.893173e+02	-3.464407e+01
6.932988e+02	-3.469468e+01
6.973033e+02	-3.474184e+01
7.013309e+02	-3.478763e+01
