Frequency(Hz)	Magnitude(dB)
1.000000e+01	-2.063596e+00
1.005776e+01	-2.082383e+00
1.011585e+01	-2.101667e+00
1.017428e+01	-2.120922e+00
1.023305e+01	-2.140260e+00
1.029215e+01	-2.159710e+00
1.035160e+01	-2.179605e+00
1.041139e+01	-2.199289e+00
1.047153e+01	-2.219147e+00
1.053201e+01	-2.239344e+00
1.059284e+01	-2.259411e+00
1.065403e+01	-2.279832e+00
1.071556e+01	-2.300280e+00
1.077746e+01	-2.321055e+00
1.083971e+01	-2.341810e+00
1.090232e+01	-2.362843e+00
1.096529e+01	-2.383921e+00
1.102862e+01	-2.405046e+00
1.109232e+01	-2.426447e+00
1.115639e+01	-2.447918e+00
1.122083e+01	-2.469500e+00
1.128564e+01	-2.491263e+00
1.135083e+01	-2.513121e+00
1.141639e+01	-2.535129e+00
1.148233e+01	-2.557428e+00
1.154865e+01	-2.579530e+00
1.161536e+01	-2.602223e+00
1.168245e+01	-2.624830e+00
1.174992e+01	-2.647637e+00
1.181779e+01	-2.670429e+00
1.188605e+01	-2.693396e+00
1.195470e+01	-2.716851e+00
1.202375e+01	-2.739962e+00
1.209320e+01	-2.763427e+00
1.216305e+01	-2.787094e+00
1.223330e+01	-2.811069e+00
1.230396e+01	-2.834843e+00
1.237503e+01	-2.858748e+00
1.244651e+01	-2.883202e+00
1.251840e+01	-2.907497e+00
1.259070e+01	-2.931887e+00
1.266343e+01	-2.956386e+00
1.273657e+01	-2.981394e+00
1.281014e+01	-3.006241e+00
1.288413e+01	-3.031124e+00
1.295855e+01	-3.056254e+00
1.303339e+01	-3.082090e+00
1.310867e+01	-3.107117e+00
1.318439e+01	-3.132972e+00
1.326054e+01	-3.158655e+00
1.333713e+01	-3.184712e+00
1.341417e+01	-3.210702e+00
1.349165e+01	-3.237021e+00
1.356958e+01	-3.263120e+00
1.364795e+01	-3.289783e+00
1.372678e+01	-3.316660e+00
1.380607e+01	-3.343326e+00
1.388581e+01	-3.370113e+00
1.396602e+01	-3.397446e+00
1.404668e+01	-3.424487e+00
1.412782e+01	-3.451761e+00
1.420942e+01	-3.479355e+00
1.429149e+01	-3.506838e+00
1.437404e+01	-3.534749e+00
1.445706e+01	-3.562833e+00
1.454057e+01	-3.590659e+00
1.462455e+01	-3.619120e+00
1.470902e+01	-3.647278e+00
1.479398e+01	-3.676047e+00
1.487943e+01	-3.704569e+00
1.496537e+01	-3.733262e+00
1.505181e+01	-3.762082e+00
1.513875e+01	-3.791415e+00
1.522619e+01	-3.820561e+00
1.531414e+01	-3.849731e+00
1.540259e+01	-3.879070e+00
1.549156e+01	-3.908730e+00
1.558103e+01	-3.938336e+00
1.567103e+01	-3.968291e+00
1.576155e+01	-3.998309e+00
1.585258e+01	-4.028689e+00
1.594415e+01	-4.058962e+00
1.603624e+01	-4.089526e+00
1.612886e+01	-4.120015e+00
1.622202e+01	-4.150728e+00
1.631572e+01	-4.181442e+00
1.640996e+01	-4.212871e+00
1.650474e+01	-4.243954e+00
1.660008e+01	-4.275038e+00
1.669596e+01	-4.306465e+00
1.679239e+01	-4.337668e+00
1.688938e+01	-4.369652e+00
1.698694e+01	-4.401461e+00
1.708505e+01	-4.433275e+00
1.718373e+01	-4.465245e+00
1.728299e+01	-4.497721e+00
1.738281e+01	-4.529998e+00
1.748322e+01	-4.562230e+00
1.758420e+01	-4.594959e+00
1.768576e+01	-4.628031e+00
1.778792e+01	-4.660527e+00
1.789066e+01	-4.693691e+00
1.799399e+01	-4.726667e+00
1.809793e+01	-4.759831e+00
1.820246e+01	-4.793238e+00
1.830760e+01	-4.826399e+00
1.841334e+01	-4.860712e+00
1.851969e+01	-4.894131e+00
1.862666e+01	-4.928047e+00
1.873425e+01	-4.962099e+00
1.884246e+01	-4.996093e+00
1.895129e+01	-5.030497e+00
1.906075e+01	-5.064696e+00
1.917085e+01	-5.099341e+00
1.928158e+01	-5.133930e+00
1.939295e+01	-5.168416e+00
1.950496e+01	-5.203888e+00
1.961762e+01	-5.238414e+00
1.973093e+01	-5.273577e+00
1.984490e+01	-5.308871e+00
1.995952e+01	-5.344335e+00
2.007480e+01	-5.379717e+00
2.019076e+01	-5.415163e+00
2.030738e+01	-5.450673e+00
2.042467e+01	-5.486606e+00
2.054264e+01	-5.522838e+00
2.066130e+01	-5.558965e+00
2.078064e+01	-5.594989e+00
2.090066e+01	-5.631124e+00
2.102139e+01	-5.667444e+00
2.114280e+01	-5.704298e+00
2.126492e+01	-5.740969e+00
2.138775e+01	-5.777849e+00
2.151128e+01	-5.814220e+00
2.163553e+01	-5.851521e+00
2.176050e+01	-5.888721e+00
2.188619e+01	-5.925805e+00
2.201260e+01	-5.963023e+00
2.213974e+01	-6.000530e+00
2.226762e+01	-6.037856e+00
2.239624e+01	-6.075691e+00
2.252560e+01	-6.113137e+00
2.265571e+01	-6.151117e+00
2.278656e+01	-6.188789e+00
2.291818e+01	-6.226887e+00
2.305055e+01	-6.265298e+00
2.318369e+01	-6.303591e+00
2.331760e+01	-6.341917e+00
2.345228e+01	-6.380538e+00
2.358774e+01	-6.418968e+00
2.372398e+01	-6.457411e+00
2.386101e+01	-6.496173e+00
2.399883e+01	-6.535317e+00
2.413745e+01	-6.574395e+00
2.427686e+01	-6.613056e+00
2.441709e+01	-6.652421e+00
2.455812e+01	-6.692097e+00
2.469997e+01	-6.730851e+00
2.484263e+01	-6.770225e+00
2.498612e+01	-6.810008e+00
2.513044e+01	-6.849617e+00
2.527559e+01	-6.889680e+00
2.542158e+01	-6.929276e+00
2.556842e+01	-6.969201e+00
2.571610e+01	-7.009403e+00
2.586463e+01	-7.049215e+00
2.601403e+01	-7.089368e+00
2.616428e+01	-7.130305e+00
2.631541e+01	-7.170327e+00
2.646740e+01	-7.210466e+00
2.662028e+01	-7.251266e+00
2.677404e+01	-7.291793e+00
2.692868e+01	-7.332308e+00
2.708422e+01	-7.373329e+00
2.724066e+01	-7.414522e+00
2.739800e+01	-7.455358e+00
2.755625e+01	-7.496161e+00
2.771541e+01	-7.537883e+00
2.787550e+01	-7.579133e+00
2.803650e+01	-7.620004e+00
2.819844e+01	-7.661217e+00
2.836131e+01	-7.703137e+00
2.852513e+01	-7.744628e+00
2.868989e+01	-7.786441e+00
2.885560e+01	-7.827994e+00
2.902227e+01	-7.870051e+00
2.918990e+01	-7.911886e+00
2.935850e+01	-7.953693e+00
2.952807e+01	-7.995791e+00
2.969863e+01	-8.037894e+00
2.987016e+01	-8.080021e+00
3.004269e+01	-8.122184e+00
3.021622e+01	-8.164298e+00
3.039075e+01	-8.206992e+00
3.056628e+01	-8.249534e+00
3.074283e+01	-8.291985e+00
3.092040e+01	-8.334747e+00
3.109900e+01	-8.377846e+00
3.127862e+01	-8.420483e+00
3.145929e+01	-8.462772e+00
3.164099e+01	-8.506075e+00
3.182375e+01	-8.548975e+00
3.200756e+01	-8.592364e+00
3.219244e+01	-8.635212e+00
3.237838e+01	-8.678250e+00
3.256540e+01	-8.721395e+00
3.275349e+01	-8.765095e+00
3.294268e+01	-8.808775e+00
3.313295e+01	-8.852180e+00
3.332433e+01	-8.895547e+00
3.351681e+01	-8.939230e+00
3.371040e+01	-8.982949e+00
3.390511e+01	-9.026768e+00
3.410094e+01	-9.070352e+00
3.429791e+01	-9.114482e+00
3.449601e+01	-9.158077e+00
3.469526e+01	-9.202208e+00
3.489566e+01	-9.246224e+00
3.509721e+01	-9.290307e+00
3.529993e+01	-9.334343e+00
3.550382e+01	-9.378319e+00
3.570889e+01	-9.423200e+00
3.591515e+01	-9.467437e+00
3.612259e+01	-9.512047e+00
3.633123e+01	-9.556091e+00
3.654108e+01	-9.601078e+00
3.675214e+01	-9.645661e+00
3.696442e+01	-9.689396e+00
3.717792e+01	-9.734244e+00
3.739266e+01	-9.779463e+00
3.760864e+01	-9.824125e+00
3.782587e+01	-9.868726e+00
3.804435e+01	-9.914132e+00
3.826409e+01	-9.958495e+00
3.848510e+01	-1.000388e+01
3.870739e+01	-1.004879e+01
3.893096e+01	-1.009398e+01
3.915583e+01	-1.013870e+01
3.938199e+01	-1.018402e+01
3.960946e+01	-1.022969e+01
3.983824e+01	-1.027465e+01
4.006834e+01	-1.031977e+01
4.029978e+01	-1.036570e+01
4.053255e+01	-1.041105e+01
4.076666e+01	-1.045608e+01
4.100213e+01	-1.050194e+01
4.123896e+01	-1.054769e+01
4.147715e+01	-1.059310e+01
4.171672e+01	-1.063882e+01
4.195767e+01	-1.068457e+01
4.220002e+01	-1.073047e+01
4.244377e+01	-1.077608e+01
4.268892e+01	-1.082220e+01
4.293549e+01	-1.086785e+01
4.318348e+01	-1.091459e+01
4.343291e+01	-1.096058e+01
4.368377e+01	-1.100611e+01
4.393609e+01	-1.105214e+01
4.418986e+01	-1.109888e+01
4.444510e+01	-1.114465e+01
4.470182e+01	-1.119099e+01
4.496001e+01	-1.123693e+01
4.521970e+01	-1.128358e+01
4.548089e+01	-1.132930e+01
4.574358e+01	-1.137636e+01
4.600779e+01	-1.142277e+01
4.627353e+01	-1.146854e+01
4.654081e+01	-1.151569e+01
4.680963e+01	-1.156151e+01
4.708000e+01	-1.160836e+01
4.735193e+01	-1.165476e+01
4.762543e+01	-1.170152e+01
4.790051e+01	-1.174803e+01
4.817719e+01	-1.179525e+01
4.845545e+01	-1.184199e+01
4.873533e+01	-1.188855e+01
4.901682e+01	-1.193505e+01
4.929994e+01	-1.198168e+01
4.958470e+01	-1.202875e+01
4.987110e+01	-1.207619e+01
5.015915e+01	-1.212300e+01
5.044887e+01	-1.217019e+01
5.074026e+01	-1.221670e+01
5.103333e+01	-1.226383e+01
5.132810e+01	-1.231174e+01
5.162457e+01	-1.235792e+01
5.192275e+01	-1.240595e+01
5.222265e+01	-1.245238e+01
5.252429e+01	-1.249944e+01
5.282767e+01	-1.254653e+01
5.313280e+01	-1.259378e+01
5.343969e+01	-1.264139e+01
5.374836e+01	-1.268848e+01
5.405880e+01	-1.273545e+01
5.437105e+01	-1.278312e+01
5.468509e+01	-1.283132e+01
5.500095e+01	-1.287811e+01
5.531863e+01	-1.292562e+01
5.563815e+01	-1.297306e+01
5.595951e+01	-1.302091e+01
5.628273e+01	-1.306817e+01
5.660782e+01	-1.311627e+01
5.693479e+01	-1.316314e+01
5.726364e+01	-1.321099e+01
5.759439e+01	-1.325859e+01
5.792705e+01	-1.330629e+01
5.826164e+01	-1.335376e+01
5.859815e+01	-1.340163e+01
5.893662e+01	-1.344895e+01
5.927703e+01	-1.349710e+01
5.961941e+01	-1.354565e+01
5.996377e+01	-1.359279e+01
6.031012e+01	-1.364071e+01
6.065847e+01	-1.368781e+01
6.100883e+01	-1.373605e+01
6.136121e+01	-1.378501e+01
6.171563e+01	-1.383225e+01
6.207210e+01	-1.388094e+01
6.243063e+01	-1.392848e+01
6.279122e+01	-1.397585e+01
6.315390e+01	-1.402543e+01
6.351868e+01	-1.407221e+01
6.388556e+01	-1.412079e+01
6.425456e+01	-1.416822e+01
6.462569e+01	-1.421712e+01
6.499897e+01	-1.426522e+01
6.537440e+01	-1.431298e+01
6.575200e+01	-1.436142e+01
6.613178e+01	-1.441016e+01
6.651375e+01	-1.445744e+01
6.689793e+01	-1.450585e+01
6.728433e+01	-1.455460e+01
6.767297e+01	-1.460267e+01
6.806384e+01	-1.465098e+01
6.845698e+01	-1.469888e+01
6.885238e+01	-1.474692e+01
6.925007e+01	-1.479677e+01
6.965005e+01	-1.484437e+01
7.005235e+01	-1.489254e+01
7.045697e+01	-1.494067e+01
7.086393e+01	-1.498952e+01
7.127323e+01	-1.503854e+01
7.168490e+01	-1.508556e+01
7.209895e+01	-1.513467e+01
7.251539e+01	-1.518389e+01
7.293424e+01	-1.523154e+01
7.335551e+01	-1.527979e+01
7.377920e+01	-1.532995e+01
7.420535e+01	-1.537720e+01
7.463396e+01	-1.542589e+01
7.506504e+01	-1.547471e+01
7.549861e+01	-1.552329e+01
7.593469e+01	-1.557233e+01
7.637328e+01	-1.562078e+01
7.681441e+01	-1.566943e+01
7.725809e+01	-1.571804e+01
7.770433e+01	-1.576683e+01
7.815315e+01	-1.581634e+01
7.860456e+01	-1.586474e+01
7.905857e+01	-1.591371e+01
7.951521e+01	-1.596161e+01
7.997449e+01	-1.601011e+01
8.043642e+01	-1.605931e+01
8.090102e+01	-1.610795e+01
8.136830e+01	-1.615736e+01
8.183828e+01	-1.620597e+01
8.231097e+01	-1.625365e+01
8.278640e+01	-1.630272e+01
8.326457e+01	-1.635222e+01
8.374550e+01	-1.640089e+01
8.422921e+01	-1.644903e+01
8.471572e+01	-1.649883e+01
8.520503e+01	-1.654672e+01
8.569717e+01	-1.659710e+01
8.619215e+01	-1.664534e+01
8.669000e+01	-1.669477e+01
8.719071e+01	-1.674275e+01
8.769432e+01	-1.679217e+01
8.820084e+01	-1.684221e+01
8.871029e+01	-1.689140e+01
8.922267e+01	-1.694075e+01
8.973802e+01	-1.698763e+01
9.025634e+01	-1.703781e+01
9.077766e+01	-1.708682e+01
9.130199e+01	-1.713629e+01
9.182935e+01	-1.718370e+01
9.235975e+01	-1.723360e+01
9.289321e+01	-1.728400e+01
9.342976e+01	-1.733254e+01
9.396941e+01	-1.738184e+01
9.451217e+01	-1.742954e+01
9.505807e+01	-1.747958e+01
9.560712e+01	-1.752877e+01
9.615934e+01	-1.757823e+01
9.671476e+01	-1.762653e+01
9.727338e+01	-1.767604e+01
9.783522e+01	-1.772410e+01
9.840032e+01	-1.777474e+01
9.896867e+01	-1.782326e+01
9.954031e+01	-1.787280e+01
1.001153e+02	-1.792208e+01
1.006935e+02	-1.797176e+01
1.012751e+02	-1.801998e+01
1.018601e+02	-1.807004e+01
1.024484e+02	-1.811810e+01
1.030402e+02	-1.816810e+01
1.036353e+02	-1.821772e+01
1.042339e+02	-1.826610e+01
1.048360e+02	-1.831554e+01
1.054415e+02	-1.836514e+01
1.060505e+02	-1.841611e+01
1.066631e+02	-1.846328e+01
1.072791e+02	-1.851421e+01
1.078988e+02	-1.856256e+01
1.085220e+02	-1.861157e+01
1.091488e+02	-1.866231e+01
1.097793e+02	-1.871074e+01
1.104133e+02	-1.876028e+01
1.110511e+02	-1.880978e+01
1.116925e+02	-1.885820e+01
1.123376e+02	-1.890876e+01
1.129865e+02	-1.895828e+01
1.136391e+02	-1.900675e+01
1.142955e+02	-1.905621e+01
1.149556e+02	-1.910682e+01
1.156196e+02	-1.915523e+01
1.162874e+02	-1.920456e+01
1.169591e+02	-1.925505e+01
1.176347e+02	-1.930360e+01
1.183141e+02	-1.935260e+01
1.189975e+02	-1.940257e+01
1.196848e+02	-1.945343e+01
1.203761e+02	-1.950172e+01
1.210714e+02	-1.955290e+01
1.217707e+02	-1.959958e+01
1.224740e+02	-1.964953e+01
1.231814e+02	-1.969914e+01
1.238929e+02	-1.974725e+01
1.246085e+02	-1.979848e+01
1.253283e+02	-1.984797e+01
1.260522e+02	-1.989754e+01
1.267802e+02	-1.994784e+01
1.275125e+02	-1.999721e+01
1.282490e+02	-2.004701e+01
1.289898e+02	-2.009566e+01
1.297348e+02	-2.014617e+01
1.304842e+02	-2.019369e+01
1.312378e+02	-2.024389e+01
1.319959e+02	-2.029481e+01
1.327583e+02	-2.034216e+01
1.335251e+02	-2.039351e+01
1.342963e+02	-2.044424e+01
1.350720e+02	-2.049373e+01
1.358522e+02	-2.054238e+01
1.366368e+02	-2.059095e+01
1.374260e+02	-2.063944e+01
1.382198e+02	-2.069028e+01
1.390182e+02	-2.073974e+01
1.398211e+02	-2.078867e+01
1.406287e+02	-2.083733e+01
1.414410e+02	-2.088833e+01
1.422579e+02	-2.094051e+01
1.430796e+02	-2.098668e+01
1.439060e+02	-2.103736e+01
1.447372e+02	-2.108844e+01
1.455732e+02	-2.113561e+01
1.464141e+02	-2.118876e+01
1.472597e+02	-2.123720e+01
1.481103e+02	-2.128770e+01
1.489658e+02	-2.133678e+01
1.498262e+02	-2.138658e+01
1.506916e+02	-2.143580e+01
1.515620e+02	-2.148558e+01
1.524374e+02	-2.153576e+01
1.533179e+02	-2.158531e+01
1.542034e+02	-2.163405e+01
1.550941e+02	-2.168475e+01
1.559899e+02	-2.173443e+01
1.568909e+02	-2.178333e+01
1.577971e+02	-2.183342e+01
1.587085e+02	-2.188255e+01
1.596252e+02	-2.193271e+01
1.605472e+02	-2.198173e+01
1.614745e+02	-2.203190e+01
1.624072e+02	-2.208178e+01
1.633453e+02	-2.213213e+01
1.642887e+02	-2.217876e+01
1.652377e+02	-2.222875e+01
1.661921e+02	-2.227888e+01
1.671520e+02	-2.233158e+01
1.681175e+02	-2.238081e+01
1.690885e+02	-2.242982e+01
1.700651e+02	-2.247931e+01
1.710474e+02	-2.252801e+01
1.720354e+02	-2.257943e+01
1.730291e+02	-2.262919e+01
1.740285e+02	-2.267847e+01
1.750337e+02	-2.272755e+01
1.760446e+02	-2.278082e+01
1.770615e+02	-2.283039e+01
1.780842e+02	-2.287986e+01
1.791128e+02	-2.292620e+01
1.801473e+02	-2.297662e+01
1.811878e+02	-2.302793e+01
1.822344e+02	-2.307608e+01
1.832870e+02	-2.312856e+01
1.843456e+02	-2.317774e+01
1.854104e+02	-2.322796e+01
1.864813e+02	-2.327789e+01
1.875584e+02	-2.332612e+01
1.886418e+02	-2.337424e+01
1.897313e+02	-2.342411e+01
1.908272e+02	-2.347578e+01
1.919294e+02	-2.352471e+01
1.930380e+02	-2.357569e+01
1.941530e+02	-2.362366e+01
1.952744e+02	-2.367687e+01
1.964023e+02	-2.372641e+01
1.975367e+02	-2.377404e+01
1.986777e+02	-2.382506e+01
1.998252e+02	-2.387277e+01
2.009794e+02	-2.392532e+01
2.021403e+02	-2.397585e+01
2.033078e+02	-2.402716e+01
2.044821e+02	-2.407382e+01
2.056632e+02	-2.412452e+01
2.068511e+02	-2.417295e+01
2.080459e+02	-2.422439e+01
2.092475e+02	-2.427478e+01
2.104561e+02	-2.432520e+01
2.116717e+02	-2.437488e+01
2.128943e+02	-2.442509e+01
2.141240e+02	-2.447421e+01
2.153608e+02	-2.452302e+01
2.166047e+02	-2.457446e+01
2.178558e+02	-2.462234e+01
2.191141e+02	-2.467186e+01
2.203797e+02	-2.472227e+01
2.216526e+02	-2.476897e+01
2.229329e+02	-2.482023e+01
2.242205e+02	-2.487208e+01
2.255156e+02	-2.491926e+01
2.268182e+02	-2.497149e+01
2.281283e+02	-2.502013e+01
2.294459e+02	-2.506947e+01
2.307712e+02	-2.512061e+01
2.321041e+02	-2.517083e+01
2.334447e+02	-2.522163e+01
2.347931e+02	-2.527255e+01
2.361493e+02	-2.532312e+01
2.375133e+02	-2.537253e+01
2.388851e+02	-2.542076e+01
2.402649e+02	-2.546923e+01
2.416527e+02	-2.551920e+01
2.430484e+02	-2.557167e+01
2.444523e+02	-2.562095e+01
2.458642e+02	-2.567006e+01
2.472843e+02	-2.571674e+01
2.487126e+02	-2.576610e+01
2.501492e+02	-2.582087e+01
2.515940e+02	-2.587175e+01
2.530472e+02	-2.591928e+01
2.545088e+02	-2.596815e+01
2.559789e+02	-2.602042e+01
2.574574e+02	-2.606885e+01
2.589444e+02	-2.612121e+01
2.604401e+02	-2.617180e+01
2.619444e+02	-2.621999e+01
2.634574e+02	-2.626909e+01
2.649791e+02	-2.632079e+01
2.665096e+02	-2.636983e+01
2.680489e+02	-2.642020e+01
2.695972e+02	-2.646845e+01
2.711544e+02	-2.651680e+01
2.727205e+02	-2.656916e+01
2.742958e+02	-2.662316e+01
2.758801e+02	-2.667320e+01
2.774736e+02	-2.672277e+01
2.790762e+02	-2.677207e+01
2.806882e+02	-2.682120e+01
2.823094e+02	-2.686796e+01
2.839400e+02	-2.692361e+01
2.855800e+02	-2.697091e+01
2.872295e+02	-2.701824e+01
2.888886e+02	-2.706697e+01
2.905572e+02	-2.711678e+01
2.922354e+02	-2.717328e+01
2.939234e+02	-2.722094e+01
2.956211e+02	-2.726809e+01
2.973286e+02	-2.731788e+01
2.990459e+02	-2.737180e+01
3.007732e+02	-2.741876e+01
3.025104e+02	-2.746961e+01
3.042577e+02	-2.752038e+01
3.060151e+02	-2.756893e+01
3.077826e+02	-2.762187e+01
3.095604e+02	-2.766831e+01
3.113484e+02	-2.772049e+01
3.131467e+02	-2.777256e+01
3.149554e+02	-2.782292e+01
3.167746e+02	-2.787003e+01
3.186043e+02	-2.791882e+01
3.204445e+02	-2.797233e+01
3.222954e+02	-2.801858e+01
3.241570e+02	-2.807157e+01
3.260293e+02	-2.811904e+01
3.279124e+02	-2.817289e+01
3.298064e+02	-2.821956e+01
3.317114e+02	-2.827278e+01
3.336273e+02	-2.832416e+01
3.355544e+02	-2.836466e+01
3.374925e+02	-2.842372e+01
3.394418e+02	-2.846964e+01
3.414024e+02	-2.851684e+01
3.433744e+02	-2.856918e+01
3.453577e+02	-2.862076e+01
3.473525e+02	-2.866728e+01
3.493588e+02	-2.871893e+01
3.513766e+02	-2.876882e+01
3.534062e+02	-2.881688e+01
3.554474e+02	-2.887153e+01
3.575005e+02	-2.891942e+01
3.595654e+02	-2.897150e+01
3.616422e+02	-2.902108e+01
3.637311e+02	-2.906875e+01
3.658320e+02	-2.911770e+01
3.679450e+02	-2.917372e+01
3.700702e+02	-2.922245e+01
3.722077e+02	-2.927055e+01
3.743576e+02	-2.931786e+01
3.765199e+02	-2.936834e+01
3.786946e+02	-2.942548e+01
3.808820e+02	-2.947333e+01
3.830819e+02	-2.952275e+01
3.852946e+02	-2.957318e+01
3.875200e+02	-2.962270e+01
3.897583e+02	-2.966967e+01
3.920096e+02	-2.972018e+01
3.942738e+02	-2.977163e+01
3.965511e+02	-2.982116e+01
3.988416e+02	-2.987317e+01
4.011452e+02	-2.991883e+01
4.034622e+02	-2.996780e+01
4.057926e+02	-3.002319e+01
4.081365e+02	-3.007280e+01
4.104938e+02	-3.012460e+01
4.128648e+02	-3.017552e+01
4.152495e+02	-3.021948e+01
4.176480e+02	-3.027251e+01
4.200603e+02	-3.031686e+01
4.224866e+02	-3.037118e+01
4.249268e+02	-3.042184e+01
4.273812e+02	-3.047365e+01
4.298497e+02	-3.052190e+01
4.323325e+02	-3.057494e+01
4.348297e+02	-3.062530e+01
4.373412e+02	-3.067815e+01
4.398673e+02	-3.072452e+01
4.424079e+02	-3.076795e+01
4.449633e+02	-3.082015e+01
4.475334e+02	-3.087603e+01
4.501183e+02	-3.092940e+01
4.527182e+02	-3.097095e+01
4.553330e+02	-3.102792e+01
4.579630e+02	-3.107139e+01
4.606082e+02	-3.112869e+01
4.632687e+02	-3.117753e+01
4.659445e+02	-3.122195e+01
4.686358e+02	-3.127794e+01
4.713426e+02	-3.133022e+01
4.740650e+02	-3.137612e+01
4.768032e+02	-3.142461e+01
4.795572e+02	-3.147381e+01
4.823271e+02	-3.152260e+01
4.851130e+02	-3.157343e+01
4.879150e+02	-3.162376e+01
4.907332e+02	-3.168120e+01
4.935676e+02	-3.173032e+01
4.964185e+02	-3.177127e+01
4.992858e+02	-3.183142e+01
5.021696e+02	-3.188181e+01
5.050701e+02	-3.193013e+01
5.079874e+02	-3.197705e+01
5.109215e+02	-3.202965e+01
5.138726e+02	-3.208162e+01
5.168407e+02	-3.212741e+01
5.198259e+02	-3.217684e+01
5.228284e+02	-3.223084e+01
5.258482e+02	-3.228221e+01
5.288855e+02	-3.232475e+01
5.319403e+02	-3.237926e+01
5.350128e+02	-3.242871e+01
5.381030e+02	-3.248260e+01
5.412111e+02	-3.253729e+01
5.443371e+02	-3.258070e+01
5.474812e+02	-3.262784e+01
5.506434e+02	-3.267853e+01
5.538239e+02	-3.272704e+01
5.570228e+02	-3.278473e+01
5.602401e+02	-3.283169e+01
5.634760e+02	-3.288210e+01
5.667306e+02	-3.293485e+01
5.700040e+02	-3.298041e+01
5.732964e+02	-3.303330e+01
5.766077e+02	-3.307596e+01
5.799382e+02	-3.313679e+01
5.832879e+02	-3.318393e+01
5.866569e+02	-3.323308e+01
5.900454e+02	-3.328240e+01
5.934535e+02	-3.333309e+01
5.968813e+02	-3.338733e+01
6.003288e+02	-3.343835e+01
6.037963e+02	-3.348071e+01
6.072838e+02	-3.352755e+01
6.107914e+02	-3.359039e+01
6.143194e+02	-3.363185e+01
6.178676e+02	-3.368401e+01
6.214364e+02	-3.373518e+01
6.250258e+02	-3.378828e+01
6.286359e+02	-3.383661e+01
6.322669e+02	-3.388432e+01
6.359189e+02	-3.394337e+01
6.395919e+02	-3.398895e+01
6.432862e+02	-3.404020e+01
6.470017e+02	-3.408996e+01
6.507388e+02	-3.413237e+01
6.544974e+02	-3.418897e+01
6.582778e+02	-3.423786e+01
6.620800e+02	-3.428405e+01
6.659041e+02	-3.434300e+01
6.697504e+02	-3.438458e+01
6.736188e+02	-3.444058e+01
6.775096e+02	-3.449426e+01
6.814229e+02	-3.454286e+01
6.853587e+02	-3.458563e+01
6.893173e+02	-3.464270e+01
6.932988e+02	-3.469943e+01
6.973033e+02	-3.474335e+01
7.013309e+02	-3.479904e+01
