Frequency(Hz)	Magnitude(dB)
1.000000e+01	-2.365981e+00
1.005776e+01	-2.386777e+00
1.011585e+01	-2.408260e+00
1.017428e+01	-2.429637e+00
1.023305e+01	-2.451137e+00
1.029215e+01	-2.472818e+00
1.035160e+01	-2.494623e+00
1.041139e+01	-2.516616e+00
1.047153e+01	-2.538746e+00
1.053201e+01	-2.560867e+00
1.059284e+01	-2.583158e+00
1.065403e+01	-2.605595e+00
1.071556e+01	-2.628248e+00
1.077746e+01	-2.651202e+00
1.083971e+01	-2.674096e+00
1.090232e+01	-2.696866e+00
1.096529e+01	-2.720217e+00
1.102862e+01	-2.743736e+00
1.109232e+01	-2.767241e+00
1.115639e+01	-2.790693e+00
1.122083e+01	-2.814654e+00
1.128564e+01	-2.838649e+00
1.135083e+01	-2.862786e+00
1.141639e+01	-2.886927e+00
1.148233e+01	-2.911156e+00
1.154865e+01	-2.935710e+00
1.161536e+01	-2.960569e+00
1.168245e+01	-2.985034e+00
1.174992e+01	-3.009920e+00
1.181779e+01	-3.035162e+00
1.188605e+01	-3.060512e+00
1.195470e+01	-3.085762e+00
1.202375e+01	-3.111257e+00
1.209320e+01	-3.137043e+00
1.216305e+01	-3.162911e+00
1.223330e+01	-3.188730e+00
1.230396e+01	-3.214952e+00
1.237503e+01	-3.241019e+00
1.244651e+01	-3.267241e+00
1.251840e+01	-3.294034e+00
1.259070e+01	-3.320406e+00
1.266343e+01	-3.347470e+00
1.273657e+01	-3.374248e+00
1.281014e+01	-3.401487e+00
1.288413e+01	-3.428694e+00
1.295855e+01	-3.455937e+00
1.303339e+01	-3.483703e+00
1.310867e+01	-3.511381e+00
1.318439e+01	-3.538945e+00
1.326054e+01	-3.566914e+00
1.333713e+01	-3.595187e+00
1.341417e+01	-3.623440e+00
1.349165e+01	-3.651561e+00
1.356958e+01	-3.680319e+00
1.364795e+01	-3.708805e+00
1.372678e+01	-3.737611e+00
1.380607e+01	-3.766684e+00
1.388581e+01	-3.795554e+00
1.396602e+01	-3.824946e+00
1.404668e+01	-3.854325e+00
1.412782e+01	-3.883694e+00
1.420942e+01	-3.913441e+00
1.429149e+01	-3.943307e+00
1.437404e+01	-3.972979e+00
1.445706e+01	-4.003219e+00
1.454057e+01	-4.033568e+00
1.462455e+01	-4.063705e+00
1.470902e+01	-4.094228e+00
1.479398e+01	-4.124859e+00
1.487943e+01	-4.155437e+00
1.496537e+01	-4.186237e+00
1.505181e+01	-4.217148e+00
1.513875e+01	-4.248335e+00
1.522619e+01	-4.280068e+00
1.531414e+01	-4.311025e+00
1.540259e+01	-4.343072e+00
1.549156e+01	-4.374585e+00
1.558103e+01	-4.406575e+00
1.567103e+01	-4.438511e+00
1.576155e+01	-4.470392e+00
1.585258e+01	-4.502472e+00
1.594415e+01	-4.534854e+00
1.603624e+01	-4.567164e+00
1.612886e+01	-4.599934e+00
1.622202e+01	-4.632761e+00
1.631572e+01	-4.665887e+00
1.640996e+01	-4.698811e+00
1.650474e+01	-4.731925e+00
1.660008e+01	-4.764964e+00
1.669596e+01	-4.798258e+00
1.679239e+01	-4.831744e+00
1.688938e+01	-4.865727e+00
1.698694e+01	-4.899279e+00
1.708505e+01	-4.933362e+00
1.718373e+01	-4.967167e+00
1.728299e+01	-5.001523e+00
1.738281e+01	-5.035741e+00
1.748322e+01	-5.069967e+00
1.758420e+01	-5.104641e+00
1.768576e+01	-5.138929e+00
1.778792e+01	-5.174117e+00
1.789066e+01	-5.209045e+00
1.799399e+01	-5.243767e+00
1.809793e+01	-5.278985e+00
1.820246e+01	-5.314255e+00
1.830760e+01	-5.349578e+00
1.841334e+01	-5.385098e+00
1.851969e+01	-5.420825e+00
1.862666e+01	-5.456317e+00
1.873425e+01	-5.492412e+00
1.884246e+01	-5.528306e+00
1.895129e+01	-5.564441e+00
1.906075e+01	-5.600710e+00
1.917085e+01	-5.636999e+00
1.928158e+01	-5.673452e+00
1.939295e+01	-5.709740e+00
1.950496e+01	-5.746703e+00
1.961762e+01	-5.783279e+00
1.973093e+01	-5.820073e+00
1.984490e+01	-5.857315e+00
1.995952e+01	-5.893826e+00
2.007480e+01	-5.931049e+00
2.019076e+01	-5.968668e+00
2.030738e+01	-6.006249e+00
2.042467e+01	-6.043261e+00
2.054264e+01	-6.081570e+00
2.066130e+01	-6.118855e+00
2.078064e+01	-6.156797e+00
2.090066e+01	-6.195037e+00
2.102139e+01	-6.232793e+00
2.114280e+01	-6.271421e+00
2.126492e+01	-6.309382e+00
2.138775e+01	-6.347619e+00
2.151128e+01	-6.386065e+00
2.163553e+01	-6.425052e+00
2.176050e+01	-6.463311e+00
2.188619e+01	-6.502074e+00
2.201260e+01	-6.540863e+00
2.213974e+01	-6.580240e+00
2.226762e+01	-6.619213e+00
2.239624e+01	-6.658848e+00
2.252560e+01	-6.697917e+00
2.265571e+01	-6.737356e+00
2.278656e+01	-6.776549e+00
2.291818e+01	-6.815958e+00
2.305055e+01	-6.855688e+00
2.318369e+01	-6.895632e+00
2.331760e+01	-6.935405e+00
2.345228e+01	-6.975143e+00
2.358774e+01	-7.015191e+00
2.372398e+01	-7.055788e+00
2.386101e+01	-7.095740e+00
2.399883e+01	-7.135783e+00
2.413745e+01	-7.176469e+00
2.427686e+01	-7.216713e+00
2.441709e+01	-7.257574e+00
2.455812e+01	-7.298205e+00
2.469997e+01	-7.338769e+00
2.484263e+01	-7.379648e+00
2.498612e+01	-7.420639e+00
2.513044e+01	-7.461496e+00
2.527559e+01	-7.502821e+00
2.542158e+01	-7.543666e+00
2.556842e+01	-7.585362e+00
2.571610e+01	-7.626490e+00
2.586463e+01	-7.668050e+00
2.601403e+01	-7.709204e+00
2.616428e+01	-7.750979e+00
2.631541e+01	-7.792482e+00
2.646740e+01	-7.834538e+00
2.662028e+01	-7.876335e+00
2.677404e+01	-7.918498e+00
2.692868e+01	-7.960395e+00
2.708422e+01	-8.002181e+00
2.724066e+01	-8.044456e+00
2.739800e+01	-8.086295e+00
2.755625e+01	-8.128810e+00
2.771541e+01	-8.171539e+00
2.787550e+01	-8.213634e+00
2.803650e+01	-8.256474e+00
2.819844e+01	-8.298770e+00
2.836131e+01	-8.341602e+00
2.852513e+01	-8.384044e+00
2.868989e+01	-8.427004e+00
2.885560e+01	-8.470094e+00
2.902227e+01	-8.513213e+00
2.918990e+01	-8.555925e+00
2.935850e+01	-8.598892e+00
2.952807e+01	-8.642349e+00
2.969863e+01	-8.685282e+00
2.987016e+01	-8.728781e+00
3.004269e+01	-8.771815e+00
3.021622e+01	-8.815270e+00
3.039075e+01	-8.858552e+00
3.056628e+01	-8.902656e+00
3.074283e+01	-8.946068e+00
3.092040e+01	-8.989780e+00
3.109900e+01	-9.033450e+00
3.127862e+01	-9.077050e+00
3.145929e+01	-9.121314e+00
3.164099e+01	-9.165138e+00
3.182375e+01	-9.208985e+00
3.200756e+01	-9.253290e+00
3.219244e+01	-9.296699e+00
3.237838e+01	-9.341330e+00
3.256540e+01	-9.385262e+00
3.275349e+01	-9.429702e+00
3.294268e+01	-9.474055e+00
3.313295e+01	-9.518292e+00
3.332433e+01	-9.563205e+00
3.351681e+01	-9.607005e+00
3.371040e+01	-9.651724e+00
3.390511e+01	-9.696595e+00
3.410094e+01	-9.741376e+00
3.429791e+01	-9.786076e+00
3.449601e+01	-9.831024e+00
3.469526e+01	-9.875833e+00
3.489566e+01	-9.920880e+00
3.509721e+01	-9.965732e+00
3.529993e+01	-1.001073e+01
3.550382e+01	-1.005645e+01
3.570889e+01	-1.010097e+01
3.591515e+01	-1.014647e+01
3.612259e+01	-1.019128e+01
3.633123e+01	-1.023628e+01
3.654108e+01	-1.028211e+01
3.675214e+01	-1.032755e+01
3.696442e+01	-1.037329e+01
3.717792e+01	-1.041854e+01
3.739266e+01	-1.046376e+01
3.760864e+01	-1.050939e+01
3.782587e+01	-1.055515e+01
3.804435e+01	-1.060035e+01
3.826409e+01	-1.064628e+01
3.848510e+01	-1.069158e+01
3.870739e+01	-1.073742e+01
3.893096e+01	-1.078384e+01
3.915583e+01	-1.082945e+01
3.938199e+01	-1.087512e+01
3.960946e+01	-1.092109e+01
3.983824e+01	-1.096743e+01
4.006834e+01	-1.101316e+01
4.029978e+01	-1.105887e+01
4.053255e+01	-1.110599e+01
4.076666e+01	-1.115166e+01
4.100213e+01	-1.119705e+01
4.123896e+01	-1.124390e+01
4.147715e+01	-1.128993e+01
4.171672e+01	-1.133660e+01
4.195767e+01	-1.138295e+01
4.220002e+01	-1.142898e+01
4.244377e+01	-1.147610e+01
4.268892e+01	-1.152248e+01
4.293549e+01	-1.156856e+01
4.318348e+01	-1.161517e+01
4.343291e+01	-1.166224e+01
4.368377e+01	-1.170868e+01
4.393609e+01	-1.175522e+01
4.418986e+01	-1.180204e+01
4.444510e+01	-1.184825e+01
4.470182e+01	-1.189571e+01
4.496001e+01	-1.194243e+01
4.521970e+01	-1.198851e+01
4.548089e+01	-1.203578e+01
4.574358e+01	-1.208295e+01
4.600779e+01	-1.212994e+01
4.627353e+01	-1.217778e+01
4.654081e+01	-1.222437e+01
4.680963e+01	-1.227117e+01
4.708000e+01	-1.231856e+01
4.735193e+01	-1.236523e+01
4.762543e+01	-1.241334e+01
4.790051e+01	-1.246028e+01
4.817719e+01	-1.250676e+01
4.845545e+01	-1.255375e+01
4.873533e+01	-1.260135e+01
4.901682e+01	-1.264859e+01
4.929994e+01	-1.269618e+01
4.958470e+01	-1.274368e+01
4.987110e+01	-1.279086e+01
5.015915e+01	-1.283790e+01
5.044887e+01	-1.288500e+01
5.074026e+01	-1.293273e+01
5.103333e+01	-1.298022e+01
5.132810e+01	-1.302779e+01
5.162457e+01	-1.307510e+01
5.192275e+01	-1.312305e+01
5.222265e+01	-1.317125e+01
5.252429e+01	-1.321794e+01
5.282767e+01	-1.326549e+01
5.313280e+01	-1.331394e+01
5.343969e+01	-1.336153e+01
5.374836e+01	-1.340907e+01
5.405880e+01	-1.345636e+01
5.437105e+01	-1.350406e+01
5.468509e+01	-1.355310e+01
5.500095e+01	-1.360092e+01
5.531863e+01	-1.364792e+01
5.563815e+01	-1.369575e+01
5.595951e+01	-1.374399e+01
5.628273e+01	-1.379085e+01
5.660782e+01	-1.383907e+01
5.693479e+01	-1.388806e+01
5.726364e+01	-1.393602e+01
5.759439e+01	-1.398365e+01
5.792705e+01	-1.403151e+01
5.826164e+01	-1.408027e+01
5.859815e+01	-1.412740e+01
5.893662e+01	-1.417582e+01
5.927703e+01	-1.422435e+01
5.961941e+01	-1.427199e+01
5.996377e+01	-1.432076e+01
6.031012e+01	-1.436853e+01
6.065847e+01	-1.441679e+01
6.100883e+01	-1.446580e+01
6.136121e+01	-1.451360e+01
6.171563e+01	-1.456173e+01
6.207210e+01	-1.460945e+01
6.243063e+01	-1.465890e+01
6.279122e+01	-1.470718e+01
6.315390e+01	-1.475528e+01
6.351868e+01	-1.480420e+01
6.388556e+01	-1.485193e+01
6.425456e+01	-1.490041e+01
6.462569e+01	-1.494857e+01
6.499897e+01	-1.499649e+01
6.537440e+01	-1.504570e+01
6.575200e+01	-1.509296e+01
6.613178e+01	-1.514216e+01
6.651375e+01	-1.519076e+01
6.689793e+01	-1.523952e+01
6.728433e+01	-1.528690e+01
6.767297e+01	-1.533673e+01
6.806384e+01	-1.538520e+01
6.845698e+01	-1.543335e+01
6.885238e+01	-1.548133e+01
6.925007e+01	-1.552999e+01
6.965005e+01	-1.557946e+01
7.005235e+01	-1.562795e+01
7.045697e+01	-1.567668e+01
7.086393e+01	-1.572528e+01
7.127323e+01	-1.577385e+01
7.168490e+01	-1.582202e+01
7.209895e+01	-1.587208e+01
7.251539e+01	-1.592026e+01
7.293424e+01	-1.596899e+01
7.335551e+01	-1.601758e+01
7.377920e+01	-1.606690e+01
7.420535e+01	-1.611418e+01
7.463396e+01	-1.616396e+01
7.506504e+01	-1.621283e+01
7.549861e+01	-1.626138e+01
7.593469e+01	-1.631110e+01
7.637328e+01	-1.635972e+01
7.681441e+01	-1.640791e+01
7.725809e+01	-1.645749e+01
7.770433e+01	-1.650741e+01
7.815315e+01	-1.655525e+01
7.860456e+01	-1.660508e+01
7.905857e+01	-1.665320e+01
7.951521e+01	-1.670216e+01
7.997449e+01	-1.675239e+01
8.043642e+01	-1.679995e+01
8.090102e+01	-1.684874e+01
8.136830e+01	-1.689850e+01
8.183828e+01	-1.694668e+01
8.231097e+01	-1.699469e+01
8.278640e+01	-1.704426e+01
8.326457e+01	-1.709483e+01
8.374550e+01	-1.714300e+01
8.422921e+01	-1.719266e+01
8.471572e+01	-1.724131e+01
8.520503e+01	-1.729054e+01
8.569717e+01	-1.734077e+01
8.619215e+01	-1.738929e+01
8.669000e+01	-1.743732e+01
8.719071e+01	-1.748698e+01
8.769432e+01	-1.753669e+01
8.820084e+01	-1.758568e+01
8.871029e+01	-1.763423e+01
8.922267e+01	-1.768384e+01
8.973802e+01	-1.773304e+01
9.025634e+01	-1.778196e+01
9.077766e+01	-1.783154e+01
9.130199e+01	-1.788185e+01
9.182935e+01	-1.793123e+01
9.235975e+01	-1.797918e+01
9.289321e+01	-1.802781e+01
9.342976e+01	-1.807716e+01
9.396941e+01	-1.812536e+01
9.451217e+01	-1.817508e+01
9.505807e+01	-1.822453e+01
9.560712e+01	-1.827494e+01
9.615934e+01	-1.832338e+01
9.671476e+01	-1.837252e+01
9.727338e+01	-1.842240e+01
9.783522e+01	-1.847268e+01
9.840032e+01	-1.852078e+01
9.896867e+01	-1.857037e+01
9.954031e+01	-1.862008e+01
1.001153e+02	-1.866954e+01
1.006935e+02	-1.871776e+01
1.012751e+02	-1.876709e+01
1.018601e+02	-1.881662e+01
1.024484e+02	-1.886609e+01
1.030402e+02	-1.891475e+01
1.036353e+02	-1.896493e+01
1.042339e+02	-1.901532e+01
1.048360e+02	-1.906319e+01
1.054415e+02	-1.911305e+01
1.060505e+02	-1.916354e+01
1.066631e+02	-1.921227e+01
1.072791e+02	-1.926211e+01
1.078988e+02	-1.931112e+01
1.085220e+02	-1.936119e+01
1.091488e+02	-1.940898e+01
1.097793e+02	-1.945890e+01
1.104133e+02	-1.951001e+01
1.110511e+02	-1.955961e+01
1.116925e+02	-1.960774e+01
1.123376e+02	-1.965731e+01
1.129865e+02	-1.970611e+01
1.136391e+02	-1.975619e+01
1.142955e+02	-1.980614e+01
1.149556e+02	-1.985625e+01
1.156196e+02	-1.990552e+01
1.162874e+02	-1.995548e+01
1.169591e+02	-2.000470e+01
1.176347e+02	-2.005312e+01
1.183141e+02	-2.010303e+01
1.189975e+02	-2.015241e+01
1.196848e+02	-2.020295e+01
1.203761e+02	-2.025125e+01
1.210714e+02	-2.030200e+01
1.217707e+02	-2.035097e+01
1.224740e+02	-2.040042e+01
1.231814e+02	-2.044990e+01
1.238929e+02	-2.049929e+01
1.246085e+02	-2.054901e+01
1.253283e+02	-2.059997e+01
1.260522e+02	-2.064882e+01
1.267802e+02	-2.069888e+01
1.275125e+02	-2.074661e+01
1.282490e+02	-2.079441e+01
1.289898e+02	-2.084717e+01
1.297348e+02	-2.089685e+01
1.304842e+02	-2.094641e+01
1.312378e+02	-2.099519e+01
1.319959e+02	-2.104698e+01
1.327583e+02	-2.109676e+01
1.335251e+02	-2.114580e+01
1.342963e+02	-2.119598e+01
1.350720e+02	-2.124406e+01
1.358522e+02	-2.129404e+01
1.366368e+02	-2.134511e+01
1.374260e+02	-2.139199e+01
1.382198e+02	-2.144188e+01
1.390182e+02	-2.149252e+01
1.398211e+02	-2.154465e+01
1.406287e+02	-2.159057e+01
1.414410e+02	-2.164239e+01
1.422579e+02	-2.169171e+01
1.430796e+02	-2.174069e+01
1.439060e+02	-2.179143e+01
1.447372e+02	-2.183973e+01
1.455732e+02	-2.188875e+01
1.464141e+02	-2.193927e+01
1.472597e+02	-2.198841e+01
1.481103e+02	-2.204003e+01
1.489658e+02	-2.208973e+01
1.498262e+02	-2.213742e+01
1.506916e+02	-2.218843e+01
1.515620e+02	-2.223661e+01
1.524374e+02	-2.228754e+01
1.533179e+02	-2.233695e+01
1.542034e+02	-2.238802e+01
1.550941e+02	-2.243896e+01
1.559899e+02	-2.248733e+01
1.568909e+02	-2.253600e+01
1.577971e+02	-2.258754e+01
1.587085e+02	-2.263681e+01
1.596252e+02	-2.268537e+01
1.605472e+02	-2.273691e+01
1.614745e+02	-2.278686e+01
1.624072e+02	-2.283552e+01
1.633453e+02	-2.288415e+01
1.642887e+02	-2.293290e+01
1.652377e+02	-2.298524e+01
1.661921e+02	-2.303348e+01
1.671520e+02	-2.308230e+01
1.681175e+02	-2.313057e+01
1.690885e+02	-2.318428e+01
1.700651e+02	-2.323298e+01
1.710474e+02	-2.328381e+01
1.720354e+02	-2.333415e+01
1.730291e+02	-2.338455e+01
1.740285e+02	-2.343172e+01
1.750337e+02	-2.348130e+01
1.760446e+02	-2.353336e+01
1.770615e+02	-2.358197e+01
1.780842e+02	-2.363491e+01
1.791128e+02	-2.368328e+01
1.801473e+02	-2.373278e+01
1.811878e+02	-2.378131e+01
1.822344e+02	-2.383226e+01
1.832870e+02	-2.388112e+01
1.843456e+02	-2.393128e+01
1.854104e+02	-2.397981e+01
1.864813e+02	-2.403043e+01
1.875584e+02	-2.408118e+01
1.886418e+02	-2.413274e+01
1.897313e+02	-2.418028e+01
1.908272e+02	-2.422918e+01
1.919294e+02	-2.428059e+01
1.930380e+02	-2.433003e+01
1.941530e+02	-2.437899e+01
1.952744e+02	-2.442920e+01
1.964023e+02	-2.448086e+01
1.975367e+02	-2.453280e+01
1.986777e+02	-2.458155e+01
1.998252e+02	-2.462780e+01
2.009794e+02	-2.467943e+01
2.021403e+02	-2.473100e+01
2.033078e+02	-2.477931e+01
2.044821e+02	-2.483112e+01
2.056632e+02	-2.487933e+01
2.068511e+02	-2.493003e+01
2.080459e+02	-2.497755e+01
2.092475e+02	-2.503270e+01
2.104561e+02	-2.508054e+01
2.116717e+02	-2.512817e+01
2.128943e+02	-2.517467e+01
2.141240e+02	-2.522644e+01
2.153608e+02	-2.527901e+01
2.166047e+02	-2.532921e+01
2.178558e+02	-2.537812e+01
2.191141e+02	-2.542682e+01
2.203797e+02	-2.547737e+01
2.216526e+02	-2.552608e+01
2.229329e+02	-2.557829e+01
2.242205e+02	-2.562750e+01
2.255156e+02	-2.567892e+01
2.268182e+02	-2.572529e+01
2.281283e+02	-2.577599e+01
2.294459e+02	-2.582795e+01
2.307712e+02	-2.587689e+01
2.321041e+02	-2.592609e+01
2.334447e+02	-2.597744e+01
2.347931e+02	-2.602513e+01
2.361493e+02	-2.607840e+01
2.375133e+02	-2.612681e+01
2.388851e+02	-2.617403e+01
2.402649e+02	-2.622960e+01
2.416527e+02	-2.627354e+01
2.430484e+02	-2.632336e+01
2.444523e+02	-2.637835e+01
2.458642e+02	-2.642982e+01
2.472843e+02	-2.647647e+01
2.487126e+02	-2.652863e+01
2.501492e+02	-2.657563e+01
2.515940e+02	-2.662551e+01
2.530472e+02	-2.667248e+01
2.545088e+02	-2.672781e+01
2.559789e+02	-2.677969e+01
2.574574e+02	-2.682717e+01
2.589444e+02	-2.687928e+01
2.604401e+02	-2.693024e+01
2.619444e+02	-2.697748e+01
2.634574e+02	-2.702587e+01
2.649791e+02	-2.707505e+01
2.665096e+02	-2.712859e+01
2.680489e+02	-2.717669e+01
2.695972e+02	-2.722705e+01
2.711544e+02	-2.727905e+01
2.727205e+02	-2.732687e+01
2.742958e+02	-2.737723e+01
2.758801e+02	-2.742960e+01
2.774736e+02	-2.747557e+01
2.790762e+02	-2.752942e+01
2.806882e+02	-2.757649e+01
2.823094e+02	-2.762678e+01
2.839400e+02	-2.767382e+01
2.855800e+02	-2.772512e+01
2.872295e+02	-2.777576e+01
2.888886e+02	-2.782863e+01
2.905572e+02	-2.787585e+01
2.922354e+02	-2.792628e+01
2.939234e+02	-2.797672e+01
2.956211e+02	-2.802756e+01
2.973286e+02	-2.807654e+01
2.990459e+02	-2.812936e+01
3.007732e+02	-2.817509e+01
3.025104e+02	-2.822319e+01
3.042577e+02	-2.827628e+01
3.060151e+02	-2.832605e+01
3.077826e+02	-2.837473e+01
3.095604e+02	-2.842927e+01
3.113484e+02	-2.847655e+01
3.131467e+02	-2.852526e+01
3.149554e+02	-2.857647e+01
3.167746e+02	-2.862767e+01
3.186043e+02	-2.867489e+01
3.204445e+02	-2.872664e+01
3.222954e+02	-2.877725e+01
3.241570e+02	-2.882602e+01
3.260293e+02	-2.887465e+01
3.279124e+02	-2.892689e+01
3.298064e+02	-2.897867e+01
3.317114e+02	-2.902635e+01
3.336273e+02	-2.907837e+01
3.355544e+02	-2.912322e+01
3.374925e+02	-2.917569e+01
3.394418e+02	-2.922923e+01
3.414024e+02	-2.927569e+01
3.433744e+02	-2.933100e+01
3.453577e+02	-2.937441e+01
3.473525e+02	-2.942972e+01
3.493588e+02	-2.947435e+01
3.513766e+02	-2.952962e+01
3.534062e+02	-2.957906e+01
3.554474e+02	-2.962391e+01
3.575005e+02	-2.967874e+01
3.595654e+02	-2.972924e+01
3.616422e+02	-2.977982e+01
3.637311e+02	-2.982505e+01
3.658320e+02	-2.987690e+01
3.679450e+02	-2.992475e+01
3.700702e+02	-2.997911e+01
3.722077e+02	-3.002903e+01
3.743576e+02	-3.007828e+01
3.765199e+02	-3.012570e+01
3.786946e+02	-3.018335e+01
3.808820e+02	-3.022951e+01
3.830819e+02	-3.028349e+01
3.852946e+02	-3.033032e+01
3.875200e+02	-3.038079e+01
3.897583e+02	-3.042867e+01
3.920096e+02	-3.047853e+01
3.942738e+02	-3.052890e+01
3.965511e+02	-3.058000e+01
3.988416e+02	-3.063507e+01
4.011452e+02	-3.067950e+01
4.034622e+02	-3.072815e+01
4.057926e+02	-3.078570e+01
4.081365e+02	-3.082991e+01
4.104938e+02	-3.087767e+01
4.128648e+02	-3.092891e+01
4.152495e+02	-3.098423e+01
4.176480e+02	-3.102716e+01
4.200603e+02	-3.108348e+01
4.224866e+02	-3.113080e+01
4.249268e+02	-3.117928e+01
4.273812e+02	-3.122748e+01
4.298497e+02	-3.127668e+01
4.323325e+02	-3.133183e+01
4.348297e+02	-3.138768e+01
4.373412e+02	-3.143487e+01
4.398673e+02	-3.148637e+01
4.424079e+02	-3.153294e+01
4.449633e+02	-3.157591e+01
4.475334e+02	-3.162651e+01
4.501183e+02	-3.168551e+01
4.527182e+02	-3.173385e+01
4.553330e+02	-3.178710e+01
4.579630e+02	-3.183080e+01
4.606082e+02	-3.188598e+01
4.632687e+02	-3.193427e+01
4.659445e+02	-3.198133e+01
4.686358e+02	-3.203423e+01
4.713426e+02	-3.208561e+01
4.740650e+02	-3.213014e+01
4.768032e+02	-3.218382e+01
4.795572e+02	-3.223719e+01
4.823271e+02	-3.228561e+01
4.851130e+02	-3.233788e+01
4.879150e+02	-3.238462e+01
4.907332e+02	-3.243596e+01
4.935676e+02	-3.248494e+01
4.964185e+02	-3.253540e+01
4.992858e+02	-3.259249e+01
5.021696e+02	-3.264275e+01
5.050701e+02	-3.269125e+01
5.079874e+02	-3.273942e+01
5.109215e+02	-3.278126e+01
5.138726e+02	-3.283844e+01
5.168407e+02	-3.289026e+01
5.198259e+02	-3.292859e+01
5.228284e+02	-3.298894e+01
5.258482e+02	-3.304028e+01
5.288855e+02	-3.308489e+01
5.319403e+02	-3.313693e+01
5.350128e+02	-3.319380e+01
5.381030e+02	-3.323124e+01
5.412111e+02	-3.328496e+01
5.443371e+02	-3.334138e+01
5.474812e+02	-3.338689e+01
5.506434e+02	-3.343797e+01
5.538239e+02	-3.348863e+01
5.570228e+02	-3.353790e+01
5.602401e+02	-3.358801e+01
5.634760e+02	-3.363947e+01
5.667306e+02	-3.369601e+01
5.700040e+02	-3.374245e+01
5.732964e+02	-3.378544e+01
5.766077e+02	-3.384155e+01
5.799382e+02	-3.388905e+01
5.832879e+02	-3.393744e+01
5.866569e+02	-3.398513e+01
5.900454e+02	-3.404077e+01
5.934535e+02	-3.409149e+01
5.968813e+02	-3.414876e+01
6.003288e+02	-3.420065e+01
6.037963e+02	-3.424771e+01
6.072838e+02	-3.429366e+01
6.107914e+02	-3.434443e+01
6.143194e+02	-3.439779e+01
6.178676e+02	-3.444912e+01
6.214364e+02	-3.449087e+01
6.250258e+02	-3.455214e+01
6.286359e+02	-3.459917e+01
6.322669e+02	-3.464831e+01
6.359189e+02	-3.470484e+01
6.395919e+02	-3.475075e+01
6.432862e+02	-3.479980e+01
6.470017e+02	-3.484360e+01
6.507388e+02	-3.489747e+01
6.544974e+02	-3.493949e+01
6.582778e+02	-3.500597e+01
6.620800e+02	-3.505116e+01
6.659041e+02	-3.511061e+01
6.697504e+02	-3.515185e+01
6.736188e+02	-3.521128e+01
6.775096e+02	-3.525422e+01
6.814229e+02	-3.529735e+01
6.853587e+02	-3.534732e+01
6.893173e+02	-3.540136e+01
6.932988e+02	-3.545681e+01
6.973033e+02	-3.550051e+01
7.013309e+02	-3.555601e+01
