Frequency(Hz)	Magnitude(dB)
1.000000e+01	-1.705033e-05
1.005776e+01	-1.724786e-05
1.011585e+01	-1.744768e-05
1.017428e+01	-1.764982e-05
1.023305e+01	-1.785429e-05
1.029215e+01	-1.806114e-05
1.035160e+01	-1.827038e-05
1.041139e+01	-1.848205e-05
1.047153e+01	-1.869617e-05
1.053201e+01	-1.891277e-05
1.059284e+01	-1.913188e-05
1.065403e+01	-1.935353e-05
1.071556e+01	-1.957774e-05
1.077746e+01	-1.980456e-05
1.083971e+01	-2.003400e-05
1.090232e+01	-2.026610e-05
1.096529e+01	-2.050088e-05
1.102862e+01	-2.073839e-05
1.109232e+01	-2.097865e-05
1.115639e+01	-2.122169e-05
1.122083e+01	-2.146755e-05
1.128564e+01	-2.171626e-05
1.135083e+01	-2.196785e-05
1.141639e+01	-2.222235e-05
1.148233e+01	-2.247980e-05
1.154865e+01	-2.274024e-05
1.161536e+01	-2.300369e-05
1.168245e+01	-2.327019e-05
1.174992e+01	-2.353978e-05
1.181779e+01	-2.381250e-05
1.188605e+01	-2.408837e-05
1.195470e+01	-2.436744e-05
1.202375e+01	-2.464974e-05
1.209320e+01	-2.493532e-05
1.216305e+01	-2.522420e-05
1.223330e+01	-2.551643e-05
1.230396e+01	-2.581204e-05
1.237503e+01	-2.611108e-05
1.244651e+01	-2.641358e-05
1.251840e+01	-2.671959e-05
1.259070e+01	-2.702914e-05
1.266343e+01	-2.734228e-05
1.273657e+01	-2.765905e-05
1.281014e+01	-2.797949e-05
1.288413e+01	-2.830364e-05
1.295855e+01	-2.863154e-05
1.303339e+01	-2.896324e-05
1.310867e+01	-2.929879e-05
1.318439e+01	-2.963822e-05
1.326054e+01	-2.998159e-05
1.333713e+01	-3.032893e-05
1.341417e+01	-3.068030e-05
1.349165e+01	-3.103574e-05
1.356958e+01	-3.139530e-05
1.364795e+01	-3.175902e-05
1.372678e+01	-3.212695e-05
1.380607e+01	-3.249915e-05
1.388581e+01	-3.287566e-05
1.396602e+01	-3.325653e-05
1.404668e+01	-3.364182e-05
1.412782e+01	-3.403157e-05
1.420942e+01	-3.442583e-05
1.429149e+01	-3.482466e-05
1.437404e+01	-3.522811e-05
1.445706e+01	-3.563624e-05
1.454057e+01	-3.604909e-05
1.462455e+01	-3.646673e-05
1.470902e+01	-3.688921e-05
1.479398e+01	-3.731658e-05
1.487943e+01	-3.774890e-05
1.496537e+01	-3.818623e-05
1.505181e+01	-3.862862e-05
1.513875e+01	-3.907614e-05
1.522619e+01	-3.952885e-05
1.531414e+01	-3.998680e-05
1.540259e+01	-4.045006e-05
1.549156e+01	-4.091868e-05
1.558103e+01	-4.139273e-05
1.567103e+01	-4.187228e-05
1.576155e+01	-4.235738e-05
1.585258e+01	-4.284810e-05
1.594415e+01	-4.334450e-05
1.603624e+01	-4.384666e-05
1.612886e+01	-4.435463e-05
1.622202e+01	-4.486849e-05
1.631572e+01	-4.538830e-05
1.640996e+01	-4.591413e-05
1.650474e+01	-4.644606e-05
1.660008e+01	-4.698415e-05
1.669596e+01	-4.752847e-05
1.679239e+01	-4.807909e-05
1.688938e+01	-4.863610e-05
1.698694e+01	-4.919956e-05
1.708505e+01	-4.976955e-05
1.718373e+01	-5.034614e-05
1.728299e+01	-5.092941e-05
1.738281e+01	-5.151944e-05
1.748322e+01	-5.211630e-05
1.758420e+01	-5.272008e-05
1.768576e+01	-5.333085e-05
1.778792e+01	-5.394870e-05
1.789066e+01	-5.457371e-05
1.799399e+01	-5.520596e-05
1.809793e+01	-5.584553e-05
1.820246e+01	-5.649251e-05
1.830760e+01	-5.714699e-05
1.841334e+01	-5.780905e-05
1.851969e+01	-5.847878e-05
1.862666e+01	-5.915626e-05
1.873425e+01	-5.984160e-05
1.884246e+01	-6.053488e-05
1.895129e+01	-6.123619e-05
1.906075e+01	-6.194562e-05
1.917085e+01	-6.266327e-05
1.928158e+01	-6.338924e-05
1.939295e+01	-6.412362e-05
1.950496e+01	-6.486650e-05
1.961762e+01	-6.561799e-05
1.973093e+01	-6.637819e-05
1.984490e+01	-6.714719e-05
1.995952e+01	-6.792511e-05
2.007480e+01	-6.871203e-05
2.019076e+01	-6.950807e-05
2.030738e+01	-7.031334e-05
2.042467e+01	-7.112793e-05
2.054264e+01	-7.195196e-05
2.066130e+01	-7.278554e-05
2.078064e+01	-7.362877e-05
2.090066e+01	-7.448177e-05
2.102139e+01	-7.534466e-05
2.114280e+01	-7.621754e-05
2.126492e+01	-7.710053e-05
2.138775e+01	-7.799375e-05
2.151128e+01	-7.889733e-05
2.163553e+01	-7.981136e-05
2.176050e+01	-8.073599e-05
2.188619e+01	-8.167133e-05
2.201260e+01	-8.261751e-05
2.213974e+01	-8.357465e-05
2.226762e+01	-8.454287e-05
2.239624e+01	-8.552232e-05
2.252560e+01	-8.651311e-05
2.265571e+01	-8.751538e-05
2.278656e+01	-8.852926e-05
2.291818e+01	-8.955488e-05
2.305055e+01	-9.059239e-05
2.318369e+01	-9.164192e-05
2.331760e+01	-9.270360e-05
2.345228e+01	-9.377759e-05
2.358774e+01	-9.486401e-05
2.372398e+01	-9.596303e-05
2.386101e+01	-9.707477e-05
2.399883e+01	-9.819940e-05
2.413745e+01	-9.933705e-05
2.427686e+01	-1.004879e-04
2.441709e+01	-1.016521e-04
2.455812e+01	-1.028297e-04
2.469997e+01	-1.040210e-04
2.484263e+01	-1.052261e-04
2.498612e+01	-1.064452e-04
2.513044e+01	-1.076783e-04
2.527559e+01	-1.089258e-04
2.542158e+01	-1.101877e-04
2.556842e+01	-1.114643e-04
2.571610e+01	-1.127556e-04
2.586463e+01	-1.140619e-04
2.601403e+01	-1.153833e-04
2.616428e+01	-1.167200e-04
2.631541e+01	-1.180723e-04
2.646740e+01	-1.194401e-04
2.662028e+01	-1.208239e-04
2.677404e+01	-1.222236e-04
2.692868e+01	-1.236396e-04
2.708422e+01	-1.250720e-04
2.724066e+01	-1.265209e-04
2.739800e+01	-1.279867e-04
2.755625e+01	-1.294694e-04
2.771541e+01	-1.309694e-04
2.787550e+01	-1.324867e-04
2.803650e+01	-1.340215e-04
2.819844e+01	-1.355742e-04
2.836131e+01	-1.371448e-04
2.852513e+01	-1.387337e-04
2.868989e+01	-1.403409e-04
2.885560e+01	-1.419668e-04
2.902227e+01	-1.436115e-04
2.918990e+01	-1.452752e-04
2.935850e+01	-1.469582e-04
2.952807e+01	-1.486608e-04
2.969863e+01	-1.503830e-04
2.987016e+01	-1.521252e-04
3.004269e+01	-1.538876e-04
3.021622e+01	-1.556704e-04
3.039075e+01	-1.574738e-04
3.056628e+01	-1.592982e-04
3.074283e+01	-1.611437e-04
3.092040e+01	-1.630105e-04
3.109900e+01	-1.648990e-04
3.127862e+01	-1.668094e-04
3.145929e+01	-1.687419e-04
3.164099e+01	-1.706967e-04
3.182375e+01	-1.726743e-04
3.200756e+01	-1.746747e-04
3.219244e+01	-1.766983e-04
3.237838e+01	-1.787454e-04
3.256540e+01	-1.808162e-04
3.275349e+01	-1.829109e-04
3.294268e+01	-1.850300e-04
3.313295e+01	-1.871735e-04
3.332433e+01	-1.893419e-04
3.351681e+01	-1.915355e-04
3.371040e+01	-1.937544e-04
3.390511e+01	-1.959991e-04
3.410094e+01	-1.982697e-04
3.429791e+01	-2.005667e-04
3.449601e+01	-2.028902e-04
3.469526e+01	-2.052407e-04
3.489566e+01	-2.076184e-04
3.509721e+01	-2.100237e-04
3.529993e+01	-2.124568e-04
3.550382e+01	-2.149181e-04
3.570889e+01	-2.174080e-04
3.591515e+01	-2.199266e-04
3.612259e+01	-2.224745e-04
3.633123e+01	-2.250518e-04
3.654108e+01	-2.276590e-04
3.675214e+01	-2.302965e-04
3.696442e+01	-2.329644e-04
3.717792e+01	-2.356633e-04
3.739266e+01	-2.383935e-04
3.760864e+01	-2.411553e-04
3.782587e+01	-2.439490e-04
3.804435e+01	-2.467752e-04
3.826409e+01	-2.496340e-04
3.848510e+01	-2.525260e-04
3.870739e+01	-2.554515e-04
3.893096e+01	-2.584109e-04
3.915583e+01	-2.614046e-04
3.938199e+01	-2.644330e-04
3.960946e+01	-2.674964e-04
3.983824e+01	-2.705953e-04
4.006834e+01	-2.737301e-04
4.029978e+01	-2.769013e-04
4.053255e+01	-2.801091e-04
4.076666e+01	-2.833542e-04
4.100213e+01	-2.866368e-04
4.123896e+01	-2.899575e-04
4.147715e+01	-2.933166e-04
4.171672e+01	-2.967146e-04
4.195767e+01	-3.001520e-04
4.220002e+01	-3.036293e-04
4.244377e+01	-3.071468e-04
4.268892e+01	-3.107050e-04
4.293549e+01	-3.143045e-04
4.318348e+01	-3.179457e-04
4.343291e+01	-3.216290e-04
4.368377e+01	-3.253550e-04
4.393609e+01	-3.291242e-04
4.418986e+01	-3.329371e-04
4.444510e+01	-3.367941e-04
4.470182e+01	-3.406958e-04
4.496001e+01	-3.446427e-04
4.521970e+01	-3.486353e-04
4.548089e+01	-3.526742e-04
4.574358e+01	-3.567598e-04
4.600779e+01	-3.608928e-04
4.627353e+01	-3.650737e-04
4.654081e+01	-3.693030e-04
4.680963e+01	-3.735813e-04
4.708000e+01	-3.779091e-04
4.735193e+01	-3.822871e-04
4.762543e+01	-3.867158e-04
4.790051e+01	-3.911959e-04
4.817719e+01	-3.957278e-04
4.845545e+01	-4.003122e-04
4.873533e+01	-4.049497e-04
4.901682e+01	-4.096409e-04
4.929994e+01	-4.143865e-04
4.958470e+01	-4.191870e-04
4.987110e+01	-4.240432e-04
5.015915e+01	-4.289556e-04
5.044887e+01	-4.339249e-04
5.074026e+01	-4.389518e-04
5.103333e+01	-4.440369e-04
5.132810e+01	-4.491810e-04
5.162457e+01	-4.543846e-04
5.192275e+01	-4.596485e-04
5.222265e+01	-4.649733e-04
5.252429e+01	-4.703599e-04
5.282767e+01	-4.758088e-04
5.313280e+01	-4.813209e-04
5.343969e+01	-4.868968e-04
5.374836e+01	-4.925373e-04
5.405880e+01	-4.982432e-04
5.437105e+01	-5.040152e-04
5.468509e+01	-5.098540e-04
5.500095e+01	-5.157604e-04
5.531863e+01	-5.217353e-04
5.563815e+01	-5.277794e-04
5.595951e+01	-5.338935e-04
5.628273e+01	-5.400784e-04
5.660782e+01	-5.463349e-04
5.693479e+01	-5.526640e-04
5.726364e+01	-5.590663e-04
5.759439e+01	-5.655428e-04
5.792705e+01	-5.720944e-04
5.826164e+01	-5.787218e-04
5.859815e+01	-5.854260e-04
5.893662e+01	-5.922079e-04
5.927703e+01	-5.990683e-04
5.961941e+01	-6.060082e-04
5.996377e+01	-6.130284e-04
6.031012e+01	-6.201300e-04
6.065847e+01	-6.273139e-04
6.100883e+01	-6.345810e-04
6.136121e+01	-6.419322e-04
6.171563e+01	-6.493686e-04
6.207210e+01	-6.568912e-04
6.243063e+01	-6.645009e-04
6.279122e+01	-6.721987e-04
6.315390e+01	-6.799857e-04
6.351868e+01	-6.878629e-04
6.388556e+01	-6.958313e-04
6.425456e+01	-7.038921e-04
6.462569e+01	-7.120462e-04
6.499897e+01	-7.202947e-04
6.537440e+01	-7.286389e-04
6.575200e+01	-7.370796e-04
6.613178e+01	-7.456182e-04
6.651375e+01	-7.542556e-04
6.689793e+01	-7.629931e-04
6.728433e+01	-7.718318e-04
6.767297e+01	-7.807729e-04
6.806384e+01	-7.898175e-04
6.845698e+01	-7.989669e-04
6.885238e+01	-8.082223e-04
6.925007e+01	-8.175849e-04
6.965005e+01	-8.270559e-04
7.005235e+01	-8.366367e-04
7.045697e+01	-8.463284e-04
7.086393e+01	-8.561324e-04
7.127323e+01	-8.660499e-04
7.168490e+01	-8.760823e-04
7.209895e+01	-8.862310e-04
7.251539e+01	-8.964971e-04
7.293424e+01	-9.068822e-04
7.335551e+01	-9.173876e-04
7.377920e+01	-9.280146e-04
7.420535e+01	-9.387648e-04
7.463396e+01	-9.496394e-04
7.506504e+01	-9.606400e-04
7.549861e+01	-9.717681e-04
7.593469e+01	-9.830250e-04
7.637328e+01	-9.944123e-04
7.681441e+01	-1.005932e-03
7.725809e+01	-1.017584e-03
7.770433e+01	-1.029372e-03
7.815315e+01	-1.041296e-03
7.860456e+01	-1.053358e-03
7.905857e+01	-1.065560e-03
7.951521e+01	-1.077903e-03
7.997449e+01	-1.090390e-03
8.043642e+01	-1.103020e-03
8.090102e+01	-1.115798e-03
8.136830e+01	-1.128723e-03
8.183828e+01	-1.141797e-03
8.231097e+01	-1.155024e-03
8.278640e+01	-1.168403e-03
8.326457e+01	-1.181938e-03
8.374550e+01	-1.195629e-03
8.422921e+01	-1.209479e-03
8.471572e+01	-1.223489e-03
8.520503e+01	-1.237661e-03
8.569717e+01	-1.251998e-03
8.619215e+01	-1.266500e-03
8.669000e+01	-1.281171e-03
8.719071e+01	-1.296011e-03
8.769432e+01	-1.311024e-03
8.820084e+01	-1.326210e-03
8.871029e+01	-1.341572e-03
8.922267e+01	-1.357112e-03
8.973802e+01	-1.372832e-03
9.025634e+01	-1.388734e-03
9.077766e+01	-1.404821e-03
9.130199e+01	-1.421093e-03
9.182935e+01	-1.437554e-03
9.235975e+01	-1.454206e-03
9.289321e+01	-1.471050e-03
9.342976e+01	-1.488090e-03
9.396941e+01	-1.505327e-03
9.451217e+01	-1.522763e-03
9.505807e+01	-1.540402e-03
9.560712e+01	-1.558245e-03
9.615934e+01	-1.576294e-03
9.671476e+01	-1.594553e-03
9.727338e+01	-1.613022e-03
9.783522e+01	-1.631706e-03
9.840032e+01	-1.650606e-03
9.896867e+01	-1.669725e-03
9.954031e+01	-1.689066e-03
1.001153e+02	-1.708630e-03
1.006935e+02	-1.728421e-03
1.012751e+02	-1.748441e-03
1.018601e+02	-1.768694e-03
1.024484e+02	-1.789180e-03
1.030402e+02	-1.809904e-03
1.036353e+02	-1.830868e-03
1.042339e+02	-1.852074e-03
1.048360e+02	-1.873526e-03
1.054415e+02	-1.895227e-03
1.060505e+02	-1.917179e-03
1.066631e+02	-1.939385e-03
1.072791e+02	-1.961848e-03
1.078988e+02	-1.984571e-03
1.085220e+02	-2.007558e-03
1.091488e+02	-2.030811e-03
1.097793e+02	-2.054332e-03
1.104133e+02	-2.078127e-03
1.110511e+02	-2.102197e-03
1.116925e+02	-2.126545e-03
1.123376e+02	-2.151176e-03
1.129865e+02	-2.176091e-03
1.136391e+02	-2.201295e-03
1.142955e+02	-2.226792e-03
1.149556e+02	-2.252583e-03
1.156196e+02	-2.278673e-03
1.162874e+02	-2.305065e-03
1.169591e+02	-2.331762e-03
1.176347e+02	-2.358769e-03
1.183141e+02	-2.386089e-03
1.189975e+02	-2.413724e-03
1.196848e+02	-2.441680e-03
1.203761e+02	-2.469960e-03
1.210714e+02	-2.498566e-03
1.217707e+02	-2.527505e-03
1.224740e+02	-2.556778e-03
1.231814e+02	-2.586390e-03
1.238929e+02	-2.616345e-03
1.246085e+02	-2.646647e-03
1.253283e+02	-2.677299e-03
1.260522e+02	-2.708307e-03
1.267802e+02	-2.739673e-03
1.275125e+02	-2.771403e-03
1.282490e+02	-2.803500e-03
1.289898e+02	-2.835969e-03
1.297348e+02	-2.868813e-03
1.304842e+02	-2.902038e-03
1.312378e+02	-2.935648e-03
1.319959e+02	-2.969646e-03
1.327583e+02	-3.004038e-03
1.335251e+02	-3.038829e-03
1.342963e+02	-3.074022e-03
1.350720e+02	-3.109622e-03
1.358522e+02	-3.145635e-03
1.366368e+02	-3.182065e-03
1.374260e+02	-3.218916e-03
1.382198e+02	-3.256194e-03
1.390182e+02	-3.293904e-03
1.398211e+02	-3.332050e-03
1.406287e+02	-3.370637e-03
1.414410e+02	-3.409672e-03
1.422579e+02	-3.449158e-03
1.430796e+02	-3.489101e-03
1.439060e+02	-3.529507e-03
1.447372e+02	-3.570380e-03
1.455732e+02	-3.611727e-03
1.464141e+02	-3.653552e-03
1.472597e+02	-3.695861e-03
1.481103e+02	-3.738661e-03
1.489658e+02	-3.781955e-03
1.498262e+02	-3.825751e-03
1.506916e+02	-3.870053e-03
1.515620e+02	-3.914868e-03
1.524374e+02	-3.960202e-03
1.533179e+02	-4.006061e-03
1.542034e+02	-4.052451e-03
1.550941e+02	-4.099377e-03
1.559899e+02	-4.146847e-03
1.568909e+02	-4.194866e-03
1.577971e+02	-4.243441e-03
1.587085e+02	-4.292578e-03
1.596252e+02	-4.342283e-03
1.605472e+02	-4.392564e-03
1.614745e+02	-4.443427e-03
1.624072e+02	-4.494879e-03
1.633453e+02	-4.546926e-03
1.642887e+02	-4.599575e-03
1.652377e+02	-4.652834e-03
1.661921e+02	-4.706709e-03
1.671520e+02	-4.761207e-03
1.681175e+02	-4.816337e-03
1.690885e+02	-4.872104e-03
1.700651e+02	-4.928516e-03
1.710474e+02	-4.985581e-03
1.720354e+02	-5.043307e-03
1.730291e+02	-5.101701e-03
1.740285e+02	-5.160770e-03
1.750337e+02	-5.220523e-03
1.760446e+02	-5.280967e-03
1.770615e+02	-5.342111e-03
1.780842e+02	-5.403962e-03
1.791128e+02	-5.466528e-03
1.801473e+02	-5.529819e-03
1.811878e+02	-5.593842e-03
1.822344e+02	-5.658606e-03
1.832870e+02	-5.724119e-03
1.843456e+02	-5.790390e-03
1.854104e+02	-5.857428e-03
1.864813e+02	-5.925241e-03
1.875584e+02	-5.993839e-03
1.886418e+02	-6.063231e-03
1.897313e+02	-6.133425e-03
1.908272e+02	-6.204431e-03
1.919294e+02	-6.276259e-03
1.930380e+02	-6.348918e-03
1.941530e+02	-6.422417e-03
1.952744e+02	-6.496767e-03
1.964023e+02	-6.571976e-03
1.975367e+02	-6.648056e-03
1.986777e+02	-6.725016e-03
1.998252e+02	-6.802865e-03
2.009794e+02	-6.881616e-03
2.021403e+02	-6.961277e-03
2.033078e+02	-7.041859e-03
2.044821e+02	-7.123374e-03
2.056632e+02	-7.205831e-03
2.068511e+02	-7.289243e-03
2.080459e+02	-7.373618e-03
2.092475e+02	-7.458970e-03
2.104561e+02	-7.545309e-03
2.116717e+02	-7.632646e-03
2.128943e+02	-7.720993e-03
2.141240e+02	-7.810362e-03
2.153608e+02	-7.900765e-03
2.166047e+02	-7.992213e-03
2.178558e+02	-8.084718e-03
2.191141e+02	-8.178293e-03
2.203797e+02	-8.272950e-03
2.216526e+02	-8.368702e-03
2.229329e+02	-8.465560e-03
2.242205e+02	-8.563539e-03
2.255156e+02	-8.662650e-03
2.268182e+02	-8.762908e-03
2.281283e+02	-8.864324e-03
2.294459e+02	-8.966914e-03
2.307712e+02	-9.070689e-03
2.321041e+02	-9.175663e-03
2.334447e+02	-9.281852e-03
2.347931e+02	-9.389268e-03
2.361493e+02	-9.497925e-03
2.375133e+02	-9.607839e-03
2.388851e+02	-9.719023e-03
2.402649e+02	-9.831493e-03
2.416527e+02	-9.945262e-03
2.430484e+02	-1.006035e-02
2.444523e+02	-1.017676e-02
2.458642e+02	-1.029452e-02
2.472843e+02	-1.041364e-02
2.487126e+02	-1.053414e-02
2.501492e+02	-1.065603e-02
2.515940e+02	-1.077933e-02
2.530472e+02	-1.090405e-02
2.545088e+02	-1.103022e-02
2.559789e+02	-1.115784e-02
2.574574e+02	-1.128694e-02
2.589444e+02	-1.141753e-02
2.604401e+02	-1.154963e-02
2.619444e+02	-1.168325e-02
2.634574e+02	-1.181842e-02
2.649791e+02	-1.195515e-02
2.665096e+02	-1.209346e-02
2.680489e+02	-1.223337e-02
2.695972e+02	-1.237489e-02
2.711544e+02	-1.251805e-02
2.727205e+02	-1.266286e-02
2.742958e+02	-1.280935e-02
2.758801e+02	-1.295753e-02
2.774736e+02	-1.310742e-02
2.790762e+02	-1.325904e-02
2.806882e+02	-1.341241e-02
2.823094e+02	-1.356755e-02
2.839400e+02	-1.372448e-02
2.855800e+02	-1.388323e-02
2.872295e+02	-1.404381e-02
2.888886e+02	-1.420624e-02
2.905572e+02	-1.437055e-02
2.922354e+02	-1.453676e-02
2.939234e+02	-1.470489e-02
2.956211e+02	-1.487495e-02
2.973286e+02	-1.504698e-02
2.990459e+02	-1.522100e-02
3.007732e+02	-1.539703e-02
3.025104e+02	-1.557508e-02
3.042577e+02	-1.575520e-02
3.060151e+02	-1.593739e-02
3.077826e+02	-1.612168e-02
3.095604e+02	-1.630810e-02
3.113484e+02	-1.649668e-02
3.131467e+02	-1.668743e-02
3.149554e+02	-1.688038e-02
3.167746e+02	-1.707555e-02
3.186043e+02	-1.727298e-02
3.204445e+02	-1.747269e-02
3.222954e+02	-1.767470e-02
3.241570e+02	-1.787905e-02
3.260293e+02	-1.808575e-02
3.279124e+02	-1.829483e-02
3.298064e+02	-1.850633e-02
3.317114e+02	-1.872027e-02
3.336273e+02	-1.893667e-02
3.355544e+02	-1.915557e-02
3.374925e+02	-1.937700e-02
3.394418e+02	-1.960097e-02
3.414024e+02	-1.982754e-02
3.433744e+02	-2.005671e-02
3.453577e+02	-2.028853e-02
3.473525e+02	-2.052302e-02
3.493588e+02	-2.076021e-02
3.513766e+02	-2.100014e-02
3.534062e+02	-2.124284e-02
3.554474e+02	-2.148833e-02
3.575005e+02	-2.173665e-02
3.595654e+02	-2.198784e-02
3.616422e+02	-2.224192e-02
3.637311e+02	-2.249892e-02
3.658320e+02	-2.275889e-02
3.679450e+02	-2.302186e-02
3.700702e+02	-2.328786e-02
3.722077e+02	-2.355692e-02
3.743576e+02	-2.382908e-02
3.765199e+02	-2.410438e-02
3.786946e+02	-2.438284e-02
3.808820e+02	-2.466452e-02
3.830819e+02	-2.494944e-02
3.852946e+02	-2.523764e-02
3.875200e+02	-2.552917e-02
3.897583e+02	-2.582405e-02
3.920096e+02	-2.612232e-02
3.942738e+02	-2.642403e-02
3.965511e+02	-2.672921e-02
3.988416e+02	-2.703791e-02
4.011452e+02	-2.735016e-02
4.034622e+02	-2.766601e-02
4.057926e+02	-2.798549e-02
4.081365e+02	-2.830865e-02
4.104938e+02	-2.863553e-02
4.128648e+02	-2.896617e-02
4.152495e+02	-2.930061e-02
4.176480e+02	-2.963890e-02
4.200603e+02	-2.998109e-02
4.224866e+02	-3.032721e-02
4.249268e+02	-3.067731e-02
4.273812e+02	-3.103144e-02
4.298497e+02	-3.138965e-02
4.323325e+02	-3.175197e-02
4.348297e+02	-3.211846e-02
4.373412e+02	-3.248916e-02
4.398673e+02	-3.286413e-02
4.424079e+02	-3.324341e-02
4.449633e+02	-3.362705e-02
4.475334e+02	-3.401509e-02
4.501183e+02	-3.440760e-02
4.527182e+02	-3.480462e-02
4.553330e+02	-3.520620e-02
4.579630e+02	-3.561239e-02
4.606082e+02	-3.602326e-02
4.632687e+02	-3.643884e-02
4.659445e+02	-3.685920e-02
4.686358e+02	-3.728438e-02
4.713426e+02	-3.771445e-02
4.740650e+02	-3.814945e-02
4.768032e+02	-3.858946e-02
4.795572e+02	-3.903451e-02
4.823271e+02	-3.948467e-02
4.851130e+02	-3.994000e-02
4.879150e+02	-4.040056e-02
4.907332e+02	-4.086640e-02
4.935676e+02	-4.133759e-02
4.964185e+02	-4.181419e-02
4.992858e+02	-4.229625e-02
5.021696e+02	-4.278384e-02
5.050701e+02	-4.327703e-02
5.079874e+02	-4.377587e-02
5.109215e+02	-4.428043e-02
5.138726e+02	-4.479078e-02
5.168407e+02	-4.530698e-02
5.198259e+02	-4.582909e-02
5.228284e+02	-4.635720e-02
5.258482e+02	-4.689135e-02
5.288855e+02	-4.743162e-02
5.319403e+02	-4.797809e-02
5.350128e+02	-4.853081e-02
5.381030e+02	-4.908987e-02
5.412111e+02	-4.965533e-02
5.443371e+02	-5.022727e-02
5.474812e+02	-5.080575e-02
5.506434e+02	-5.139086e-02
5.538239e+02	-5.198267e-02
5.570228e+02	-5.258125e-02
5.602401e+02	-5.318668e-02
5.634760e+02	-5.379903e-02
5.667306e+02	-5.441840e-02
5.700040e+02	-5.504484e-02
5.732964e+02	-5.567846e-02
5.766077e+02	-5.631932e-02
5.799382e+02	-5.696750e-02
5.832879e+02	-5.762310e-02
5.866569e+02	-5.828619e-02
5.900454e+02	-5.895686e-02
5.934535e+02	-5.963520e-02
5.968813e+02	-6.032128e-02
6.003288e+02	-6.101520e-02
6.037963e+02	-6.171705e-02
6.072838e+02	-6.242691e-02
6.107914e+02	-6.314488e-02
6.143194e+02	-6.387104e-02
6.178676e+02	-6.460549e-02
6.214364e+02	-6.534833e-02
6.250258e+02	-6.609964e-02
6.286359e+02	-6.685952e-02
6.322669e+02	-6.762806e-02
6.359189e+02	-6.840538e-02
6.395919e+02	-6.919155e-02
6.432862e+02	-6.998669e-02
6.470017e+02	-7.079089e-02
6.507388e+02	-7.160426e-02
6.544974e+02	-7.242689e-02
6.582778e+02	-7.325889e-02
6.620800e+02	-7.410037e-02
6.659041e+02	-7.495143e-02
6.697504e+02	-7.581218e-02
6.736188e+02	-7.668273e-02
6.775096e+02	-7.756318e-02
6.814229e+02	-7.845365e-02
6.853587e+02	-7.935425e-02
6.893173e+02	-8.026510e-02
6.932988e+02	-8.118630e-02
6.973033e+02	-8.211797e-02
7.013309e+02	-8.306023e-02
