Frequency(Hz)	Magnitude(dB)
1.000000e+01	-1.848411e-05
1.005776e+01	-1.869825e-05
1.011585e+01	-1.891488e-05
1.017428e+01	-1.913401e-05
1.023305e+01	-1.935568e-05
1.029215e+01	-1.957992e-05
1.035160e+01	-1.980676e-05
1.041139e+01	-2.003623e-05
1.047153e+01	-2.026835e-05
1.053201e+01	-2.050317e-05
1.059284e+01	-2.074070e-05
1.065403e+01	-2.098099e-05
1.071556e+01	-2.122406e-05
1.077746e+01	-2.146994e-05
1.083971e+01	-2.171868e-05
1.090232e+01	-2.197030e-05
1.096529e+01	-2.222483e-05
1.102862e+01	-2.248231e-05
1.109232e+01	-2.274277e-05
1.115639e+01	-2.300625e-05
1.122083e+01	-2.327278e-05
1.128564e+01	-2.354240e-05
1.135083e+01	-2.381515e-05
1.141639e+01	-2.409105e-05
1.148233e+01	-2.437015e-05
1.154865e+01	-2.465249e-05
1.161536e+01	-2.493809e-05
1.168245e+01	-2.522701e-05
1.174992e+01	-2.551927e-05
1.181779e+01	-2.581492e-05
1.188605e+01	-2.611399e-05
1.195470e+01	-2.641652e-05
1.202375e+01	-2.672257e-05
1.209320e+01	-2.703215e-05
1.216305e+01	-2.734533e-05
1.223330e+01	-2.766213e-05
1.230396e+01	-2.798260e-05
1.237503e+01	-2.830679e-05
1.244651e+01	-2.863473e-05
1.251840e+01	-2.896647e-05
1.259070e+01	-2.930205e-05
1.266343e+01	-2.964152e-05
1.273657e+01	-2.998493e-05
1.281014e+01	-3.033231e-05
1.288413e+01	-3.068372e-05
1.295855e+01	-3.103920e-05
1.303339e+01	-3.139879e-05
1.310867e+01	-3.176256e-05
1.318439e+01	-3.213053e-05
1.326054e+01	-3.250277e-05
1.333713e+01	-3.287932e-05
1.341417e+01	-3.326024e-05
1.349165e+01	-3.364557e-05
1.356958e+01	-3.403536e-05
1.364795e+01	-3.442967e-05
1.372678e+01	-3.482854e-05
1.380607e+01	-3.523204e-05
1.388581e+01	-3.564021e-05
1.396602e+01	-3.605311e-05
1.404668e+01	-3.647079e-05
1.412782e+01	-3.689332e-05
1.420942e+01	-3.732073e-05
1.429149e+01	-3.775310e-05
1.437404e+01	-3.819048e-05
1.445706e+01	-3.863293e-05
1.454057e+01	-3.908050e-05
1.462455e+01	-3.953325e-05
1.470902e+01	-3.999126e-05
1.479398e+01	-4.045456e-05
1.487943e+01	-4.092324e-05
1.496537e+01	-4.139734e-05
1.505181e+01	-4.187694e-05
1.513875e+01	-4.236210e-05
1.522619e+01	-4.285287e-05
1.531414e+01	-4.334933e-05
1.540259e+01	-4.385154e-05
1.549156e+01	-4.435957e-05
1.558103e+01	-4.487349e-05
1.567103e+01	-4.539336e-05
1.576155e+01	-4.591925e-05
1.585258e+01	-4.645123e-05
1.594415e+01	-4.698938e-05
1.603624e+01	-4.753376e-05
1.612886e+01	-4.808445e-05
1.622202e+01	-4.864152e-05
1.631572e+01	-4.920504e-05
1.640996e+01	-4.977509e-05
1.650474e+01	-5.035175e-05
1.660008e+01	-5.093508e-05
1.669596e+01	-5.152518e-05
1.679239e+01	-5.212211e-05
1.688938e+01	-5.272595e-05
1.698694e+01	-5.333679e-05
1.708505e+01	-5.395471e-05
1.718373e+01	-5.457979e-05
1.728299e+01	-5.521211e-05
1.738281e+01	-5.585175e-05
1.748322e+01	-5.649880e-05
1.758420e+01	-5.715335e-05
1.768576e+01	-5.781549e-05
1.778792e+01	-5.848529e-05
1.789066e+01	-5.916286e-05
1.799399e+01	-5.984827e-05
1.809793e+01	-6.054162e-05
1.820246e+01	-6.124301e-05
1.830760e+01	-6.195252e-05
1.841334e+01	-6.267025e-05
1.851969e+01	-6.339630e-05
1.862666e+01	-6.413076e-05
1.873425e+01	-6.487373e-05
1.884246e+01	-6.562530e-05
1.895129e+01	-6.638558e-05
1.906075e+01	-6.715467e-05
1.917085e+01	-6.793267e-05
1.928158e+01	-6.871969e-05
1.939295e+01	-6.951582e-05
1.950496e+01	-7.032117e-05
1.961762e+01	-7.113585e-05
1.973093e+01	-7.195997e-05
1.984490e+01	-7.279364e-05
1.995952e+01	-7.363697e-05
2.007480e+01	-7.449007e-05
2.019076e+01	-7.535305e-05
2.030738e+01	-7.622603e-05
2.042467e+01	-7.710912e-05
2.054264e+01	-7.800244e-05
2.066130e+01	-7.890612e-05
2.078064e+01	-7.982026e-05
2.090066e+01	-8.074499e-05
2.102139e+01	-8.168043e-05
2.114280e+01	-8.262671e-05
2.126492e+01	-8.358396e-05
2.138775e+01	-8.455229e-05
2.151128e+01	-8.553184e-05
2.163553e+01	-8.652274e-05
2.176050e+01	-8.752513e-05
2.188619e+01	-8.853912e-05
2.201260e+01	-8.956486e-05
2.213974e+01	-9.060248e-05
2.226762e+01	-9.165212e-05
2.239624e+01	-9.271393e-05
2.252560e+01	-9.378803e-05
2.265571e+01	-9.487458e-05
2.278656e+01	-9.597372e-05
2.291818e+01	-9.708559e-05
2.305055e+01	-9.821034e-05
2.318369e+01	-9.934812e-05
2.331760e+01	-1.004991e-04
2.345228e+01	-1.016634e-04
2.358774e+01	-1.028412e-04
2.372398e+01	-1.040326e-04
2.386101e+01	-1.052378e-04
2.399883e+01	-1.064570e-04
2.413745e+01	-1.076903e-04
2.427686e+01	-1.089379e-04
2.441709e+01	-1.102000e-04
2.455812e+01	-1.114767e-04
2.469997e+01	-1.127682e-04
2.484263e+01	-1.140746e-04
2.498612e+01	-1.153962e-04
2.513044e+01	-1.167330e-04
2.527559e+01	-1.180854e-04
2.542158e+01	-1.194534e-04
2.556842e+01	-1.208373e-04
2.571610e+01	-1.222372e-04
2.586463e+01	-1.236534e-04
2.601403e+01	-1.250859e-04
2.616428e+01	-1.265350e-04
2.631541e+01	-1.280010e-04
2.646740e+01	-1.294839e-04
2.662028e+01	-1.309840e-04
2.677404e+01	-1.325014e-04
2.692868e+01	-1.340365e-04
2.708422e+01	-1.355893e-04
2.724066e+01	-1.371601e-04
2.739800e+01	-1.387491e-04
2.755625e+01	-1.403565e-04
2.771541e+01	-1.419826e-04
2.787550e+01	-1.436275e-04
2.803650e+01	-1.452914e-04
2.819844e+01	-1.469746e-04
2.836131e+01	-1.486773e-04
2.852513e+01	-1.503998e-04
2.868989e+01	-1.521422e-04
2.885560e+01	-1.539047e-04
2.902227e+01	-1.556877e-04
2.918990e+01	-1.574914e-04
2.935850e+01	-1.593159e-04
2.952807e+01	-1.611616e-04
2.969863e+01	-1.630287e-04
2.987016e+01	-1.649174e-04
3.004269e+01	-1.668280e-04
3.021622e+01	-1.687607e-04
3.039075e+01	-1.707158e-04
3.056628e+01	-1.726935e-04
3.074283e+01	-1.746942e-04
3.092040e+01	-1.767180e-04
3.109900e+01	-1.787653e-04
3.127862e+01	-1.808363e-04
3.145929e+01	-1.829313e-04
3.164099e+01	-1.850506e-04
3.182375e+01	-1.871944e-04
3.200756e+01	-1.893630e-04
3.219244e+01	-1.915568e-04
3.237838e+01	-1.937760e-04
3.256540e+01	-1.960209e-04
3.275349e+01	-1.982918e-04
3.294268e+01	-2.005890e-04
3.313295e+01	-2.029128e-04
3.332433e+01	-2.052636e-04
3.351681e+01	-2.076416e-04
3.371040e+01	-2.100471e-04
3.390511e+01	-2.124805e-04
3.410094e+01	-2.149421e-04
3.429791e+01	-2.174322e-04
3.449601e+01	-2.199511e-04
3.469526e+01	-2.224993e-04
3.489566e+01	-2.250769e-04
3.509721e+01	-2.276844e-04
3.529993e+01	-2.303221e-04
3.550382e+01	-2.329904e-04
3.570889e+01	-2.356896e-04
3.591515e+01	-2.384200e-04
3.612259e+01	-2.411821e-04
3.633123e+01	-2.439762e-04
3.654108e+01	-2.468027e-04
3.675214e+01	-2.496619e-04
3.696442e+01	-2.525542e-04
3.717792e+01	-2.554800e-04
3.739266e+01	-2.584397e-04
3.760864e+01	-2.614337e-04
3.782587e+01	-2.644624e-04
3.804435e+01	-2.675262e-04
3.826409e+01	-2.706255e-04
3.848510e+01	-2.737606e-04
3.870739e+01	-2.769321e-04
3.893096e+01	-2.801404e-04
3.915583e+01	-2.833858e-04
3.938199e+01	-2.866687e-04
3.960946e+01	-2.899898e-04
3.983824e+01	-2.933493e-04
4.006834e+01	-2.967477e-04
4.029978e+01	-3.001855e-04
4.053255e+01	-3.036631e-04
4.076666e+01	-3.071810e-04
4.100213e+01	-3.107396e-04
4.123896e+01	-3.143395e-04
4.147715e+01	-3.179811e-04
4.171672e+01	-3.216648e-04
4.195767e+01	-3.253913e-04
4.220002e+01	-3.291609e-04
4.244377e+01	-3.329742e-04
4.268892e+01	-3.368316e-04
4.293549e+01	-3.407337e-04
4.318348e+01	-3.446811e-04
4.343291e+01	-3.486742e-04
4.368377e+01	-3.527135e-04
4.393609e+01	-3.567996e-04
4.418986e+01	-3.609330e-04
4.444510e+01	-3.651144e-04
4.470182e+01	-3.693441e-04
4.496001e+01	-3.736229e-04
4.521970e+01	-3.779513e-04
4.548089e+01	-3.823297e-04
4.574358e+01	-3.867589e-04
4.600779e+01	-3.912394e-04
4.627353e+01	-3.957718e-04
4.654081e+01	-4.003568e-04
4.680963e+01	-4.049948e-04
4.708000e+01	-4.096865e-04
4.735193e+01	-4.144327e-04
4.762543e+01	-4.192337e-04
4.790051e+01	-4.240904e-04
4.817719e+01	-4.290034e-04
4.845545e+01	-4.339733e-04
4.873533e+01	-4.390007e-04
4.901682e+01	-4.440864e-04
4.929994e+01	-4.492310e-04
4.958470e+01	-4.544352e-04
4.987110e+01	-4.596997e-04
5.015915e+01	-4.650251e-04
5.044887e+01	-4.704123e-04
5.074026e+01	-4.758619e-04
5.103333e+01	-4.813745e-04
5.132810e+01	-4.869511e-04
5.162457e+01	-4.925922e-04
5.192275e+01	-4.982987e-04
5.222265e+01	-5.040713e-04
5.252429e+01	-5.099108e-04
5.282767e+01	-5.158179e-04
5.313280e+01	-5.217934e-04
5.343969e+01	-5.278382e-04
5.374836e+01	-5.339529e-04
5.405880e+01	-5.401385e-04
5.437105e+01	-5.463958e-04
5.468509e+01	-5.527255e-04
5.500095e+01	-5.591286e-04
5.531863e+01	-5.656059e-04
5.563815e+01	-5.721581e-04
5.595951e+01	-5.787863e-04
5.628273e+01	-5.854912e-04
5.660782e+01	-5.922738e-04
5.693479e+01	-5.991350e-04
5.726364e+01	-6.060757e-04
5.759439e+01	-6.130968e-04
5.792705e+01	-6.201991e-04
5.826164e+01	-6.273838e-04
5.859815e+01	-6.346517e-04
5.893662e+01	-6.420038e-04
5.927703e+01	-6.494410e-04
5.961941e+01	-6.569644e-04
5.996377e+01	-6.645749e-04
6.031012e+01	-6.722736e-04
6.065847e+01	-6.800615e-04
6.100883e+01	-6.879395e-04
6.136121e+01	-6.959089e-04
6.171563e+01	-7.039705e-04
6.207210e+01	-7.121255e-04
6.243063e+01	-7.203750e-04
6.279122e+01	-7.287200e-04
6.315390e+01	-7.371618e-04
6.351868e+01	-7.457012e-04
6.388556e+01	-7.543396e-04
6.425456e+01	-7.630781e-04
6.462569e+01	-7.719178e-04
6.499897e+01	-7.808599e-04
6.537440e+01	-7.899055e-04
6.575200e+01	-7.990559e-04
6.613178e+01	-8.083124e-04
6.651375e+01	-8.176760e-04
6.689793e+01	-8.271481e-04
6.728433e+01	-8.367299e-04
6.767297e+01	-8.464227e-04
6.806384e+01	-8.562278e-04
6.845698e+01	-8.661464e-04
6.885238e+01	-8.761800e-04
6.925007e+01	-8.863297e-04
6.965005e+01	-8.965970e-04
7.005235e+01	-9.069833e-04
7.045697e+01	-9.174898e-04
7.086393e+01	-9.281180e-04
7.127323e+01	-9.388694e-04
7.168490e+01	-9.497452e-04
7.209895e+01	-9.607471e-04
7.251539e+01	-9.718764e-04
7.293424e+01	-9.831345e-04
7.335551e+01	-9.945231e-04
7.377920e+01	-1.006044e-03
7.420535e+01	-1.017698e-03
7.463396e+01	-1.029486e-03
7.506504e+01	-1.041412e-03
7.549861e+01	-1.053475e-03
7.593469e+01	-1.065679e-03
7.637328e+01	-1.078023e-03
7.681441e+01	-1.090511e-03
7.725809e+01	-1.103143e-03
7.770433e+01	-1.115922e-03
7.815315e+01	-1.128848e-03
7.860456e+01	-1.141925e-03
7.905857e+01	-1.155152e-03
7.951521e+01	-1.168533e-03
7.997449e+01	-1.182069e-03
8.043642e+01	-1.195762e-03
8.090102e+01	-1.209613e-03
8.136830e+01	-1.223625e-03
8.183828e+01	-1.237799e-03
8.231097e+01	-1.252137e-03
8.278640e+01	-1.266642e-03
8.326457e+01	-1.281314e-03
8.374550e+01	-1.296156e-03
8.422921e+01	-1.311170e-03
8.471572e+01	-1.326358e-03
8.520503e+01	-1.341722e-03
8.569717e+01	-1.357263e-03
8.619215e+01	-1.372985e-03
8.669000e+01	-1.388889e-03
8.719071e+01	-1.404977e-03
8.769432e+01	-1.421252e-03
8.820084e+01	-1.437714e-03
8.871029e+01	-1.454368e-03
8.922267e+01	-1.471214e-03
8.973802e+01	-1.488256e-03
9.025634e+01	-1.505495e-03
9.077766e+01	-1.522933e-03
9.130199e+01	-1.540574e-03
9.182935e+01	-1.558418e-03
9.235975e+01	-1.576470e-03
9.289321e+01	-1.594730e-03
9.342976e+01	-1.613202e-03
9.396941e+01	-1.631888e-03
9.451217e+01	-1.650790e-03
9.505807e+01	-1.669912e-03
9.560712e+01	-1.689254e-03
9.615934e+01	-1.708821e-03
9.671476e+01	-1.728614e-03
9.727338e+01	-1.748636e-03
9.783522e+01	-1.768891e-03
9.840032e+01	-1.789380e-03
9.896867e+01	-1.810106e-03
9.954031e+01	-1.831072e-03
1.001153e+02	-1.852281e-03
1.006935e+02	-1.873735e-03
1.012751e+02	-1.895438e-03
1.018601e+02	-1.917393e-03
1.024484e+02	-1.939601e-03
1.030402e+02	-1.962067e-03
1.036353e+02	-1.984793e-03
1.042339e+02	-2.007782e-03
1.048360e+02	-2.031037e-03
1.054415e+02	-2.054561e-03
1.060505e+02	-2.078358e-03
1.066631e+02	-2.102431e-03
1.072791e+02	-2.126782e-03
1.078988e+02	-2.151415e-03
1.085220e+02	-2.176334e-03
1.091488e+02	-2.201541e-03
1.097793e+02	-2.227040e-03
1.104133e+02	-2.252834e-03
1.110511e+02	-2.278927e-03
1.116925e+02	-2.305322e-03
1.123376e+02	-2.332022e-03
1.129865e+02	-2.359032e-03
1.136391e+02	-2.386354e-03
1.142955e+02	-2.413993e-03
1.149556e+02	-2.441952e-03
1.156196e+02	-2.470235e-03
1.162874e+02	-2.498845e-03
1.169591e+02	-2.527786e-03
1.176347e+02	-2.557063e-03
1.183141e+02	-2.586678e-03
1.189975e+02	-2.616636e-03
1.196848e+02	-2.646942e-03
1.203761e+02	-2.677598e-03
1.210714e+02	-2.708609e-03
1.217707e+02	-2.739979e-03
1.224740e+02	-2.771712e-03
1.231814e+02	-2.803813e-03
1.238929e+02	-2.836285e-03
1.246085e+02	-2.869133e-03
1.253283e+02	-2.902362e-03
1.260522e+02	-2.935975e-03
1.267802e+02	-2.969977e-03
1.275125e+02	-3.004373e-03
1.282490e+02	-3.039168e-03
1.289898e+02	-3.074365e-03
1.297348e+02	-3.109969e-03
1.304842e+02	-3.145986e-03
1.312378e+02	-3.182420e-03
1.319959e+02	-3.219275e-03
1.327583e+02	-3.256557e-03
1.335251e+02	-3.294271e-03
1.342963e+02	-3.332421e-03
1.350720e+02	-3.371013e-03
1.358522e+02	-3.410052e-03
1.366368e+02	-3.449543e-03
1.374260e+02	-3.489490e-03
1.382198e+02	-3.529901e-03
1.390182e+02	-3.570779e-03
1.398211e+02	-3.612130e-03
1.406287e+02	-3.653960e-03
1.414410e+02	-3.696274e-03
1.422579e+02	-3.739077e-03
1.430796e+02	-3.782377e-03
1.439060e+02	-3.826177e-03
1.447372e+02	-3.870485e-03
1.455732e+02	-3.915305e-03
1.464141e+02	-3.960644e-03
1.472597e+02	-4.006508e-03
1.481103e+02	-4.052903e-03
1.489658e+02	-4.099834e-03
1.498262e+02	-4.147309e-03
1.506916e+02	-4.195334e-03
1.515620e+02	-4.243914e-03
1.524374e+02	-4.293056e-03
1.533179e+02	-4.342768e-03
1.542034e+02	-4.393054e-03
1.550941e+02	-4.443923e-03
1.559899e+02	-4.495380e-03
1.568909e+02	-4.547433e-03
1.577971e+02	-4.600088e-03
1.587085e+02	-4.653353e-03
1.596252e+02	-4.707234e-03
1.605472e+02	-4.761738e-03
1.614745e+02	-4.816874e-03
1.624072e+02	-4.872647e-03
1.633453e+02	-4.929066e-03
1.642887e+02	-4.986137e-03
1.652377e+02	-5.043869e-03
1.661921e+02	-5.102270e-03
1.671520e+02	-5.161345e-03
1.681175e+02	-5.221105e-03
1.690885e+02	-5.281556e-03
1.700651e+02	-5.342706e-03
1.710474e+02	-5.404564e-03
1.720354e+02	-5.467138e-03
1.730291e+02	-5.530436e-03
1.740285e+02	-5.594466e-03
1.750337e+02	-5.659237e-03
1.760446e+02	-5.724757e-03
1.770615e+02	-5.791036e-03
1.780842e+02	-5.858081e-03
1.791128e+02	-5.925902e-03
1.801473e+02	-5.994508e-03
1.811878e+02	-6.063907e-03
1.822344e+02	-6.134109e-03
1.832870e+02	-6.205124e-03
1.843456e+02	-6.276959e-03
1.854104e+02	-6.349626e-03
1.864813e+02	-6.423134e-03
1.875584e+02	-6.497492e-03
1.886418e+02	-6.572710e-03
1.897313e+02	-6.648798e-03
1.908272e+02	-6.725766e-03
1.919294e+02	-6.803624e-03
1.930380e+02	-6.882383e-03
1.941530e+02	-6.962054e-03
1.952744e+02	-7.042645e-03
1.964023e+02	-7.124169e-03
1.975367e+02	-7.206636e-03
1.986777e+02	-7.290056e-03
1.998252e+02	-7.374441e-03
2.009794e+02	-7.459802e-03
2.021403e+02	-7.546151e-03
2.033078e+02	-7.633498e-03
2.044821e+02	-7.721855e-03
2.056632e+02	-7.811234e-03
2.068511e+02	-7.901646e-03
2.080459e+02	-7.993105e-03
2.092475e+02	-8.085620e-03
2.104561e+02	-8.179206e-03
2.116717e+02	-8.273873e-03
2.128943e+02	-8.369636e-03
2.141240e+02	-8.466505e-03
2.153608e+02	-8.564495e-03
2.166047e+02	-8.663617e-03
2.178558e+02	-8.763886e-03
2.191141e+02	-8.865314e-03
2.203797e+02	-8.967914e-03
2.216526e+02	-9.071701e-03
2.229329e+02	-9.176688e-03
2.242205e+02	-9.282888e-03
2.255156e+02	-9.390316e-03
2.268182e+02	-9.498986e-03
2.281283e+02	-9.608912e-03
2.294459e+02	-9.720109e-03
2.307712e+02	-9.832591e-03
2.321041e+02	-9.946373e-03
2.334447e+02	-1.006147e-02
2.347931e+02	-1.017790e-02
2.361493e+02	-1.029567e-02
2.375133e+02	-1.041481e-02
2.388851e+02	-1.053532e-02
2.402649e+02	-1.065722e-02
2.416527e+02	-1.078053e-02
2.430484e+02	-1.090527e-02
2.444523e+02	-1.103145e-02
2.458642e+02	-1.115909e-02
2.472843e+02	-1.128820e-02
2.487126e+02	-1.141880e-02
2.501492e+02	-1.155092e-02
2.515940e+02	-1.168456e-02
2.530472e+02	-1.181974e-02
2.545088e+02	-1.195649e-02
2.559789e+02	-1.209481e-02
2.574574e+02	-1.223474e-02
2.589444e+02	-1.237628e-02
2.604401e+02	-1.251945e-02
2.619444e+02	-1.266428e-02
2.634574e+02	-1.281078e-02
2.649791e+02	-1.295897e-02
2.665096e+02	-1.310888e-02
2.680489e+02	-1.326052e-02
2.695972e+02	-1.341391e-02
2.711544e+02	-1.356907e-02
2.727205e+02	-1.372602e-02
2.742958e+02	-1.388478e-02
2.758801e+02	-1.404538e-02
2.774736e+02	-1.420783e-02
2.790762e+02	-1.437216e-02
2.806882e+02	-1.453839e-02
2.823094e+02	-1.470653e-02
2.839400e+02	-1.487662e-02
2.855800e+02	-1.504867e-02
2.872295e+02	-1.522270e-02
2.888886e+02	-1.539875e-02
2.905572e+02	-1.557682e-02
2.922354e+02	-1.575696e-02
2.939234e+02	-1.593917e-02
2.956211e+02	-1.612348e-02
2.973286e+02	-1.630993e-02
2.990459e+02	-1.649852e-02
3.007732e+02	-1.668929e-02
3.025104e+02	-1.688226e-02
3.042577e+02	-1.707746e-02
3.060151e+02	-1.727492e-02
3.077826e+02	-1.747465e-02
3.095604e+02	-1.767668e-02
3.113484e+02	-1.788105e-02
3.131467e+02	-1.808777e-02
3.149554e+02	-1.829688e-02
3.167746e+02	-1.850840e-02
3.186043e+02	-1.872236e-02
3.204445e+02	-1.893879e-02
3.222954e+02	-1.915771e-02
3.241570e+02	-1.937916e-02
3.260293e+02	-1.960317e-02
3.279124e+02	-1.982976e-02
3.298064e+02	-2.005896e-02
3.317114e+02	-2.029080e-02
3.336273e+02	-2.052532e-02
3.355544e+02	-2.076254e-02
3.374925e+02	-2.100249e-02
3.394418e+02	-2.124521e-02
3.414024e+02	-2.149073e-02
3.433744e+02	-2.173908e-02
3.453577e+02	-2.199030e-02
3.473525e+02	-2.224441e-02
3.493588e+02	-2.250144e-02
3.513766e+02	-2.276144e-02
3.534062e+02	-2.302444e-02
3.554474e+02	-2.329046e-02
3.575005e+02	-2.355956e-02
3.595654e+02	-2.383175e-02
3.616422e+02	-2.410708e-02
3.637311e+02	-2.438558e-02
3.658320e+02	-2.466728e-02
3.679450e+02	-2.495224e-02
3.700702e+02	-2.524047e-02
3.722077e+02	-2.553203e-02
3.743576e+02	-2.582694e-02
3.765199e+02	-2.612525e-02
3.786946e+02	-2.642699e-02
3.808820e+02	-2.673221e-02
3.830819e+02	-2.704094e-02
3.852946e+02	-2.735323e-02
3.875200e+02	-2.766911e-02
3.897583e+02	-2.798863e-02
3.920096e+02	-2.831182e-02
3.942738e+02	-2.863874e-02
3.965511e+02	-2.896941e-02
3.988416e+02	-2.930390e-02
4.011452e+02	-2.964223e-02
4.034622e+02	-2.998445e-02
4.057926e+02	-3.033061e-02
4.081365e+02	-3.068075e-02
4.104938e+02	-3.103492e-02
4.128648e+02	-3.139317e-02
4.152495e+02	-3.175553e-02
4.176480e+02	-3.212206e-02
4.200603e+02	-3.249281e-02
4.224866e+02	-3.286782e-02
4.249268e+02	-3.324714e-02
4.273812e+02	-3.363082e-02
4.298497e+02	-3.401891e-02
4.323325e+02	-3.441146e-02
4.348297e+02	-3.480853e-02
4.373412e+02	-3.521015e-02
4.398673e+02	-3.561639e-02
4.424079e+02	-3.602730e-02
4.449633e+02	-3.644293e-02
4.475334e+02	-3.686333e-02
4.501183e+02	-3.728857e-02
4.527182e+02	-3.771868e-02
4.553330e+02	-3.815374e-02
4.579630e+02	-3.859379e-02
4.606082e+02	-3.903890e-02
4.632687e+02	-3.948911e-02
4.659445e+02	-3.994449e-02
4.686358e+02	-4.040510e-02
4.713426e+02	-4.087100e-02
4.740650e+02	-4.134224e-02
4.768032e+02	-4.181889e-02
4.795572e+02	-4.230100e-02
4.823271e+02	-4.278865e-02
4.851130e+02	-4.328189e-02
4.879150e+02	-4.378079e-02
4.907332e+02	-4.428541e-02
4.935676e+02	-4.479582e-02
4.964185e+02	-4.531208e-02
4.992858e+02	-4.583425e-02
5.021696e+02	-4.636241e-02
5.050701e+02	-4.689663e-02
5.079874e+02	-4.743696e-02
5.109215e+02	-4.798349e-02
5.138726e+02	-4.853628e-02
5.168407e+02	-4.909540e-02
5.198259e+02	-4.966092e-02
5.228284e+02	-5.023293e-02
5.258482e+02	-5.081148e-02
5.288855e+02	-5.139665e-02
5.319403e+02	-5.198852e-02
5.350128e+02	-5.258717e-02
5.381030e+02	-5.319267e-02
5.412111e+02	-5.380510e-02
5.443371e+02	-5.442453e-02
5.474812e+02	-5.505105e-02
5.506434e+02	-5.568474e-02
5.538239e+02	-5.632567e-02
5.570228e+02	-5.697393e-02
5.602401e+02	-5.762960e-02
5.634760e+02	-5.829277e-02
5.667306e+02	-5.896352e-02
5.700040e+02	-5.964193e-02
5.732964e+02	-6.032809e-02
5.766077e+02	-6.102209e-02
5.799382e+02	-6.172402e-02
5.832879e+02	-6.243396e-02
5.866569e+02	-6.315201e-02
5.900454e+02	-6.387826e-02
5.934535e+02	-6.461279e-02
5.968813e+02	-6.535571e-02
6.003288e+02	-6.610711e-02
6.037963e+02	-6.686707e-02
6.072838e+02	-6.763571e-02
6.107914e+02	-6.841311e-02
6.143194e+02	-6.919938e-02
6.178676e+02	-6.999461e-02
6.214364e+02	-7.079890e-02
6.250258e+02	-7.161236e-02
6.286359e+02	-7.243508e-02
6.322669e+02	-7.326718e-02
6.359189e+02	-7.410876e-02
6.395919e+02	-7.495992e-02
6.432862e+02	-7.582077e-02
6.470017e+02	-7.669141e-02
6.507388e+02	-7.757197e-02
6.544974e+02	-7.846254e-02
6.582778e+02	-7.936325e-02
6.620800e+02	-8.027420e-02
6.659041e+02	-8.119550e-02
6.697504e+02	-8.212728e-02
6.736188e+02	-8.306965e-02
6.775096e+02	-8.402273e-02
6.814229e+02	-8.498664e-02
6.853587e+02	-8.596149e-02
6.893173e+02	-8.694742e-02
6.932988e+02	-8.794453e-02
6.973033e+02	-8.895297e-02
7.013309e+02	-8.997285e-02
