Frequency(Hz)	Magnitude(dB)
1.000000e+01	-2.171752e+00
1.005776e+01	-2.191501e+00
1.011585e+01	-2.211734e+00
1.017428e+01	-2.231619e+00
1.023305e+01	-2.251730e+00
1.029215e+01	-2.272017e+00
1.035160e+01	-2.292391e+00
1.041139e+01	-2.313284e+00
1.047153e+01	-2.333859e+00
1.053201e+01	-2.354582e+00
1.059284e+01	-2.375654e+00
1.065403e+01	-2.396896e+00
1.071556e+01	-2.417938e+00
1.077746e+01	-2.439352e+00
1.083971e+01	-2.461086e+00
1.090232e+01	-2.482720e+00
1.096529e+01	-2.504710e+00
1.102862e+01	-2.526501e+00
1.109232e+01	-2.548769e+00
1.115639e+01	-2.570904e+00
1.122083e+01	-2.593555e+00
1.128564e+01	-2.616228e+00
1.135083e+01	-2.638687e+00
1.141639e+01	-2.661612e+00
1.148233e+01	-2.684632e+00
1.154865e+01	-2.707714e+00
1.161536e+01	-2.730996e+00
1.168245e+01	-2.754382e+00
1.174992e+01	-2.777997e+00
1.181779e+01	-2.801721e+00
1.188605e+01	-2.825280e+00
1.195470e+01	-2.849580e+00
1.202375e+01	-2.873703e+00
1.209320e+01	-2.897747e+00
1.216305e+01	-2.922125e+00
1.223330e+01	-2.946935e+00
1.230396e+01	-2.971490e+00
1.237503e+01	-2.996305e+00
1.244651e+01	-3.021552e+00
1.251840e+01	-3.046489e+00
1.259070e+01	-3.071970e+00
1.266343e+01	-3.097481e+00
1.273657e+01	-3.123228e+00
1.281014e+01	-3.148684e+00
1.288413e+01	-3.174680e+00
1.295855e+01	-3.200731e+00
1.303339e+01	-3.226794e+00
1.310867e+01	-3.253091e+00
1.318439e+01	-3.279595e+00
1.326054e+01	-3.306337e+00
1.333713e+01	-3.332944e+00
1.341417e+01	-3.359701e+00
1.349165e+01	-3.386528e+00
1.356958e+01	-3.413958e+00
1.364795e+01	-3.441022e+00
1.372678e+01	-3.468817e+00
1.380607e+01	-3.496483e+00
1.388581e+01	-3.523992e+00
1.396602e+01	-3.551685e+00
1.404668e+01	-3.579806e+00
1.412782e+01	-3.608160e+00
1.420942e+01	-3.636500e+00
1.429149e+01	-3.664757e+00
1.437404e+01	-3.693162e+00
1.445706e+01	-3.721893e+00
1.454057e+01	-3.751034e+00
1.462455e+01	-3.779961e+00
1.470902e+01	-3.809185e+00
1.479398e+01	-3.838306e+00
1.487943e+01	-3.867994e+00
1.496537e+01	-3.897268e+00
1.505181e+01	-3.926898e+00
1.513875e+01	-3.956925e+00
1.522619e+01	-3.986879e+00
1.531414e+01	-4.017067e+00
1.540259e+01	-4.047302e+00
1.549156e+01	-4.077429e+00
1.558103e+01	-4.108195e+00
1.567103e+01	-4.138623e+00
1.576155e+01	-4.169645e+00
1.585258e+01	-4.200547e+00
1.594415e+01	-4.231937e+00
1.603624e+01	-4.262899e+00
1.612886e+01	-4.294310e+00
1.622202e+01	-4.325761e+00
1.631572e+01	-4.357410e+00
1.640996e+01	-4.389020e+00
1.650474e+01	-4.421167e+00
1.660008e+01	-4.452952e+00
1.669596e+01	-4.485264e+00
1.679239e+01	-4.517327e+00
1.688938e+01	-4.549776e+00
1.698694e+01	-4.582303e+00
1.708505e+01	-4.614921e+00
1.718373e+01	-4.648170e+00
1.728299e+01	-4.680754e+00
1.738281e+01	-4.713512e+00
1.748322e+01	-4.746896e+00
1.758420e+01	-4.780267e+00
1.768576e+01	-4.813890e+00
1.778792e+01	-4.847412e+00
1.789066e+01	-4.881168e+00
1.799399e+01	-4.914944e+00
1.809793e+01	-4.948773e+00
1.820246e+01	-4.982887e+00
1.830760e+01	-5.017386e+00
1.841334e+01	-5.051195e+00
1.851969e+01	-5.086056e+00
1.862666e+01	-5.120739e+00
1.873425e+01	-5.155041e+00
1.884246e+01	-5.189923e+00
1.895129e+01	-5.224921e+00
1.906075e+01	-5.259887e+00
1.917085e+01	-5.295150e+00
1.928158e+01	-5.330586e+00
1.939295e+01	-5.365789e+00
1.950496e+01	-5.401418e+00
1.961762e+01	-5.437262e+00
1.973093e+01	-5.472939e+00
1.984490e+01	-5.508667e+00
1.995952e+01	-5.545015e+00
2.007480e+01	-5.580924e+00
2.019076e+01	-5.617291e+00
2.030738e+01	-5.653328e+00
2.042467e+01	-5.689609e+00
2.054264e+01	-5.726507e+00
2.066130e+01	-5.763055e+00
2.078064e+01	-5.800028e+00
2.090066e+01	-5.837009e+00
2.102139e+01	-5.874086e+00
2.114280e+01	-5.911352e+00
2.126492e+01	-5.948742e+00
2.138775e+01	-5.985677e+00
2.151128e+01	-6.023466e+00
2.163553e+01	-6.061182e+00
2.176050e+01	-6.098451e+00
2.188619e+01	-6.136181e+00
2.201260e+01	-6.174432e+00
2.213974e+01	-6.212163e+00
2.226762e+01	-6.250302e+00
2.239624e+01	-6.288681e+00
2.252560e+01	-6.327235e+00
2.265571e+01	-6.365334e+00
2.278656e+01	-6.403962e+00
2.291818e+01	-6.442660e+00
2.305055e+01	-6.481255e+00
2.318369e+01	-6.519967e+00
2.331760e+01	-6.558602e+00
2.345228e+01	-6.597827e+00
2.358774e+01	-6.637131e+00
2.372398e+01	-6.676644e+00
2.386101e+01	-6.716030e+00
2.399883e+01	-6.754952e+00
2.413745e+01	-6.794673e+00
2.427686e+01	-6.834476e+00
2.441709e+01	-6.873766e+00
2.455812e+01	-6.913806e+00
2.469997e+01	-6.953365e+00
2.484263e+01	-6.993357e+00
2.498612e+01	-7.033878e+00
2.513044e+01	-7.073656e+00
2.527559e+01	-7.114441e+00
2.542158e+01	-7.154860e+00
2.556842e+01	-7.194905e+00
2.571610e+01	-7.235370e+00
2.586463e+01	-7.276154e+00
2.601403e+01	-7.316929e+00
2.616428e+01	-7.357843e+00
2.631541e+01	-7.398324e+00
2.646740e+01	-7.439645e+00
2.662028e+01	-7.480150e+00
2.677404e+01	-7.521631e+00
2.692868e+01	-7.562737e+00
2.708422e+01	-7.604201e+00
2.724066e+01	-7.645630e+00
2.739800e+01	-7.686614e+00
2.755625e+01	-7.728753e+00
2.771541e+01	-7.770197e+00
2.787550e+01	-7.812178e+00
2.803650e+01	-7.853600e+00
2.819844e+01	-7.895443e+00
2.836131e+01	-7.937183e+00
2.852513e+01	-7.979356e+00
2.868989e+01	-8.021517e+00
2.885560e+01	-8.063315e+00
2.902227e+01	-8.106210e+00
2.918990e+01	-8.148174e+00
2.935850e+01	-8.190781e+00
2.952807e+01	-8.233575e+00
2.969863e+01	-8.275714e+00
2.987016e+01	-8.318455e+00
3.004269e+01	-8.360766e+00
3.021622e+01	-8.403440e+00
3.039075e+01	-8.446875e+00
3.056628e+01	-8.489217e+00
3.074283e+01	-8.532637e+00
3.092040e+01	-8.575136e+00
3.109900e+01	-8.618961e+00
3.127862e+01	-8.661969e+00
3.145929e+01	-8.705004e+00
3.164099e+01	-8.748110e+00
3.182375e+01	-8.791909e+00
3.200756e+01	-8.835431e+00
3.219244e+01	-8.878683e+00
3.237838e+01	-8.922255e+00
3.256540e+01	-8.966125e+00
3.275349e+01	-9.009659e+00
3.294268e+01	-9.053236e+00
3.313295e+01	-9.097568e+00
3.332433e+01	-9.141272e+00
3.351681e+01	-9.184699e+00
3.371040e+01	-9.229622e+00
3.390511e+01	-9.273280e+00
3.410094e+01	-9.317119e+00
3.429791e+01	-9.361523e+00
3.449601e+01	-9.405807e+00
3.469526e+01	-9.450252e+00
3.489566e+01	-9.494436e+00
3.509721e+01	-9.539030e+00
3.529993e+01	-9.583457e+00
3.550382e+01	-9.627816e+00
3.570889e+01	-9.672667e+00
3.591515e+01	-9.717163e+00
3.612259e+01	-9.762063e+00
3.633123e+01	-9.806360e+00
3.654108e+01	-9.851792e+00
3.675214e+01	-9.896489e+00
3.696442e+01	-9.940673e+00
3.717792e+01	-9.986677e+00
3.739266e+01	-1.003124e+01
3.760864e+01	-1.007661e+01
3.782587e+01	-1.012154e+01
3.804435e+01	-1.016680e+01
3.826409e+01	-1.021241e+01
3.848510e+01	-1.025744e+01
3.870739e+01	-1.030270e+01
3.893096e+01	-1.034776e+01
3.915583e+01	-1.039309e+01
3.938199e+01	-1.043901e+01
3.960946e+01	-1.048404e+01
3.983824e+01	-1.053001e+01
4.006834e+01	-1.057578e+01
4.029978e+01	-1.062112e+01
4.053255e+01	-1.066701e+01
4.076666e+01	-1.071271e+01
4.100213e+01	-1.075835e+01
4.123896e+01	-1.080500e+01
4.147715e+01	-1.085008e+01
4.171672e+01	-1.089628e+01
4.195767e+01	-1.094270e+01
4.220002e+01	-1.098829e+01
4.244377e+01	-1.103433e+01
4.268892e+01	-1.108065e+01
4.293549e+01	-1.112658e+01
4.318348e+01	-1.117243e+01
4.343291e+01	-1.121909e+01
4.368377e+01	-1.126455e+01
4.393609e+01	-1.131206e+01
4.418986e+01	-1.135748e+01
4.444510e+01	-1.140416e+01
4.470182e+01	-1.145109e+01
4.496001e+01	-1.149681e+01
4.521970e+01	-1.154398e+01
4.548089e+01	-1.158944e+01
4.574358e+01	-1.163667e+01
4.600779e+01	-1.168350e+01
4.627353e+01	-1.173056e+01
4.654081e+01	-1.177646e+01
4.680963e+01	-1.182406e+01
4.708000e+01	-1.187022e+01
4.735193e+01	-1.191645e+01
4.762543e+01	-1.196358e+01
4.790051e+01	-1.201130e+01
4.817719e+01	-1.205747e+01
4.845545e+01	-1.210509e+01
4.873533e+01	-1.215170e+01
4.901682e+01	-1.219830e+01
4.929994e+01	-1.224578e+01
4.958470e+01	-1.229299e+01
4.987110e+01	-1.233988e+01
5.015915e+01	-1.238662e+01
5.044887e+01	-1.243361e+01
5.074026e+01	-1.248102e+01
5.103333e+01	-1.252825e+01
5.132810e+01	-1.257533e+01
5.162457e+01	-1.262289e+01
5.192275e+01	-1.267035e+01
5.222265e+01	-1.271794e+01
5.252429e+01	-1.276515e+01
5.282767e+01	-1.281224e+01
5.313280e+01	-1.285988e+01
5.343969e+01	-1.290711e+01
5.374836e+01	-1.295541e+01
5.405880e+01	-1.300154e+01
5.437105e+01	-1.304922e+01
5.468509e+01	-1.309702e+01
5.500095e+01	-1.314514e+01
5.531863e+01	-1.319232e+01
5.563815e+01	-1.324064e+01
5.595951e+01	-1.328744e+01
5.628273e+01	-1.333585e+01
5.660782e+01	-1.338249e+01
5.693479e+01	-1.343116e+01
5.726364e+01	-1.347897e+01
5.759439e+01	-1.352703e+01
5.792705e+01	-1.357395e+01
5.826164e+01	-1.362197e+01
5.859815e+01	-1.367005e+01
5.893662e+01	-1.371828e+01
5.927703e+01	-1.376688e+01
5.961941e+01	-1.381383e+01
5.996377e+01	-1.386268e+01
6.031012e+01	-1.390995e+01
6.065847e+01	-1.395773e+01
6.100883e+01	-1.400583e+01
6.136121e+01	-1.405369e+01
6.171563e+01	-1.410238e+01
6.207210e+01	-1.415017e+01
6.243063e+01	-1.419824e+01
6.279122e+01	-1.424770e+01
6.315390e+01	-1.429501e+01
6.351868e+01	-1.434203e+01
6.388556e+01	-1.439099e+01
6.425456e+01	-1.443920e+01
6.462569e+01	-1.448747e+01
6.499897e+01	-1.453548e+01
6.537440e+01	-1.458469e+01
6.575200e+01	-1.463160e+01
6.613178e+01	-1.468072e+01
6.651375e+01	-1.472798e+01
6.689793e+01	-1.477685e+01
6.728433e+01	-1.482563e+01
6.767297e+01	-1.487340e+01
6.806384e+01	-1.492323e+01
6.845698e+01	-1.497106e+01
6.885238e+01	-1.501955e+01
6.925007e+01	-1.506707e+01
6.965005e+01	-1.511488e+01
7.005235e+01	-1.516432e+01
7.045697e+01	-1.521327e+01
7.086393e+01	-1.526212e+01
7.127323e+01	-1.530968e+01
7.168490e+01	-1.535850e+01
7.209895e+01	-1.540697e+01
7.251539e+01	-1.545512e+01
7.293424e+01	-1.550326e+01
7.335551e+01	-1.555364e+01
7.377920e+01	-1.560264e+01
7.420535e+01	-1.565059e+01
7.463396e+01	-1.569936e+01
7.506504e+01	-1.574836e+01
7.549861e+01	-1.579675e+01
7.593469e+01	-1.584554e+01
7.637328e+01	-1.589370e+01
7.681441e+01	-1.594264e+01
7.725809e+01	-1.599152e+01
7.770433e+01	-1.604059e+01
7.815315e+01	-1.608867e+01
7.860456e+01	-1.613892e+01
7.905857e+01	-1.618675e+01
7.951521e+01	-1.623621e+01
7.997449e+01	-1.628411e+01
8.043642e+01	-1.633381e+01
8.090102e+01	-1.638262e+01
8.136830e+01	-1.643252e+01
8.183828e+01	-1.648002e+01
8.231097e+01	-1.652898e+01
8.278640e+01	-1.657683e+01
8.326457e+01	-1.662751e+01
8.374550e+01	-1.667577e+01
8.422921e+01	-1.672456e+01
8.471572e+01	-1.677328e+01
8.520503e+01	-1.682246e+01
8.569717e+01	-1.687213e+01
8.619215e+01	-1.692063e+01
8.669000e+01	-1.696992e+01
8.719071e+01	-1.701866e+01
8.769432e+01	-1.706798e+01
8.820084e+01	-1.711677e+01
8.871029e+01	-1.716576e+01
8.922267e+01	-1.721530e+01
8.973802e+01	-1.726354e+01
9.025634e+01	-1.731191e+01
9.077766e+01	-1.736180e+01
9.130199e+01	-1.741196e+01
9.182935e+01	-1.746032e+01
9.235975e+01	-1.750956e+01
9.289321e+01	-1.755824e+01
9.342976e+01	-1.760840e+01
9.396941e+01	-1.765717e+01
9.451217e+01	-1.770638e+01
9.505807e+01	-1.775438e+01
9.560712e+01	-1.780555e+01
9.615934e+01	-1.785474e+01
9.671476e+01	-1.790480e+01
9.727338e+01	-1.795174e+01
9.783522e+01	-1.800239e+01
9.840032e+01	-1.805090e+01
9.896867e+01	-1.810095e+01
9.954031e+01	-1.815000e+01
1.001153e+02	-1.819921e+01
1.006935e+02	-1.824873e+01
1.012751e+02	-1.829598e+01
1.018601e+02	-1.834569e+01
1.024484e+02	-1.839553e+01
1.030402e+02	-1.844534e+01
1.036353e+02	-1.849377e+01
1.042339e+02	-1.854424e+01
1.048360e+02	-1.859342e+01
1.054415e+02	-1.864302e+01
1.060505e+02	-1.869262e+01
1.066631e+02	-1.874122e+01
1.072791e+02	-1.879081e+01
1.078988e+02	-1.884121e+01
1.085220e+02	-1.888800e+01
1.091488e+02	-1.893846e+01
1.097793e+02	-1.898768e+01
1.104133e+02	-1.903612e+01
1.110511e+02	-1.908638e+01
1.116925e+02	-1.913632e+01
1.123376e+02	-1.918629e+01
1.129865e+02	-1.923549e+01
1.136391e+02	-1.928416e+01
1.142955e+02	-1.933422e+01
1.149556e+02	-1.938212e+01
1.156196e+02	-1.943185e+01
1.162874e+02	-1.948165e+01
1.169591e+02	-1.953153e+01
1.176347e+02	-1.957991e+01
1.183141e+02	-1.963018e+01
1.189975e+02	-1.967869e+01
1.196848e+02	-1.972867e+01
1.203761e+02	-1.977923e+01
1.210714e+02	-1.982915e+01
1.217707e+02	-1.987956e+01
1.224740e+02	-1.992745e+01
1.231814e+02	-1.997685e+01
1.238929e+02	-2.002410e+01
1.246085e+02	-2.007737e+01
1.253283e+02	-2.012573e+01
1.260522e+02	-2.017543e+01
1.267802e+02	-2.022623e+01
1.275125e+02	-2.027515e+01
1.282490e+02	-2.032390e+01
1.289898e+02	-2.037360e+01
1.297348e+02	-2.042481e+01
1.304842e+02	-2.047306e+01
1.312378e+02	-2.052234e+01
1.319959e+02	-2.057255e+01
1.327583e+02	-2.062294e+01
1.335251e+02	-2.067341e+01
1.342963e+02	-2.072154e+01
1.350720e+02	-2.077261e+01
1.358522e+02	-2.081801e+01
1.366368e+02	-2.086878e+01
1.374260e+02	-2.091879e+01
1.382198e+02	-2.096780e+01
1.390182e+02	-2.101904e+01
1.398211e+02	-2.106816e+01
1.406287e+02	-2.111740e+01
1.414410e+02	-2.116987e+01
1.422579e+02	-2.121660e+01
1.430796e+02	-2.126724e+01
1.439060e+02	-2.131653e+01
1.447372e+02	-2.136599e+01
1.455732e+02	-2.141539e+01
1.464141e+02	-2.146457e+01
1.472597e+02	-2.151621e+01
1.481103e+02	-2.156557e+01
1.489658e+02	-2.161394e+01
1.498262e+02	-2.166298e+01
1.506916e+02	-2.171428e+01
1.515620e+02	-2.176590e+01
1.524374e+02	-2.181498e+01
1.533179e+02	-2.186253e+01
1.542034e+02	-2.191227e+01
1.550941e+02	-2.196364e+01
1.559899e+02	-2.201397e+01
1.568909e+02	-2.206152e+01
1.577971e+02	-2.211091e+01
1.587085e+02	-2.216148e+01
1.596252e+02	-2.221257e+01
1.605472e+02	-2.226261e+01
1.614745e+02	-2.231028e+01
1.624072e+02	-2.236101e+01
1.633453e+02	-2.240992e+01
1.642887e+02	-2.246206e+01
1.652377e+02	-2.251171e+01
1.661921e+02	-2.256187e+01
1.671520e+02	-2.260854e+01
1.681175e+02	-2.265972e+01
1.690885e+02	-2.270882e+01
1.700651e+02	-2.275893e+01
1.710474e+02	-2.280888e+01
1.720354e+02	-2.285945e+01
1.730291e+02	-2.290720e+01
1.740285e+02	-2.295650e+01
1.750337e+02	-2.300784e+01
1.760446e+02	-2.305595e+01
1.770615e+02	-2.310630e+01
1.780842e+02	-2.315771e+01
1.791128e+02	-2.320670e+01
1.801473e+02	-2.325521e+01
1.811878e+02	-2.330729e+01
1.822344e+02	-2.335706e+01
1.832870e+02	-2.340728e+01
1.843456e+02	-2.345609e+01
1.854104e+02	-2.350449e+01
1.864813e+02	-2.355663e+01
1.875584e+02	-2.360307e+01
1.886418e+02	-2.365454e+01
1.897313e+02	-2.370547e+01
1.908272e+02	-2.375534e+01
1.919294e+02	-2.380625e+01
1.930380e+02	-2.385426e+01
1.941530e+02	-2.390573e+01
1.952744e+02	-2.395437e+01
1.964023e+02	-2.400509e+01
1.975367e+02	-2.405258e+01
1.986777e+02	-2.410203e+01
1.998252e+02	-2.415289e+01
2.009794e+02	-2.420649e+01
2.021403e+02	-2.425140e+01
2.033078e+02	-2.430241e+01
2.044821e+02	-2.435357e+01
2.056632e+02	-2.440182e+01
2.068511e+02	-2.445099e+01
2.080459e+02	-2.450136e+01
2.092475e+02	-2.455334e+01
2.104561e+02	-2.460286e+01
2.116717e+02	-2.465394e+01
2.128943e+02	-2.470123e+01
2.141240e+02	-2.475350e+01
2.153608e+02	-2.480227e+01
2.166047e+02	-2.485044e+01
2.178558e+02	-2.490052e+01
2.191141e+02	-2.495133e+01
2.203797e+02	-2.500225e+01
2.216526e+02	-2.505127e+01
2.229329e+02	-2.509962e+01
2.242205e+02	-2.515299e+01
2.255156e+02	-2.519915e+01
2.268182e+02	-2.525396e+01
2.281283e+02	-2.530000e+01
2.294459e+02	-2.534873e+01
2.307712e+02	-2.540048e+01
2.321041e+02	-2.545103e+01
2.334447e+02	-2.550137e+01
2.347931e+02	-2.555293e+01
2.361493e+02	-2.559955e+01
2.375133e+02	-2.564936e+01
2.388851e+02	-2.569945e+01
2.402649e+02	-2.575172e+01
2.416527e+02	-2.579936e+01
2.430484e+02	-2.585191e+01
2.444523e+02	-2.589733e+01
2.458642e+02	-2.594910e+01
2.472843e+02	-2.600122e+01
2.487126e+02	-2.605376e+01
2.501492e+02	-2.610200e+01
2.515940e+02	-2.615238e+01
2.530472e+02	-2.620104e+01
2.545088e+02	-2.624853e+01
2.559789e+02	-2.630089e+01
2.574574e+02	-2.634929e+01
2.589444e+02	-2.639894e+01
2.604401e+02	-2.644914e+01
2.619444e+02	-2.649975e+01
2.634574e+02	-2.655106e+01
2.649791e+02	-2.659945e+01
2.665096e+02	-2.665198e+01
2.680489e+02	-2.670255e+01
2.695972e+02	-2.675161e+01
2.711544e+02	-2.679960e+01
2.727205e+02	-2.684896e+01
2.742958e+02	-2.689991e+01
2.758801e+02	-2.694901e+01
2.774736e+02	-2.700052e+01
2.790762e+02	-2.704993e+01
2.806882e+02	-2.709895e+01
2.823094e+02	-2.714904e+01
2.839400e+02	-2.719950e+01
2.855800e+02	-2.724957e+01
2.872295e+02	-2.730055e+01
2.888886e+02	-2.734926e+01
2.905572e+02	-2.740379e+01
2.922354e+02	-2.745276e+01
2.939234e+02	-2.749713e+01
2.956211e+02	-2.754689e+01
2.973286e+02	-2.760024e+01
2.990459e+02	-2.765272e+01
3.007732e+02	-2.770082e+01
3.025104e+02	-2.774890e+01
3.042577e+02	-2.779747e+01
3.060151e+02	-2.785116e+01
3.077826e+02	-2.790253e+01
3.095604e+02	-2.794993e+01
3.113484e+02	-2.800046e+01
3.131467e+02	-2.805061e+01
3.149554e+02	-2.810154e+01
3.167746e+02	-2.815094e+01
3.186043e+02	-2.820227e+01
3.204445e+02	-2.825054e+01
3.222954e+02	-2.830251e+01
3.241570e+02	-2.834703e+01
3.260293e+02	-2.839767e+01
3.279124e+02	-2.844844e+01
3.298064e+02	-2.850162e+01
3.317114e+02	-2.854898e+01
3.336273e+02	-2.859616e+01
3.355544e+02	-2.864579e+01
3.374925e+02	-2.870209e+01
3.394418e+02	-2.874947e+01
3.414024e+02	-2.879642e+01
3.433744e+02	-2.885041e+01
3.453577e+02	-2.890027e+01
3.473525e+02	-2.894995e+01
3.493588e+02	-2.899999e+01
3.513766e+02	-2.905174e+01
3.534062e+02	-2.909969e+01
3.554474e+02	-2.915497e+01
3.575005e+02	-2.920705e+01
3.595654e+02	-2.925157e+01
3.616422e+02	-2.930266e+01
3.637311e+02	-2.935210e+01
3.658320e+02	-2.940197e+01
3.679450e+02	-2.945166e+01
3.700702e+02	-2.950208e+01
3.722077e+02	-2.954810e+01
3.743576e+02	-2.960029e+01
3.765199e+02	-2.965093e+01
3.786946e+02	-2.969413e+01
3.808820e+02	-2.975325e+01
3.830819e+02	-2.980290e+01
3.852946e+02	-2.985200e+01
3.875200e+02	-2.989917e+01
3.897583e+02	-2.994755e+01
3.920096e+02	-3.000528e+01
3.942738e+02	-3.005009e+01
3.965511e+02	-3.010600e+01
3.988416e+02	-3.015231e+01
4.011452e+02	-3.020052e+01
4.034622e+02	-3.025832e+01
4.057926e+02	-3.029702e+01
4.081365e+02	-3.035121e+01
4.104938e+02	-3.040227e+01
4.128648e+02	-3.045616e+01
4.152495e+02	-3.050141e+01
4.176480e+02	-3.055000e+01
4.200603e+02	-3.060317e+01
4.224866e+02	-3.065236e+01
4.249268e+02	-3.069953e+01
4.273812e+02	-3.075052e+01
4.298497e+02	-3.080320e+01
4.323325e+02	-3.085687e+01
4.348297e+02	-3.089989e+01
4.373412e+02	-3.095845e+01
4.398673e+02	-3.099956e+01
4.424079e+02	-3.105312e+01
4.449633e+02	-3.110127e+01
4.475334e+02	-3.115523e+01
4.501183e+02	-3.120819e+01
4.527182e+02	-3.125459e+01
4.553330e+02	-3.130966e+01
4.579630e+02	-3.135246e+01
4.606082e+02	-3.140403e+01
4.632687e+02	-3.145364e+01
4.659445e+02	-3.150493e+01
4.686358e+02	-3.155575e+01
4.713426e+02	-3.160883e+01
4.740650e+02	-3.165312e+01
4.768032e+02	-3.170289e+01
4.795572e+02	-3.175345e+01
4.823271e+02	-3.179994e+01
4.851130e+02	-3.185517e+01
4.879150e+02	-3.190407e+01
4.907332e+02	-3.195200e+01
4.935676e+02	-3.201203e+01
4.964185e+02	-3.206102e+01
4.992858e+02	-3.211047e+01
5.021696e+02	-3.216366e+01
5.050701e+02	-3.220912e+01
5.079874e+02	-3.225345e+01
5.109215e+02	-3.231535e+01
5.138726e+02	-3.236506e+01
5.168407e+02	-3.240975e+01
5.198259e+02	-3.246111e+01
5.228284e+02	-3.251126e+01
5.258482e+02	-3.255342e+01
5.288855e+02	-3.261352e+01
5.319403e+02	-3.266355e+01
5.350128e+02	-3.271162e+01
5.381030e+02	-3.276226e+01
5.412111e+02	-3.280429e+01
5.443371e+02	-3.286262e+01
5.474812e+02	-3.292194e+01
5.506434e+02	-3.296372e+01
5.538239e+02	-3.301188e+01
5.570228e+02	-3.306351e+01
5.602401e+02	-3.311560e+01
5.634760e+02	-3.316376e+01
5.667306e+02	-3.321085e+01
5.700040e+02	-3.325843e+01
5.732964e+02	-3.331076e+01
5.766077e+02	-3.336345e+01
5.799382e+02	-3.341473e+01
5.832879e+02	-3.346690e+01
5.866569e+02	-3.352425e+01
5.900454e+02	-3.355881e+01
5.934535e+02	-3.360758e+01
5.968813e+02	-3.366332e+01
6.003288e+02	-3.371628e+01
6.037963e+02	-3.377320e+01
6.072838e+02	-3.380975e+01
6.107914e+02	-3.387073e+01
6.143194e+02	-3.391536e+01
6.178676e+02	-3.396842e+01
6.214364e+02	-3.401540e+01
6.250258e+02	-3.406792e+01
6.286359e+02	-3.411229e+01
6.322669e+02	-3.416588e+01
6.359189e+02	-3.421919e+01
6.395919e+02	-3.427280e+01
6.432862e+02	-3.432406e+01
6.470017e+02	-3.437237e+01
6.507388e+02	-3.442518e+01
6.544974e+02	-3.446316e+01
6.582778e+02	-3.451915e+01
6.620800e+02	-3.457300e+01
6.659041e+02	-3.461864e+01
6.697504e+02	-3.468001e+01
6.736188e+02	-3.472139e+01
6.775096e+02	-3.477728e+01
6.814229e+02	-3.482581e+01
6.853587e+02	-3.487878e+01
6.893173e+02	-3.492322e+01
6.932988e+02	-3.497175e+01
6.973033e+02	-3.503263e+01
7.013309e+02	-3.507334e+01
