Frequency(Hz)	Magnitude(dB)
1.000000e+01	-2.172564e+00
1.005776e+01	-2.192273e+00
1.011585e+01	-2.212120e+00
1.017428e+01	-2.232293e+00
1.023305e+01	-2.252199e+00
1.029215e+01	-2.272844e+00
1.035160e+01	-2.293192e+00
1.041139e+01	-2.313808e+00
1.047153e+01	-2.334628e+00
1.053201e+01	-2.355247e+00
1.059284e+01	-2.376508e+00
1.065403e+01	-2.397558e+00
1.071556e+01	-2.418897e+00
1.077746e+01	-2.440264e+00
1.083971e+01	-2.461862e+00
1.090232e+01	-2.483522e+00
1.096529e+01	-2.505456e+00
1.102862e+01	-2.527412e+00
1.109232e+01	-2.549768e+00
1.115639e+01	-2.571816e+00
1.122083e+01	-2.594402e+00
1.128564e+01	-2.616961e+00
1.135083e+01	-2.639667e+00
1.141639e+01	-2.662451e+00
1.148233e+01	-2.685434e+00
1.154865e+01	-2.708483e+00
1.161536e+01	-2.731997e+00
1.168245e+01	-2.755380e+00
1.174992e+01	-2.778790e+00
1.181779e+01	-2.802763e+00
1.188605e+01	-2.826491e+00
1.195470e+01	-2.850247e+00
1.202375e+01	-2.874601e+00
1.209320e+01	-2.898968e+00
1.216305e+01	-2.923421e+00
1.223330e+01	-2.947745e+00
1.230396e+01	-2.972571e+00
1.237503e+01	-2.997560e+00
1.244651e+01	-3.022297e+00
1.251840e+01	-3.047497e+00
1.259070e+01	-3.072934e+00
1.266343e+01	-3.098304e+00
1.273657e+01	-3.124073e+00
1.281014e+01	-3.149921e+00
1.288413e+01	-3.175641e+00
1.295855e+01	-3.201579e+00
1.303339e+01	-3.227479e+00
1.310867e+01	-3.254073e+00
1.318439e+01	-3.280430e+00
1.326054e+01	-3.307035e+00
1.333713e+01	-3.333663e+00
1.341417e+01	-3.360610e+00
1.349165e+01	-3.388004e+00
1.356958e+01	-3.415029e+00
1.364795e+01	-3.442237e+00
1.372678e+01	-3.469617e+00
1.380607e+01	-3.497419e+00
1.388581e+01	-3.524984e+00
1.396602e+01	-3.552970e+00
1.404668e+01	-3.581027e+00
1.412782e+01	-3.609125e+00
1.420942e+01	-3.637375e+00
1.429149e+01	-3.666103e+00
1.437404e+01	-3.694411e+00
1.445706e+01	-3.723271e+00
1.454057e+01	-3.752142e+00
1.462455e+01	-3.781264e+00
1.470902e+01	-3.810343e+00
1.479398e+01	-3.839170e+00
1.487943e+01	-3.868915e+00
1.496537e+01	-3.898362e+00
1.505181e+01	-3.928475e+00
1.513875e+01	-3.957987e+00
1.522619e+01	-3.988114e+00
1.531414e+01	-4.018170e+00
1.540259e+01	-4.048371e+00
1.549156e+01	-4.078903e+00
1.558103e+01	-4.109326e+00
1.567103e+01	-4.140072e+00
1.576155e+01	-4.171005e+00
1.585258e+01	-4.201595e+00
1.594415e+01	-4.232925e+00
1.603624e+01	-4.264027e+00
1.612886e+01	-4.295456e+00
1.622202e+01	-4.326912e+00
1.631572e+01	-4.358712e+00
1.640996e+01	-4.390238e+00
1.650474e+01	-4.422053e+00
1.660008e+01	-4.453976e+00
1.669596e+01	-4.486343e+00
1.679239e+01	-4.518710e+00
1.688938e+01	-4.551008e+00
1.698694e+01	-4.583480e+00
1.708505e+01	-4.616476e+00
1.718373e+01	-4.649096e+00
1.728299e+01	-4.681914e+00
1.738281e+01	-4.715244e+00
1.748322e+01	-4.748345e+00
1.758420e+01	-4.781602e+00
1.768576e+01	-4.814955e+00
1.778792e+01	-4.848527e+00
1.789066e+01	-4.882117e+00
1.799399e+01	-4.916122e+00
1.809793e+01	-4.950207e+00
1.820246e+01	-4.984251e+00
1.830760e+01	-5.018393e+00
1.841334e+01	-5.052750e+00
1.851969e+01	-5.087448e+00
1.862666e+01	-5.121780e+00
1.873425e+01	-5.156508e+00
1.884246e+01	-5.191406e+00
1.895129e+01	-5.226058e+00
1.906075e+01	-5.261350e+00
1.917085e+01	-5.296666e+00
1.928158e+01	-5.331778e+00
1.939295e+01	-5.367324e+00
1.950496e+01	-5.402925e+00
1.961762e+01	-5.438673e+00
1.973093e+01	-5.474304e+00
1.984490e+01	-5.510292e+00
1.995952e+01	-5.546067e+00
2.007480e+01	-5.582253e+00
2.019076e+01	-5.618793e+00
2.030738e+01	-5.654810e+00
2.042467e+01	-5.691311e+00
2.054264e+01	-5.727797e+00
2.066130e+01	-5.764762e+00
2.078064e+01	-5.801479e+00
2.090066e+01	-5.838710e+00
2.102139e+01	-5.875477e+00
2.114280e+01	-5.912387e+00
2.126492e+01	-5.949610e+00
2.138775e+01	-5.987217e+00
2.151128e+01	-6.024862e+00
2.163553e+01	-6.062237e+00
2.176050e+01	-6.100152e+00
2.188619e+01	-6.137900e+00
2.201260e+01	-6.175813e+00
2.213974e+01	-6.213878e+00
2.226762e+01	-6.251792e+00
2.239624e+01	-6.290245e+00
2.252560e+01	-6.328460e+00
2.265571e+01	-6.367030e+00
2.278656e+01	-6.405307e+00
2.291818e+01	-6.443508e+00
2.305055e+01	-6.482678e+00
2.318369e+01	-6.521766e+00
2.331760e+01	-6.560419e+00
2.345228e+01	-6.599598e+00
2.358774e+01	-6.638497e+00
2.372398e+01	-6.677735e+00
2.386101e+01	-6.717444e+00
2.399883e+01	-6.756610e+00
2.413745e+01	-6.795850e+00
2.427686e+01	-6.835686e+00
2.441709e+01	-6.875434e+00
2.455812e+01	-6.915396e+00
2.469997e+01	-6.955206e+00
2.484263e+01	-6.995143e+00
2.498612e+01	-7.035075e+00
2.513044e+01	-7.075270e+00
2.527559e+01	-7.115588e+00
2.542158e+01	-7.156013e+00
2.556842e+01	-7.196259e+00
2.571610e+01	-7.236600e+00
2.586463e+01	-7.277576e+00
2.601403e+01	-7.318480e+00
2.616428e+01	-7.359186e+00
2.631541e+01	-7.399981e+00
2.646740e+01	-7.441140e+00
2.662028e+01	-7.482076e+00
2.677404e+01	-7.523198e+00
2.692868e+01	-7.564401e+00
2.708422e+01	-7.605513e+00
2.724066e+01	-7.647108e+00
2.739800e+01	-7.688599e+00
2.755625e+01	-7.729898e+00
2.771541e+01	-7.771524e+00
2.787550e+01	-7.813537e+00
2.803650e+01	-7.855264e+00
2.819844e+01	-7.896783e+00
2.836131e+01	-7.939027e+00
2.852513e+01	-7.981632e+00
2.868989e+01	-8.023358e+00
2.885560e+01	-8.065426e+00
2.902227e+01	-8.107738e+00
2.918990e+01	-8.149978e+00
2.935850e+01	-8.192484e+00
2.952807e+01	-8.234510e+00
2.969863e+01	-8.277301e+00
2.987016e+01	-8.319804e+00
3.004269e+01	-8.362632e+00
3.021622e+01	-8.405651e+00
3.039075e+01	-8.448156e+00
3.056628e+01	-8.491241e+00
3.074283e+01	-8.534025e+00
3.092040e+01	-8.577043e+00
3.109900e+01	-8.620392e+00
3.127862e+01	-8.663520e+00
3.145929e+01	-8.706729e+00
3.164099e+01	-8.750328e+00
3.182375e+01	-8.793628e+00
3.200756e+01	-8.836714e+00
3.219244e+01	-8.880055e+00
3.237838e+01	-8.924307e+00
3.256540e+01	-8.967921e+00
3.275349e+01	-9.011327e+00
3.294268e+01	-9.055481e+00
3.313295e+01	-9.098911e+00
3.332433e+01	-9.142755e+00
3.351681e+01	-9.187042e+00
3.371040e+01	-9.230839e+00
3.390511e+01	-9.275070e+00
3.410094e+01	-9.318948e+00
3.429791e+01	-9.362888e+00
3.449601e+01	-9.407732e+00
3.469526e+01	-9.451908e+00
3.489566e+01	-9.495973e+00
3.509721e+01	-9.540908e+00
3.529993e+01	-9.585423e+00
3.550382e+01	-9.629466e+00
3.570889e+01	-9.674310e+00
3.591515e+01	-9.719227e+00
3.612259e+01	-9.763375e+00
3.633123e+01	-9.808480e+00
3.654108e+01	-9.853316e+00
3.675214e+01	-9.897948e+00
3.696442e+01	-9.943106e+00
3.717792e+01	-9.988274e+00
3.739266e+01	-1.003325e+01
3.760864e+01	-1.007815e+01
3.782587e+01	-1.012306e+01
3.804435e+01	-1.016814e+01
3.826409e+01	-1.021359e+01
3.848510e+01	-1.025858e+01
3.870739e+01	-1.030451e+01
3.893096e+01	-1.035010e+01
3.915583e+01	-1.039516e+01
3.938199e+01	-1.044093e+01
3.960946e+01	-1.048631e+01
3.983824e+01	-1.053185e+01
4.006834e+01	-1.057691e+01
4.029978e+01	-1.062358e+01
4.053255e+01	-1.066897e+01
4.076666e+01	-1.071404e+01
4.100213e+01	-1.076062e+01
4.123896e+01	-1.080598e+01
4.147715e+01	-1.085210e+01
4.171672e+01	-1.089801e+01
4.195767e+01	-1.094412e+01
4.220002e+01	-1.098997e+01
4.244377e+01	-1.103583e+01
4.268892e+01	-1.108213e+01
4.293549e+01	-1.112811e+01
4.318348e+01	-1.117447e+01
4.343291e+01	-1.122078e+01
4.368377e+01	-1.126663e+01
4.393609e+01	-1.131256e+01
4.418986e+01	-1.135978e+01
4.444510e+01	-1.140600e+01
4.470182e+01	-1.145271e+01
4.496001e+01	-1.149956e+01
4.521970e+01	-1.154593e+01
4.548089e+01	-1.159210e+01
4.574358e+01	-1.163910e+01
4.600779e+01	-1.168618e+01
4.627353e+01	-1.173170e+01
4.654081e+01	-1.177861e+01
4.680963e+01	-1.182576e+01
4.708000e+01	-1.187229e+01
4.735193e+01	-1.191923e+01
4.762543e+01	-1.196596e+01
4.790051e+01	-1.201282e+01
4.817719e+01	-1.206000e+01
4.845545e+01	-1.210672e+01
4.873533e+01	-1.215364e+01
4.901682e+01	-1.219975e+01
4.929994e+01	-1.224776e+01
4.958470e+01	-1.229455e+01
4.987110e+01	-1.234210e+01
5.015915e+01	-1.238827e+01
5.044887e+01	-1.243605e+01
5.074026e+01	-1.248335e+01
5.103333e+01	-1.253010e+01
5.132810e+01	-1.257734e+01
5.162457e+01	-1.262501e+01
5.192275e+01	-1.267226e+01
5.222265e+01	-1.271934e+01
5.252429e+01	-1.276623e+01
5.282767e+01	-1.281444e+01
5.313280e+01	-1.286213e+01
5.343969e+01	-1.290891e+01
5.374836e+01	-1.295611e+01
5.405880e+01	-1.300408e+01
5.437105e+01	-1.305178e+01
5.468509e+01	-1.309935e+01
5.500095e+01	-1.314691e+01
5.531863e+01	-1.319377e+01
5.563815e+01	-1.324191e+01
5.595951e+01	-1.328925e+01
5.628273e+01	-1.333758e+01
5.660782e+01	-1.338496e+01
5.693479e+01	-1.343309e+01
5.726364e+01	-1.348053e+01
5.759439e+01	-1.352875e+01
5.792705e+01	-1.357582e+01
5.826164e+01	-1.362365e+01
5.859815e+01	-1.367186e+01
5.893662e+01	-1.371997e+01
5.927703e+01	-1.376808e+01
5.961941e+01	-1.381568e+01
5.996377e+01	-1.386335e+01
6.031012e+01	-1.391124e+01
6.065847e+01	-1.396026e+01
6.100883e+01	-1.400830e+01
6.136121e+01	-1.405558e+01
6.171563e+01	-1.410400e+01
6.207210e+01	-1.415208e+01
6.243063e+01	-1.419974e+01
6.279122e+01	-1.424823e+01
6.315390e+01	-1.429568e+01
6.351868e+01	-1.434413e+01
6.388556e+01	-1.439344e+01
6.425456e+01	-1.444090e+01
6.462569e+01	-1.448892e+01
6.499897e+01	-1.453679e+01
6.537440e+01	-1.458508e+01
6.575200e+01	-1.463366e+01
6.613178e+01	-1.468307e+01
6.651375e+01	-1.472947e+01
6.689793e+01	-1.477932e+01
6.728433e+01	-1.482735e+01
6.767297e+01	-1.487580e+01
6.806384e+01	-1.492456e+01
6.845698e+01	-1.497320e+01
6.885238e+01	-1.502055e+01
6.925007e+01	-1.506880e+01
6.965005e+01	-1.511839e+01
7.005235e+01	-1.516624e+01
7.045697e+01	-1.521470e+01
7.086393e+01	-1.526421e+01
7.127323e+01	-1.531256e+01
7.168490e+01	-1.536045e+01
7.209895e+01	-1.540923e+01
7.251539e+01	-1.545731e+01
7.293424e+01	-1.550670e+01
7.335551e+01	-1.555464e+01
7.377920e+01	-1.560305e+01
7.420535e+01	-1.565245e+01
7.463396e+01	-1.570057e+01
7.506504e+01	-1.574990e+01
7.549861e+01	-1.579813e+01
7.593469e+01	-1.584697e+01
7.637328e+01	-1.589623e+01
7.681441e+01	-1.594422e+01
7.725809e+01	-1.599348e+01
7.770433e+01	-1.604175e+01
7.815315e+01	-1.609198e+01
7.860456e+01	-1.613885e+01
7.905857e+01	-1.618756e+01
7.951521e+01	-1.623696e+01
7.997449e+01	-1.628591e+01
8.043642e+01	-1.633456e+01
8.090102e+01	-1.638380e+01
8.136830e+01	-1.643387e+01
8.183828e+01	-1.648245e+01
8.231097e+01	-1.653000e+01
8.278640e+01	-1.658067e+01
8.326457e+01	-1.662798e+01
8.374550e+01	-1.667808e+01
8.422921e+01	-1.672619e+01
8.471572e+01	-1.677612e+01
8.520503e+01	-1.682409e+01
8.569717e+01	-1.687382e+01
8.619215e+01	-1.692287e+01
8.669000e+01	-1.697064e+01
8.719071e+01	-1.702050e+01
8.769432e+01	-1.706915e+01
8.820084e+01	-1.711867e+01
8.871029e+01	-1.716843e+01
8.922267e+01	-1.721646e+01
8.973802e+01	-1.726628e+01
9.025634e+01	-1.731511e+01
9.077766e+01	-1.736441e+01
9.130199e+01	-1.741361e+01
9.182935e+01	-1.746214e+01
9.235975e+01	-1.751080e+01
9.289321e+01	-1.756077e+01
9.342976e+01	-1.760880e+01
9.396941e+01	-1.765870e+01
9.451217e+01	-1.770767e+01
9.505807e+01	-1.775743e+01
9.560712e+01	-1.780691e+01
9.615934e+01	-1.785599e+01
9.671476e+01	-1.790450e+01
9.727338e+01	-1.795389e+01
9.783522e+01	-1.800272e+01
9.840032e+01	-1.805203e+01
9.896867e+01	-1.810277e+01
9.954031e+01	-1.815144e+01
1.001153e+02	-1.820039e+01
1.006935e+02	-1.824909e+01
1.012751e+02	-1.829833e+01
1.018601e+02	-1.834706e+01
1.024484e+02	-1.839745e+01
1.030402e+02	-1.844811e+01
1.036353e+02	-1.849411e+01
1.042339e+02	-1.854430e+01
1.048360e+02	-1.859486e+01
1.054415e+02	-1.864359e+01
1.060505e+02	-1.869355e+01
1.066631e+02	-1.874223e+01
1.072791e+02	-1.879269e+01
1.078988e+02	-1.884325e+01
1.085220e+02	-1.889060e+01
1.091488e+02	-1.894034e+01
1.097793e+02	-1.898814e+01
1.104133e+02	-1.904008e+01
1.110511e+02	-1.908841e+01
1.116925e+02	-1.913694e+01
1.123376e+02	-1.918736e+01
1.129865e+02	-1.923743e+01
1.136391e+02	-1.928447e+01
1.142955e+02	-1.933704e+01
1.149556e+02	-1.938568e+01
1.156196e+02	-1.943487e+01
1.162874e+02	-1.948464e+01
1.169591e+02	-1.953476e+01
1.176347e+02	-1.958142e+01
1.183141e+02	-1.963309e+01
1.189975e+02	-1.968329e+01
1.196848e+02	-1.973096e+01
1.203761e+02	-1.978108e+01
1.210714e+02	-1.983032e+01
1.217707e+02	-1.988104e+01
1.224740e+02	-1.993018e+01
1.231814e+02	-1.997997e+01
1.238929e+02	-2.002911e+01
1.246085e+02	-2.007847e+01
1.253283e+02	-2.012676e+01
1.260522e+02	-2.017871e+01
1.267802e+02	-2.022581e+01
1.275125e+02	-2.027594e+01
1.282490e+02	-2.032639e+01
1.289898e+02	-2.037729e+01
1.297348e+02	-2.042482e+01
1.304842e+02	-2.047461e+01
1.312378e+02	-2.052524e+01
1.319959e+02	-2.057256e+01
1.327583e+02	-2.062391e+01
1.335251e+02	-2.067408e+01
1.342963e+02	-2.072205e+01
1.350720e+02	-2.077405e+01
1.358522e+02	-2.082180e+01
1.366368e+02	-2.087202e+01
1.374260e+02	-2.091953e+01
1.382198e+02	-2.097137e+01
1.390182e+02	-2.102209e+01
1.398211e+02	-2.106904e+01
1.406287e+02	-2.112018e+01
1.414410e+02	-2.116843e+01
1.422579e+02	-2.121888e+01
1.430796e+02	-2.127012e+01
1.439060e+02	-2.131849e+01
1.447372e+02	-2.136962e+01
1.455732e+02	-2.142014e+01
1.464141e+02	-2.146806e+01
1.472597e+02	-2.151891e+01
1.481103e+02	-2.156633e+01
1.489658e+02	-2.161717e+01
1.498262e+02	-2.166558e+01
1.506916e+02	-2.171672e+01
1.515620e+02	-2.176459e+01
1.524374e+02	-2.181730e+01
1.533179e+02	-2.186489e+01
1.542034e+02	-2.191568e+01
1.550941e+02	-2.196361e+01
1.559899e+02	-2.201560e+01
1.568909e+02	-2.206452e+01
1.577971e+02	-2.211408e+01
1.587085e+02	-2.216419e+01
1.596252e+02	-2.221345e+01
1.605472e+02	-2.226245e+01
1.614745e+02	-2.231123e+01
1.624072e+02	-2.236105e+01
1.633453e+02	-2.241132e+01
1.642887e+02	-2.246317e+01
1.652377e+02	-2.251196e+01
1.661921e+02	-2.256039e+01
1.671520e+02	-2.260837e+01
1.681175e+02	-2.266257e+01
1.690885e+02	-2.270958e+01
1.700651e+02	-2.275895e+01
1.710474e+02	-2.281125e+01
1.720354e+02	-2.286013e+01
1.730291e+02	-2.290951e+01
1.740285e+02	-2.296052e+01
1.750337e+02	-2.301097e+01
1.760446e+02	-2.305992e+01
1.770615e+02	-2.311105e+01
1.780842e+02	-2.315751e+01
1.791128e+02	-2.320917e+01
1.801473e+02	-2.325912e+01
1.811878e+02	-2.330770e+01
1.822344e+02	-2.336137e+01
1.832870e+02	-2.340709e+01
1.843456e+02	-2.345959e+01
1.854104e+02	-2.350626e+01
1.864813e+02	-2.355911e+01
1.875584e+02	-2.361002e+01
1.886418e+02	-2.365538e+01
1.897313e+02	-2.370703e+01
1.908272e+02	-2.375644e+01
1.919294e+02	-2.380582e+01
1.930380e+02	-2.385891e+01
1.941530e+02	-2.390399e+01
1.952744e+02	-2.395497e+01
1.964023e+02	-2.400536e+01
1.975367e+02	-2.405543e+01
1.986777e+02	-2.410660e+01
1.998252e+02	-2.415259e+01
2.009794e+02	-2.420850e+01
2.021403e+02	-2.425660e+01
2.033078e+02	-2.430605e+01
2.044821e+02	-2.435699e+01
2.056632e+02	-2.440233e+01
2.068511e+02	-2.445536e+01
2.080459e+02	-2.450553e+01
2.092475e+02	-2.455598e+01
2.104561e+02	-2.460266e+01
2.116717e+02	-2.465589e+01
2.128943e+02	-2.470524e+01
2.141240e+02	-2.475684e+01
2.153608e+02	-2.480456e+01
2.166047e+02	-2.485406e+01
2.178558e+02	-2.490441e+01
2.191141e+02	-2.495381e+01
2.203797e+02	-2.500396e+01
2.216526e+02	-2.505733e+01
2.229329e+02	-2.510244e+01
2.242205e+02	-2.515262e+01
2.255156e+02	-2.520264e+01
2.268182e+02	-2.525379e+01
2.281283e+02	-2.530352e+01
2.294459e+02	-2.535527e+01
2.307712e+02	-2.539945e+01
2.321041e+02	-2.545389e+01
2.334447e+02	-2.550278e+01
2.347931e+02	-2.555379e+01
2.361493e+02	-2.559973e+01
2.375133e+02	-2.565123e+01
2.388851e+02	-2.570451e+01
2.402649e+02	-2.575256e+01
2.416527e+02	-2.579979e+01
2.430484e+02	-2.585358e+01
2.444523e+02	-2.590301e+01
2.458642e+02	-2.595384e+01
2.472843e+02	-2.600130e+01
2.487126e+02	-2.604899e+01
2.501492e+02	-2.610443e+01
2.515940e+02	-2.615163e+01
2.530472e+02	-2.620408e+01
2.545088e+02	-2.625343e+01
2.559789e+02	-2.630264e+01
2.574574e+02	-2.635380e+01
2.589444e+02	-2.640389e+01
2.604401e+02	-2.645486e+01
2.619444e+02	-2.650417e+01
2.634574e+02	-2.655166e+01
2.649791e+02	-2.659966e+01
2.665096e+02	-2.665176e+01
2.680489e+02	-2.670006e+01
2.695972e+02	-2.675326e+01
2.711544e+02	-2.680072e+01
2.727205e+02	-2.685418e+01
2.742958e+02	-2.690280e+01
2.758801e+02	-2.695477e+01
2.774736e+02	-2.700336e+01
2.790762e+02	-2.705037e+01
2.806882e+02	-2.710185e+01
2.823094e+02	-2.715173e+01
2.839400e+02	-2.720288e+01
2.855800e+02	-2.725340e+01
2.872295e+02	-2.730257e+01
2.888886e+02	-2.734977e+01
2.905572e+02	-2.740037e+01
2.922354e+02	-2.745439e+01
2.939234e+02	-2.749883e+01
2.956211e+02	-2.754898e+01
2.973286e+02	-2.760118e+01
2.990459e+02	-2.765165e+01
3.007732e+02	-2.770125e+01
3.025104e+02	-2.775080e+01
3.042577e+02	-2.780593e+01
3.060151e+02	-2.785398e+01
3.077826e+02	-2.790386e+01
3.095604e+02	-2.795094e+01
3.113484e+02	-2.800173e+01
3.131467e+02	-2.805021e+01
3.149554e+02	-2.810110e+01
3.167746e+02	-2.815408e+01
3.186043e+02	-2.820249e+01
3.204445e+02	-2.824859e+01
3.222954e+02	-2.829802e+01
3.241570e+02	-2.835023e+01
3.260293e+02	-2.840476e+01
3.279124e+02	-2.845407e+01
3.298064e+02	-2.850460e+01
3.317114e+02	-2.855462e+01
3.336273e+02	-2.860577e+01
3.355544e+02	-2.865394e+01
3.374925e+02	-2.870661e+01
3.394418e+02	-2.875194e+01
3.414024e+02	-2.880278e+01
3.433744e+02	-2.884766e+01
3.453577e+02	-2.889512e+01
3.473525e+02	-2.895408e+01
3.493588e+02	-2.900401e+01
3.513766e+02	-2.905078e+01
3.534062e+02	-2.910444e+01
3.554474e+02	-2.915390e+01
3.575005e+02	-2.920425e+01
3.595654e+02	-2.925157e+01
3.616422e+02	-2.930255e+01
3.637311e+02	-2.935918e+01
3.658320e+02	-2.940377e+01
3.679450e+02	-2.945292e+01
3.700702e+02	-2.950527e+01
3.722077e+02	-2.955341e+01
3.743576e+02	-2.960563e+01
3.765199e+02	-2.965204e+01
3.786946e+02	-2.970276e+01
3.808820e+02	-2.975680e+01
3.830819e+02	-2.980104e+01
3.852946e+02	-2.985325e+01
3.875200e+02	-2.990640e+01
3.897583e+02	-2.995724e+01
3.920096e+02	-3.000551e+01
3.942738e+02	-3.005580e+01
3.965511e+02	-3.010705e+01
3.988416e+02	-3.015076e+01
4.011452e+02	-3.020604e+01
4.034622e+02	-3.025578e+01
4.057926e+02	-3.030748e+01
4.081365e+02	-3.035180e+01
4.104938e+02	-3.040369e+01
4.128648e+02	-3.045394e+01
4.152495e+02	-3.050645e+01
4.176480e+02	-3.055382e+01
4.200603e+02	-3.060739e+01
4.224866e+02	-3.065826e+01
4.249268e+02	-3.070823e+01
4.273812e+02	-3.075511e+01
4.298497e+02	-3.080281e+01
4.323325e+02	-3.085516e+01
4.348297e+02	-3.090860e+01
4.373412e+02	-3.095250e+01
4.398673e+02	-3.100499e+01
4.424079e+02	-3.105413e+01
4.449633e+02	-3.110718e+01
4.475334e+02	-3.115669e+01
4.501183e+02	-3.121205e+01
4.527182e+02	-3.125384e+01
4.553330e+02	-3.130459e+01
4.579630e+02	-3.135659e+01
4.606082e+02	-3.141427e+01
4.632687e+02	-3.145667e+01
4.659445e+02	-3.151013e+01
4.686358e+02	-3.155322e+01
4.713426e+02	-3.160778e+01
4.740650e+02	-3.165818e+01
4.768032e+02	-3.171593e+01
4.795572e+02	-3.176244e+01
4.823271e+02	-3.181295e+01
4.851130e+02	-3.186186e+01
4.879150e+02	-3.191694e+01
4.907332e+02	-3.195658e+01
4.935676e+02	-3.200541e+01
4.964185e+02	-3.205760e+01
4.992858e+02	-3.210479e+01
5.021696e+02	-3.215797e+01
5.050701e+02	-3.221079e+01
5.079874e+02	-3.225863e+01
5.109215e+02	-3.231984e+01
5.138726e+02	-3.236319e+01
5.168407e+02	-3.240703e+01
5.198259e+02	-3.246341e+01
5.228284e+02	-3.251256e+01
5.258482e+02	-3.256291e+01
5.288855e+02	-3.261588e+01
5.319403e+02	-3.266149e+01
5.350128e+02	-3.272064e+01
5.381030e+02	-3.276889e+01
5.412111e+02	-3.281417e+01
5.443371e+02	-3.286600e+01
5.474812e+02	-3.292218e+01
5.506434e+02	-3.295369e+01
5.538239e+02	-3.301481e+01
5.570228e+02	-3.306779e+01
5.602401e+02	-3.312168e+01
5.634760e+02	-3.316221e+01
5.667306e+02	-3.321263e+01
5.700040e+02	-3.326862e+01
5.732964e+02	-3.331549e+01
5.766077e+02	-3.336551e+01
5.799382e+02	-3.341541e+01
5.832879e+02	-3.346068e+01
5.866569e+02	-3.351640e+01
5.900454e+02	-3.356870e+01
5.934535e+02	-3.361959e+01
5.968813e+02	-3.366911e+01
6.003288e+02	-3.372040e+01
6.037963e+02	-3.377640e+01
6.072838e+02	-3.381030e+01
6.107914e+02	-3.387279e+01
6.143194e+02	-3.392002e+01
6.178676e+02	-3.397572e+01
6.214364e+02	-3.401071e+01
6.250258e+02	-3.407303e+01
6.286359e+02	-3.412677e+01
6.322669e+02	-3.417644e+01
6.359189e+02	-3.422486e+01
6.395919e+02	-3.427243e+01
6.432862e+02	-3.431830e+01
6.470017e+02	-3.437855e+01
6.507388e+02	-3.442180e+01
6.544974e+02	-3.447012e+01
6.582778e+02	-3.451948e+01
6.620800e+02	-3.457356e+01
6.659041e+02	-3.462681e+01
6.697504e+02	-3.467639e+01
6.736188e+02	-3.472164e+01
6.775096e+02	-3.477795e+01
6.814229e+02	-3.482497e+01
6.853587e+02	-3.487334e+01
6.893173e+02	-3.492419e+01
6.932988e+02	-3.497679e+01
6.973033e+02	-3.501703e+01
7.013309e+02	-3.507536e+01
