Frequency(Hz)	Magnitude(dB)
1.000000e+01	-2.224925e+00
1.005776e+01	-2.245141e+00
1.011585e+01	-2.265237e+00
1.017428e+01	-2.285697e+00
1.023305e+01	-2.306029e+00
1.029215e+01	-2.326837e+00
1.035160e+01	-2.347710e+00
1.041139e+01	-2.368648e+00
1.047153e+01	-2.389708e+00
1.053201e+01	-2.410764e+00
1.059284e+01	-2.432683e+00
1.065403e+01	-2.453883e+00
1.071556e+01	-2.475330e+00
1.077746e+01	-2.497195e+00
1.083971e+01	-2.519297e+00
1.090232e+01	-2.541344e+00
1.096529e+01	-2.563504e+00
1.102862e+01	-2.586013e+00
1.109232e+01	-2.608288e+00
1.115639e+01	-2.631110e+00
1.122083e+01	-2.653797e+00
1.128564e+01	-2.677026e+00
1.135083e+01	-2.699676e+00
1.141639e+01	-2.723341e+00
1.148233e+01	-2.746566e+00
1.154865e+01	-2.770004e+00
1.161536e+01	-2.793567e+00
1.168245e+01	-2.817693e+00
1.174992e+01	-2.841400e+00
1.181779e+01	-2.865792e+00
1.188605e+01	-2.889921e+00
1.195470e+01	-2.914114e+00
1.202375e+01	-2.938855e+00
1.209320e+01	-2.963229e+00
1.216305e+01	-2.988250e+00
1.223330e+01	-3.013001e+00
1.230396e+01	-3.037989e+00
1.237503e+01	-3.063360e+00
1.244651e+01	-3.089044e+00
1.251840e+01	-3.114428e+00
1.259070e+01	-3.139948e+00
1.266343e+01	-3.165995e+00
1.273657e+01	-3.191907e+00
1.281014e+01	-3.218142e+00
1.288413e+01	-3.244354e+00
1.295855e+01	-3.270597e+00
1.303339e+01	-3.297066e+00
1.310867e+01	-3.323925e+00
1.318439e+01	-3.350645e+00
1.326054e+01	-3.377799e+00
1.333713e+01	-3.404779e+00
1.341417e+01	-3.431908e+00
1.349165e+01	-3.459476e+00
1.356958e+01	-3.486989e+00
1.364795e+01	-3.514651e+00
1.372678e+01	-3.542538e+00
1.380607e+01	-3.570429e+00
1.388581e+01	-3.598586e+00
1.396602e+01	-3.626851e+00
1.404668e+01	-3.654823e+00
1.412782e+01	-3.683796e+00
1.420942e+01	-3.712489e+00
1.429149e+01	-3.741198e+00
1.437404e+01	-3.770180e+00
1.445706e+01	-3.799264e+00
1.454057e+01	-3.828603e+00
1.462455e+01	-3.857956e+00
1.470902e+01	-3.887474e+00
1.479398e+01	-3.917191e+00
1.487943e+01	-3.946881e+00
1.496537e+01	-3.976853e+00
1.505181e+01	-4.006850e+00
1.513875e+01	-4.037262e+00
1.522619e+01	-4.067334e+00
1.531414e+01	-4.097952e+00
1.540259e+01	-4.128250e+00
1.549156e+01	-4.159282e+00
1.558103e+01	-4.190186e+00
1.567103e+01	-4.221141e+00
1.576155e+01	-4.252394e+00
1.585258e+01	-4.283542e+00
1.594415e+01	-4.315281e+00
1.603624e+01	-4.346813e+00
1.612886e+01	-4.378336e+00
1.622202e+01	-4.410245e+00
1.631572e+01	-4.442075e+00
1.640996e+01	-4.474261e+00
1.650474e+01	-4.506545e+00
1.660008e+01	-4.539051e+00
1.669596e+01	-4.571583e+00
1.679239e+01	-4.603992e+00
1.688938e+01	-4.636883e+00
1.698694e+01	-4.669741e+00
1.708505e+01	-4.702877e+00
1.718373e+01	-4.736181e+00
1.728299e+01	-4.769263e+00
1.738281e+01	-4.802856e+00
1.748322e+01	-4.836355e+00
1.758420e+01	-4.869735e+00
1.768576e+01	-4.903536e+00
1.778792e+01	-4.937692e+00
1.789066e+01	-4.971727e+00
1.799399e+01	-5.005930e+00
1.809793e+01	-5.039933e+00
1.820246e+01	-5.074460e+00
1.830760e+01	-5.109027e+00
1.841334e+01	-5.143714e+00
1.851969e+01	-5.178156e+00
1.862666e+01	-5.213123e+00
1.873425e+01	-5.248252e+00
1.884246e+01	-5.283455e+00
1.895129e+01	-5.318648e+00
1.906075e+01	-5.353952e+00
1.917085e+01	-5.389805e+00
1.928158e+01	-5.425422e+00
1.939295e+01	-5.460965e+00
1.950496e+01	-5.496568e+00
1.961762e+01	-5.532927e+00
1.973093e+01	-5.569167e+00
1.984490e+01	-5.605038e+00
1.995952e+01	-5.641683e+00
2.007480e+01	-5.677593e+00
2.019076e+01	-5.714580e+00
2.030738e+01	-5.751288e+00
2.042467e+01	-5.787735e+00
2.054264e+01	-5.824705e+00
2.066130e+01	-5.861904e+00
2.078064e+01	-5.898881e+00
2.090066e+01	-5.936228e+00
2.102139e+01	-5.973239e+00
2.114280e+01	-6.010940e+00
2.126492e+01	-6.048309e+00
2.138775e+01	-6.085921e+00
2.151128e+01	-6.123857e+00
2.163553e+01	-6.161952e+00
2.176050e+01	-6.199148e+00
2.188619e+01	-6.237405e+00
2.201260e+01	-6.275937e+00
2.213974e+01	-6.314365e+00
2.226762e+01	-6.352505e+00
2.239624e+01	-6.391290e+00
2.252560e+01	-6.429766e+00
2.265571e+01	-6.468527e+00
2.278656e+01	-6.507143e+00
2.291818e+01	-6.545855e+00
2.305055e+01	-6.585081e+00
2.318369e+01	-6.623987e+00
2.331760e+01	-6.663567e+00
2.345228e+01	-6.702665e+00
2.358774e+01	-6.741805e+00
2.372398e+01	-6.781665e+00
2.386101e+01	-6.821110e+00
2.399883e+01	-6.860813e+00
2.413745e+01	-6.900459e+00
2.427686e+01	-6.940516e+00
2.441709e+01	-6.980103e+00
2.455812e+01	-7.020208e+00
2.469997e+01	-7.060547e+00
2.484263e+01	-7.100350e+00
2.498612e+01	-7.141405e+00
2.513044e+01	-7.181355e+00
2.527559e+01	-7.222011e+00
2.542158e+01	-7.262777e+00
2.556842e+01	-7.303115e+00
2.571610e+01	-7.344145e+00
2.586463e+01	-7.385062e+00
2.601403e+01	-7.425499e+00
2.616428e+01	-7.466335e+00
2.631541e+01	-7.508043e+00
2.646740e+01	-7.549242e+00
2.662028e+01	-7.590275e+00
2.677404e+01	-7.631632e+00
2.692868e+01	-7.673235e+00
2.708422e+01	-7.714621e+00
2.724066e+01	-7.756458e+00
2.739800e+01	-7.797702e+00
2.755625e+01	-7.839466e+00
2.771541e+01	-7.881170e+00
2.787550e+01	-7.923581e+00
2.803650e+01	-7.964805e+00
2.819844e+01	-8.007079e+00
2.836131e+01	-8.049516e+00
2.852513e+01	-8.091630e+00
2.868989e+01	-8.134145e+00
2.885560e+01	-8.176242e+00
2.902227e+01	-8.218830e+00
2.918990e+01	-8.261563e+00
2.935850e+01	-8.304505e+00
2.952807e+01	-8.347126e+00
2.969863e+01	-8.389179e+00
2.987016e+01	-8.431918e+00
3.004269e+01	-8.474983e+00
3.021622e+01	-8.517896e+00
3.039075e+01	-8.561364e+00
3.056628e+01	-8.604237e+00
3.074283e+01	-8.647210e+00
3.092040e+01	-8.690694e+00
3.109900e+01	-8.734298e+00
3.127862e+01	-8.777596e+00
3.145929e+01	-8.820689e+00
3.164099e+01	-8.864595e+00
3.182375e+01	-8.908169e+00
3.200756e+01	-8.951506e+00
3.219244e+01	-8.995405e+00
3.237838e+01	-9.039226e+00
3.256540e+01	-9.083056e+00
3.275349e+01	-9.126996e+00
3.294268e+01	-9.170497e+00
3.313295e+01	-9.214819e+00
3.332433e+01	-9.258641e+00
3.351681e+01	-9.303021e+00
3.371040e+01	-9.346292e+00
3.390511e+01	-9.391098e+00
3.410094e+01	-9.435525e+00
3.429791e+01	-9.479792e+00
3.449601e+01	-9.524382e+00
3.469526e+01	-9.568814e+00
3.489566e+01	-9.613519e+00
3.509721e+01	-9.657522e+00
3.529993e+01	-9.702357e+00
3.550382e+01	-9.747076e+00
3.570889e+01	-9.791656e+00
3.591515e+01	-9.836772e+00
3.612259e+01	-9.881471e+00
3.633123e+01	-9.926127e+00
3.654108e+01	-9.971515e+00
3.675214e+01	-1.001641e+01
3.696442e+01	-1.006158e+01
3.717792e+01	-1.010686e+01
3.739266e+01	-1.015214e+01
3.760864e+01	-1.019747e+01
3.782587e+01	-1.024237e+01
3.804435e+01	-1.028734e+01
3.826409e+01	-1.033290e+01
3.848510e+01	-1.037886e+01
3.870739e+01	-1.042348e+01
3.893096e+01	-1.046947e+01
3.915583e+01	-1.051533e+01
3.938199e+01	-1.056041e+01
3.960946e+01	-1.060583e+01
3.983824e+01	-1.065234e+01
4.006834e+01	-1.069826e+01
4.029978e+01	-1.074373e+01
4.053255e+01	-1.078903e+01
4.076666e+01	-1.083550e+01
4.100213e+01	-1.088067e+01
4.123896e+01	-1.092703e+01
4.147715e+01	-1.097261e+01
4.171672e+01	-1.101947e+01
4.195767e+01	-1.106474e+01
4.220002e+01	-1.111149e+01
4.244377e+01	-1.115721e+01
4.268892e+01	-1.120412e+01
4.293549e+01	-1.124989e+01
4.318348e+01	-1.129634e+01
4.343291e+01	-1.134269e+01
4.368377e+01	-1.138852e+01
4.393609e+01	-1.143523e+01
4.418986e+01	-1.148162e+01
4.444510e+01	-1.152854e+01
4.470182e+01	-1.157478e+01
4.496001e+01	-1.162129e+01
4.521970e+01	-1.166782e+01
4.548089e+01	-1.171481e+01
4.574358e+01	-1.176178e+01
4.600779e+01	-1.180827e+01
4.627353e+01	-1.185462e+01
4.654081e+01	-1.190190e+01
4.680963e+01	-1.194797e+01
4.708000e+01	-1.199550e+01
4.735193e+01	-1.204217e+01
4.762543e+01	-1.208894e+01
4.790051e+01	-1.213609e+01
4.817719e+01	-1.218293e+01
4.845545e+01	-1.222999e+01
4.873533e+01	-1.227700e+01
4.901682e+01	-1.232442e+01
4.929994e+01	-1.237120e+01
4.958470e+01	-1.241821e+01
4.987110e+01	-1.246579e+01
5.015915e+01	-1.251268e+01
5.044887e+01	-1.256004e+01
5.074026e+01	-1.260683e+01
5.103333e+01	-1.265441e+01
5.132810e+01	-1.270198e+01
5.162457e+01	-1.274952e+01
5.192275e+01	-1.279705e+01
5.222265e+01	-1.284342e+01
5.252429e+01	-1.289193e+01
5.282767e+01	-1.293878e+01
5.313280e+01	-1.298678e+01
5.343969e+01	-1.303350e+01
5.374836e+01	-1.308159e+01
5.405880e+01	-1.312858e+01
5.437105e+01	-1.317663e+01
5.468509e+01	-1.322500e+01
5.500095e+01	-1.327267e+01
5.531863e+01	-1.331960e+01
5.563815e+01	-1.336664e+01
5.595951e+01	-1.341486e+01
5.628273e+01	-1.346271e+01
5.660782e+01	-1.351046e+01
5.693479e+01	-1.355897e+01
5.726364e+01	-1.360633e+01
5.759439e+01	-1.365353e+01
5.792705e+01	-1.370182e+01
5.826164e+01	-1.374964e+01
5.859815e+01	-1.379773e+01
5.893662e+01	-1.384641e+01
5.927703e+01	-1.389377e+01
5.961941e+01	-1.394201e+01
5.996377e+01	-1.398930e+01
6.031012e+01	-1.403786e+01
6.065847e+01	-1.408509e+01
6.100883e+01	-1.413435e+01
6.136121e+01	-1.418163e+01
6.171563e+01	-1.423048e+01
6.207210e+01	-1.427778e+01
6.243063e+01	-1.432651e+01
6.279122e+01	-1.437480e+01
6.315390e+01	-1.442288e+01
6.351868e+01	-1.447021e+01
6.388556e+01	-1.452037e+01
6.425456e+01	-1.456795e+01
6.462569e+01	-1.461545e+01
6.499897e+01	-1.466427e+01
6.537440e+01	-1.471261e+01
6.575200e+01	-1.476085e+01
6.613178e+01	-1.480976e+01
6.651375e+01	-1.485747e+01
6.689793e+01	-1.490568e+01
6.728433e+01	-1.495437e+01
6.767297e+01	-1.500401e+01
6.806384e+01	-1.505106e+01
6.845698e+01	-1.510022e+01
6.885238e+01	-1.514794e+01
6.925007e+01	-1.519713e+01
6.965005e+01	-1.524421e+01
7.005235e+01	-1.529366e+01
7.045697e+01	-1.534195e+01
7.086393e+01	-1.539173e+01
7.127323e+01	-1.543945e+01
7.168490e+01	-1.548815e+01
7.209895e+01	-1.553638e+01
7.251539e+01	-1.558551e+01
7.293424e+01	-1.563392e+01
7.335551e+01	-1.568348e+01
7.377920e+01	-1.573134e+01
7.420535e+01	-1.577990e+01
7.463396e+01	-1.582874e+01
7.506504e+01	-1.587860e+01
7.549861e+01	-1.592603e+01
7.593469e+01	-1.597495e+01
7.637328e+01	-1.602405e+01
7.681441e+01	-1.607301e+01
7.725809e+01	-1.612203e+01
7.770433e+01	-1.617020e+01
7.815315e+01	-1.621909e+01
7.860456e+01	-1.626883e+01
7.905857e+01	-1.631795e+01
7.951521e+01	-1.636630e+01
7.997449e+01	-1.641405e+01
8.043642e+01	-1.646392e+01
8.090102e+01	-1.651326e+01
8.136830e+01	-1.656219e+01
8.183828e+01	-1.661039e+01
8.231097e+01	-1.665902e+01
8.278640e+01	-1.670796e+01
8.326457e+01	-1.675731e+01
8.374550e+01	-1.680644e+01
8.422921e+01	-1.685428e+01
8.471572e+01	-1.690407e+01
8.520503e+01	-1.695385e+01
8.569717e+01	-1.700169e+01
8.619215e+01	-1.705054e+01
8.669000e+01	-1.710038e+01
8.719071e+01	-1.714931e+01
8.769432e+01	-1.719865e+01
8.820084e+01	-1.724748e+01
8.871029e+01	-1.729627e+01
8.922267e+01	-1.734545e+01
8.973802e+01	-1.739489e+01
9.025634e+01	-1.744403e+01
9.077766e+01	-1.749329e+01
9.130199e+01	-1.754227e+01
9.182935e+01	-1.759069e+01
9.235975e+01	-1.764239e+01
9.289321e+01	-1.768904e+01
9.342976e+01	-1.773807e+01
9.396941e+01	-1.778888e+01
9.451217e+01	-1.783699e+01
9.505807e+01	-1.788755e+01
9.560712e+01	-1.793562e+01
9.615934e+01	-1.798442e+01
9.671476e+01	-1.803356e+01
9.727338e+01	-1.808362e+01
9.783522e+01	-1.813435e+01
9.840032e+01	-1.818188e+01
9.896867e+01	-1.823124e+01
9.954031e+01	-1.828074e+01
1.001153e+02	-1.833093e+01
1.006935e+02	-1.837845e+01
1.012751e+02	-1.842875e+01
1.018601e+02	-1.847867e+01
1.024484e+02	-1.852686e+01
1.030402e+02	-1.857642e+01
1.036353e+02	-1.862504e+01
1.042339e+02	-1.867452e+01
1.048360e+02	-1.872431e+01
1.054415e+02	-1.877262e+01
1.060505e+02	-1.882385e+01
1.066631e+02	-1.887435e+01
1.072791e+02	-1.892226e+01
1.078988e+02	-1.897192e+01
1.085220e+02	-1.902122e+01
1.091488e+02	-1.907055e+01
1.097793e+02	-1.912057e+01
1.104133e+02	-1.916973e+01
1.110511e+02	-1.921794e+01
1.116925e+02	-1.926811e+01
1.123376e+02	-1.931732e+01
1.129865e+02	-1.936672e+01
1.136391e+02	-1.941757e+01
1.142955e+02	-1.946534e+01
1.149556e+02	-1.951510e+01
1.156196e+02	-1.956470e+01
1.162874e+02	-1.961453e+01
1.169591e+02	-1.966450e+01
1.176347e+02	-1.971278e+01
1.183141e+02	-1.976350e+01
1.189975e+02	-1.981134e+01
1.196848e+02	-1.986152e+01
1.203761e+02	-1.991089e+01
1.210714e+02	-1.996114e+01
1.217707e+02	-2.001047e+01
1.224740e+02	-2.006028e+01
1.231814e+02	-2.010768e+01
1.238929e+02	-2.015882e+01
1.246085e+02	-2.020819e+01
1.253283e+02	-2.025651e+01
1.260522e+02	-2.030709e+01
1.267802e+02	-2.035851e+01
1.275125e+02	-2.040654e+01
1.282490e+02	-2.045652e+01
1.289898e+02	-2.050404e+01
1.297348e+02	-2.055464e+01
1.304842e+02	-2.060562e+01
1.312378e+02	-2.065515e+01
1.319959e+02	-2.070439e+01
1.327583e+02	-2.075363e+01
1.335251e+02	-2.080207e+01
1.342963e+02	-2.085336e+01
1.350720e+02	-2.090208e+01
1.358522e+02	-2.095199e+01
1.366368e+02	-2.100118e+01
1.374260e+02	-2.105088e+01
1.382198e+02	-2.110299e+01
1.390182e+02	-2.115274e+01
1.398211e+02	-2.120059e+01
1.406287e+02	-2.124984e+01
1.414410e+02	-2.129976e+01
1.422579e+02	-2.134979e+01
1.430796e+02	-2.139904e+01
1.439060e+02	-2.144993e+01
1.447372e+02	-2.149948e+01
1.455732e+02	-2.154854e+01
1.464141e+02	-2.160041e+01
1.472597e+02	-2.164800e+01
1.481103e+02	-2.169749e+01
1.489658e+02	-2.174957e+01
1.498262e+02	-2.179695e+01
1.506916e+02	-2.184608e+01
1.515620e+02	-2.189557e+01
1.524374e+02	-2.194619e+01
1.533179e+02	-2.199392e+01
1.542034e+02	-2.204438e+01
1.550941e+02	-2.209489e+01
1.559899e+02	-2.214545e+01
1.568909e+02	-2.219322e+01
1.577971e+02	-2.224377e+01
1.587085e+02	-2.229445e+01
1.596252e+02	-2.234327e+01
1.605472e+02	-2.239130e+01
1.614745e+02	-2.244295e+01
1.624072e+02	-2.249311e+01
1.633453e+02	-2.254481e+01
1.642887e+02	-2.259267e+01
1.652377e+02	-2.264172e+01
1.661921e+02	-2.269270e+01
1.671520e+02	-2.274332e+01
1.681175e+02	-2.279202e+01
1.690885e+02	-2.284409e+01
1.700651e+02	-2.289160e+01
1.710474e+02	-2.294046e+01
1.720354e+02	-2.299046e+01
1.730291e+02	-2.303966e+01
1.740285e+02	-2.309226e+01
1.750337e+02	-2.314067e+01
1.760446e+02	-2.318828e+01
1.770615e+02	-2.324246e+01
1.780842e+02	-2.329209e+01
1.791128e+02	-2.334075e+01
1.801473e+02	-2.338980e+01
1.811878e+02	-2.343899e+01
1.822344e+02	-2.348745e+01
1.832870e+02	-2.353837e+01
1.843456e+02	-2.358984e+01
1.854104e+02	-2.363943e+01
1.864813e+02	-2.368754e+01
1.875584e+02	-2.373716e+01
1.886418e+02	-2.378754e+01
1.897313e+02	-2.383844e+01
1.908272e+02	-2.389089e+01
1.919294e+02	-2.393801e+01
1.930380e+02	-2.398741e+01
1.941530e+02	-2.403552e+01
1.952744e+02	-2.408910e+01
1.964023e+02	-2.413876e+01
1.975367e+02	-2.418830e+01
1.986777e+02	-2.423857e+01
1.998252e+02	-2.428991e+01
2.009794e+02	-2.433626e+01
2.021403e+02	-2.438704e+01
2.033078e+02	-2.443718e+01
2.044821e+02	-2.448419e+01
2.056632e+02	-2.453841e+01
2.068511e+02	-2.458314e+01
2.080459e+02	-2.463687e+01
2.092475e+02	-2.468560e+01
2.104561e+02	-2.473583e+01
2.116717e+02	-2.478918e+01
2.128943e+02	-2.483350e+01
2.141240e+02	-2.488593e+01
2.153608e+02	-2.493580e+01
2.166047e+02	-2.498712e+01
2.178558e+02	-2.503391e+01
2.191141e+02	-2.508257e+01
2.203797e+02	-2.513248e+01
2.216526e+02	-2.518677e+01
2.229329e+02	-2.523284e+01
2.242205e+02	-2.528380e+01
2.255156e+02	-2.533439e+01
2.268182e+02	-2.538560e+01
2.281283e+02	-2.543325e+01
2.294459e+02	-2.548443e+01
2.307712e+02	-2.553711e+01
2.321041e+02	-2.558387e+01
2.334447e+02	-2.562962e+01
2.347931e+02	-2.568576e+01
2.361493e+02	-2.573448e+01
2.375133e+02	-2.578505e+01
2.388851e+02	-2.583649e+01
2.402649e+02	-2.588456e+01
2.416527e+02	-2.593442e+01
2.430484e+02	-2.598363e+01
2.444523e+02	-2.603224e+01
2.458642e+02	-2.608377e+01
2.472843e+02	-2.613143e+01
2.487126e+02	-2.618506e+01
2.501492e+02	-2.623569e+01
2.515940e+02	-2.628257e+01
2.530472e+02	-2.633545e+01
2.545088e+02	-2.638258e+01
2.559789e+02	-2.643184e+01
2.574574e+02	-2.648366e+01
2.589444e+02	-2.653164e+01
2.604401e+02	-2.658187e+01
2.619444e+02	-2.663151e+01
2.634574e+02	-2.668318e+01
2.649791e+02	-2.673308e+01
2.665096e+02	-2.678210e+01
2.680489e+02	-2.683189e+01
2.695972e+02	-2.688080e+01
2.711544e+02	-2.693334e+01
2.727205e+02	-2.698803e+01
2.742958e+02	-2.703325e+01
2.758801e+02	-2.708199e+01
2.774736e+02	-2.713098e+01
2.790762e+02	-2.717968e+01
2.806882e+02	-2.723193e+01
2.823094e+02	-2.728380e+01
2.839400e+02	-2.733265e+01
2.855800e+02	-2.738378e+01
2.872295e+02	-2.743470e+01
2.888886e+02	-2.748445e+01
2.905572e+02	-2.753471e+01
2.922354e+02	-2.758311e+01
2.939234e+02	-2.763485e+01
2.956211e+02	-2.768433e+01
2.973286e+02	-2.773556e+01
2.990459e+02	-2.778410e+01
3.007732e+02	-2.783886e+01
3.025104e+02	-2.788489e+01
3.042577e+02	-2.793334e+01
3.060151e+02	-2.798626e+01
3.077826e+02	-2.803240e+01
3.095604e+02	-2.808146e+01
3.113484e+02	-2.813051e+01
3.131467e+02	-2.818327e+01
3.149554e+02	-2.823725e+01
3.167746e+02	-2.828530e+01
3.186043e+02	-2.833263e+01
3.204445e+02	-2.838185e+01
3.222954e+02	-2.843220e+01
3.241570e+02	-2.848394e+01
3.260293e+02	-2.853138e+01
3.279124e+02	-2.858458e+01
3.298064e+02	-2.862821e+01
3.317114e+02	-2.868078e+01
3.336273e+02	-2.873512e+01
3.355544e+02	-2.878487e+01
3.374925e+02	-2.883433e+01
3.394418e+02	-2.887891e+01
3.414024e+02	-2.893415e+01
3.433744e+02	-2.897896e+01
3.453577e+02	-2.903371e+01
3.473525e+02	-2.908532e+01
3.493588e+02	-2.913504e+01
3.513766e+02	-2.918319e+01
3.534062e+02	-2.923698e+01
3.554474e+02	-2.928128e+01
3.575005e+02	-2.933578e+01
3.595654e+02	-2.938953e+01
3.616422e+02	-2.943428e+01
3.637311e+02	-2.948522e+01
3.658320e+02	-2.954067e+01
3.679450e+02	-2.958322e+01
3.700702e+02	-2.962978e+01
3.722077e+02	-2.968374e+01
3.743576e+02	-2.973073e+01
3.765199e+02	-2.978357e+01
3.786946e+02	-2.983319e+01
3.808820e+02	-2.988174e+01
3.830819e+02	-2.993600e+01
3.852946e+02	-2.998247e+01
3.875200e+02	-3.003321e+01
3.897583e+02	-3.008568e+01
3.920096e+02	-3.013490e+01
3.942738e+02	-3.018531e+01
3.965511e+02	-3.023592e+01
3.988416e+02	-3.028637e+01
4.011452e+02	-3.034028e+01
4.034622e+02	-3.038671e+01
4.057926e+02	-3.043422e+01
4.081365e+02	-3.048418e+01
4.104938e+02	-3.053193e+01
4.128648e+02	-3.058649e+01
4.152495e+02	-3.063510e+01
4.176480e+02	-3.068726e+01
4.200603e+02	-3.073699e+01
4.224866e+02	-3.078624e+01
4.249268e+02	-3.083480e+01
4.273812e+02	-3.088679e+01
4.298497e+02	-3.093367e+01
4.323325e+02	-3.098474e+01
4.348297e+02	-3.103381e+01
4.373412e+02	-3.109008e+01
4.398673e+02	-3.113820e+01
4.424079e+02	-3.118211e+01
4.449633e+02	-3.124079e+01
4.475334e+02	-3.128962e+01
4.501183e+02	-3.134173e+01
4.527182e+02	-3.138777e+01
4.553330e+02	-3.144049e+01
4.579630e+02	-3.148819e+01
4.606082e+02	-3.154386e+01
4.632687e+02	-3.158873e+01
4.659445e+02	-3.164151e+01
4.686358e+02	-3.169064e+01
4.713426e+02	-3.174364e+01
4.740650e+02	-3.179017e+01
4.768032e+02	-3.184049e+01
4.795572e+02	-3.188868e+01
4.823271e+02	-3.194009e+01
4.851130e+02	-3.198609e+01
4.879150e+02	-3.204051e+01
4.907332e+02	-3.209167e+01
4.935676e+02	-3.214233e+01
4.964185e+02	-3.219262e+01
4.992858e+02	-3.224208e+01
5.021696e+02	-3.228660e+01
5.050701e+02	-3.233732e+01
5.079874e+02	-3.239351e+01
5.109215e+02	-3.244144e+01
5.138726e+02	-3.248995e+01
5.168407e+02	-3.254602e+01
5.198259e+02	-3.259103e+01
5.228284e+02	-3.264653e+01
5.258482e+02	-3.269592e+01
5.288855e+02	-3.274425e+01
5.319403e+02	-3.279605e+01
5.350128e+02	-3.284971e+01
5.381030e+02	-3.288457e+01
5.412111e+02	-3.294670e+01
5.443371e+02	-3.299492e+01
5.474812e+02	-3.304522e+01
5.506434e+02	-3.309551e+01
5.538239e+02	-3.314962e+01
5.570228e+02	-3.319542e+01
5.602401e+02	-3.324438e+01
5.634760e+02	-3.329470e+01
5.667306e+02	-3.334834e+01
5.700040e+02	-3.340091e+01
5.732964e+02	-3.344666e+01
5.766077e+02	-3.349789e+01
5.799382e+02	-3.354371e+01
5.832879e+02	-3.359752e+01
5.866569e+02	-3.365206e+01
5.900454e+02	-3.370050e+01
5.934535e+02	-3.374821e+01
5.968813e+02	-3.380322e+01
6.003288e+02	-3.385309e+01
6.037963e+02	-3.389938e+01
6.072838e+02	-3.394471e+01
6.107914e+02	-3.400428e+01
6.143194e+02	-3.404979e+01
6.178676e+02	-3.409351e+01
6.214364e+02	-3.415587e+01
6.250258e+02	-3.420261e+01
6.286359e+02	-3.425639e+01
6.322669e+02	-3.429601e+01
6.359189e+02	-3.434449e+01
6.395919e+02	-3.439854e+01
6.432862e+02	-3.445237e+01
6.470017e+02	-3.449790e+01
6.507388e+02	-3.455739e+01
6.544974e+02	-3.460050e+01
6.582778e+02	-3.465856e+01
6.620800e+02	-3.469696e+01
6.659041e+02	-3.475395e+01
6.697504e+02	-3.480445e+01
6.736188e+02	-3.485355e+01
6.775096e+02	-3.490145e+01
6.814229e+02	-3.494888e+01
6.853587e+02	-3.500746e+01
6.893173e+02	-3.505770e+01
6.932988e+02	-3.510874e+01
6.973033e+02	-3.515892e+01
7.013309e+02	-3.520281e+01
