Frequency(Hz)	Magnitude(dB)
1.000000e+01	-2.136916e+00
1.005776e+01	-2.156826e+00
1.011585e+01	-2.176233e+00
1.017428e+01	-2.196173e+00
1.023305e+01	-2.215992e+00
1.029215e+01	-2.236088e+00
1.035160e+01	-2.256207e+00
1.041139e+01	-2.276691e+00
1.047153e+01	-2.297011e+00
1.053201e+01	-2.317845e+00
1.059284e+01	-2.338380e+00
1.065403e+01	-2.359415e+00
1.071556e+01	-2.380610e+00
1.077746e+01	-2.401605e+00
1.083971e+01	-2.423008e+00
1.090232e+01	-2.444201e+00
1.096529e+01	-2.465875e+00
1.102862e+01	-2.487659e+00
1.109232e+01	-2.509611e+00
1.115639e+01	-2.531629e+00
1.122083e+01	-2.553907e+00
1.128564e+01	-2.576005e+00
1.135083e+01	-2.598187e+00
1.141639e+01	-2.621052e+00
1.148233e+01	-2.643863e+00
1.154865e+01	-2.666559e+00
1.161536e+01	-2.689784e+00
1.168245e+01	-2.713125e+00
1.174992e+01	-2.736119e+00
1.181779e+01	-2.759965e+00
1.188605e+01	-2.783300e+00
1.195470e+01	-2.806935e+00
1.202375e+01	-2.831009e+00
1.209320e+01	-2.854860e+00
1.216305e+01	-2.879197e+00
1.223330e+01	-2.903462e+00
1.230396e+01	-2.928028e+00
1.237503e+01	-2.952494e+00
1.244651e+01	-2.977366e+00
1.251840e+01	-3.002164e+00
1.259070e+01	-3.027397e+00
1.266343e+01	-3.052408e+00
1.273657e+01	-3.077813e+00
1.281014e+01	-3.103055e+00
1.288413e+01	-3.128719e+00
1.295855e+01	-3.154613e+00
1.303339e+01	-3.180527e+00
1.310867e+01	-3.206441e+00
1.318439e+01	-3.232717e+00
1.326054e+01	-3.259128e+00
1.333713e+01	-3.285832e+00
1.341417e+01	-3.312123e+00
1.349165e+01	-3.338835e+00
1.356958e+01	-3.365927e+00
1.364795e+01	-3.392765e+00
1.372678e+01	-3.420103e+00
1.380607e+01	-3.447377e+00
1.388581e+01	-3.474733e+00
1.396602e+01	-3.502579e+00
1.404668e+01	-3.530240e+00
1.412782e+01	-3.557873e+00
1.420942e+01	-3.586183e+00
1.429149e+01	-3.614281e+00
1.437404e+01	-3.642748e+00
1.445706e+01	-3.671130e+00
1.454057e+01	-3.699849e+00
1.462455e+01	-3.728552e+00
1.470902e+01	-3.757465e+00
1.479398e+01	-3.786444e+00
1.487943e+01	-3.815748e+00
1.496537e+01	-3.844979e+00
1.505181e+01	-3.874481e+00
1.513875e+01	-3.904183e+00
1.522619e+01	-3.933699e+00
1.531414e+01	-3.963860e+00
1.540259e+01	-3.993783e+00
1.549156e+01	-4.023804e+00
1.558103e+01	-4.054102e+00
1.567103e+01	-4.084551e+00
1.576155e+01	-4.115009e+00
1.585258e+01	-4.145784e+00
1.594415e+01	-4.176545e+00
1.603624e+01	-4.207594e+00
1.612886e+01	-4.238750e+00
1.622202e+01	-4.269956e+00
1.631572e+01	-4.301448e+00
1.640996e+01	-4.332649e+00
1.650474e+01	-4.364298e+00
1.660008e+01	-4.396056e+00
1.669596e+01	-4.428201e+00
1.679239e+01	-4.460048e+00
1.688938e+01	-4.492557e+00
1.698694e+01	-4.524636e+00
1.708505e+01	-4.556950e+00
1.718373e+01	-4.590010e+00
1.728299e+01	-4.622447e+00
1.738281e+01	-4.655329e+00
1.748322e+01	-4.688287e+00
1.758420e+01	-4.721160e+00
1.768576e+01	-4.754428e+00
1.778792e+01	-4.787886e+00
1.789066e+01	-4.821281e+00
1.799399e+01	-4.855144e+00
1.809793e+01	-4.888540e+00
1.820246e+01	-4.922509e+00
1.830760e+01	-4.956510e+00
1.841334e+01	-4.990508e+00
1.851969e+01	-5.024765e+00
1.862666e+01	-5.059265e+00
1.873425e+01	-5.093746e+00
1.884246e+01	-5.128322e+00
1.895129e+01	-5.163228e+00
1.906075e+01	-5.198015e+00
1.917085e+01	-5.232711e+00
1.928158e+01	-5.268013e+00
1.939295e+01	-5.303225e+00
1.950496e+01	-5.338690e+00
1.961762e+01	-5.373939e+00
1.973093e+01	-5.409430e+00
1.984490e+01	-5.445181e+00
1.995952e+01	-5.480965e+00
2.007480e+01	-5.517008e+00
2.019076e+01	-5.552982e+00
2.030738e+01	-5.589086e+00
2.042467e+01	-5.625399e+00
2.054264e+01	-5.661952e+00
2.066130e+01	-5.698032e+00
2.078064e+01	-5.734756e+00
2.090066e+01	-5.771855e+00
2.102139e+01	-5.808347e+00
2.114280e+01	-5.845470e+00
2.126492e+01	-5.882431e+00
2.138775e+01	-5.919765e+00
2.151128e+01	-5.957264e+00
2.163553e+01	-5.994194e+00
2.176050e+01	-6.032033e+00
2.188619e+01	-6.069404e+00
2.201260e+01	-6.106904e+00
2.213974e+01	-6.144728e+00
2.226762e+01	-6.182803e+00
2.239624e+01	-6.220632e+00
2.252560e+01	-6.258808e+00
2.265571e+01	-6.297291e+00
2.278656e+01	-6.335694e+00
2.291818e+01	-6.374033e+00
2.305055e+01	-6.412910e+00
2.318369e+01	-6.451151e+00
2.331760e+01	-6.490107e+00
2.345228e+01	-6.528652e+00
2.358774e+01	-6.567995e+00
2.372398e+01	-6.607133e+00
2.386101e+01	-6.646301e+00
2.399883e+01	-6.684942e+00
2.413745e+01	-6.724444e+00
2.427686e+01	-6.763918e+00
2.441709e+01	-6.803677e+00
2.455812e+01	-6.843521e+00
2.469997e+01	-6.882638e+00
2.484263e+01	-6.922673e+00
2.498612e+01	-6.962766e+00
2.513044e+01	-7.002973e+00
2.527559e+01	-7.042561e+00
2.542158e+01	-7.082843e+00
2.556842e+01	-7.123293e+00
2.571610e+01	-7.163378e+00
2.586463e+01	-7.204170e+00
2.601403e+01	-7.244619e+00
2.616428e+01	-7.285066e+00
2.631541e+01	-7.325779e+00
2.646740e+01	-7.367029e+00
2.662028e+01	-7.407485e+00
2.677404e+01	-7.448410e+00
2.692868e+01	-7.489843e+00
2.708422e+01	-7.530626e+00
2.724066e+01	-7.572327e+00
2.739800e+01	-7.613375e+00
2.755625e+01	-7.654733e+00
2.771541e+01	-7.696375e+00
2.787550e+01	-7.737557e+00
2.803650e+01	-7.779385e+00
2.819844e+01	-7.820947e+00
2.836131e+01	-7.862993e+00
2.852513e+01	-7.905094e+00
2.868989e+01	-7.946892e+00
2.885560e+01	-7.988926e+00
2.902227e+01	-8.030365e+00
2.918990e+01	-8.073274e+00
2.935850e+01	-8.115454e+00
2.952807e+01	-8.157676e+00
2.969863e+01	-8.200189e+00
2.987016e+01	-8.242745e+00
3.004269e+01	-8.285432e+00
3.021622e+01	-8.327938e+00
3.039075e+01	-8.371047e+00
3.056628e+01	-8.413678e+00
3.074283e+01	-8.456112e+00
3.092040e+01	-8.499334e+00
3.109900e+01	-8.542247e+00
3.127862e+01	-8.585205e+00
3.145929e+01	-8.628432e+00
3.164099e+01	-8.671386e+00
3.182375e+01	-8.714896e+00
3.200756e+01	-8.758123e+00
3.219244e+01	-8.801510e+00
3.237838e+01	-8.845232e+00
3.256540e+01	-8.889015e+00
3.275349e+01	-8.932608e+00
3.294268e+01	-8.975997e+00
3.313295e+01	-9.019550e+00
3.332433e+01	-9.063645e+00
3.351681e+01	-9.107448e+00
3.371040e+01	-9.150603e+00
3.390511e+01	-9.194641e+00
3.410094e+01	-9.238759e+00
3.429791e+01	-9.283028e+00
3.449601e+01	-9.327602e+00
3.469526e+01	-9.371372e+00
3.489566e+01	-9.415706e+00
3.509721e+01	-9.460377e+00
3.529993e+01	-9.504588e+00
3.550382e+01	-9.548868e+00
3.570889e+01	-9.593255e+00
3.591515e+01	-9.638534e+00
3.612259e+01	-9.683233e+00
3.633123e+01	-9.727252e+00
3.654108e+01	-9.772291e+00
3.675214e+01	-9.816727e+00
3.696442e+01	-9.861395e+00
3.717792e+01	-9.906894e+00
3.739266e+01	-9.951283e+00
3.760864e+01	-9.996163e+00
3.782587e+01	-1.004179e+01
3.804435e+01	-1.008654e+01
3.826409e+01	-1.013183e+01
3.848510e+01	-1.017731e+01
3.870739e+01	-1.022189e+01
3.893096e+01	-1.026780e+01
3.915583e+01	-1.031309e+01
3.938199e+01	-1.035783e+01
3.960946e+01	-1.040421e+01
3.983824e+01	-1.044917e+01
4.006834e+01	-1.049487e+01
4.029978e+01	-1.054040e+01
4.053255e+01	-1.058540e+01
4.076666e+01	-1.063203e+01
4.100213e+01	-1.067770e+01
4.123896e+01	-1.072301e+01
4.147715e+01	-1.076908e+01
4.171672e+01	-1.081455e+01
4.195767e+01	-1.086032e+01
4.220002e+01	-1.090713e+01
4.244377e+01	-1.095283e+01
4.268892e+01	-1.099897e+01
4.293549e+01	-1.104482e+01
4.318348e+01	-1.109080e+01
4.343291e+01	-1.113706e+01
4.368377e+01	-1.118329e+01
4.393609e+01	-1.122996e+01
4.418986e+01	-1.127610e+01
4.444510e+01	-1.132238e+01
4.470182e+01	-1.136867e+01
4.496001e+01	-1.141452e+01
4.521970e+01	-1.146157e+01
4.548089e+01	-1.150861e+01
4.574358e+01	-1.155368e+01
4.600779e+01	-1.160091e+01
4.627353e+01	-1.164739e+01
4.654081e+01	-1.169422e+01
4.680963e+01	-1.174047e+01
4.708000e+01	-1.178782e+01
4.735193e+01	-1.183406e+01
4.762543e+01	-1.188082e+01
4.790051e+01	-1.192799e+01
4.817719e+01	-1.197416e+01
4.845545e+01	-1.202131e+01
4.873533e+01	-1.206830e+01
4.901682e+01	-1.211476e+01
4.929994e+01	-1.216189e+01
4.958470e+01	-1.220870e+01
4.987110e+01	-1.225600e+01
5.015915e+01	-1.230351e+01
5.044887e+01	-1.235029e+01
5.074026e+01	-1.239766e+01
5.103333e+01	-1.244474e+01
5.132810e+01	-1.249199e+01
5.162457e+01	-1.253892e+01
5.192275e+01	-1.258637e+01
5.222265e+01	-1.263312e+01
5.252429e+01	-1.268080e+01
5.282767e+01	-1.272806e+01
5.313280e+01	-1.277581e+01
5.343969e+01	-1.282318e+01
5.374836e+01	-1.287058e+01
5.405880e+01	-1.291747e+01
5.437105e+01	-1.296614e+01
5.468509e+01	-1.301297e+01
5.500095e+01	-1.306000e+01
5.531863e+01	-1.310835e+01
5.563815e+01	-1.315522e+01
5.595951e+01	-1.320334e+01
5.628273e+01	-1.325126e+01
5.660782e+01	-1.329866e+01
5.693479e+01	-1.334755e+01
5.726364e+01	-1.339502e+01
5.759439e+01	-1.344138e+01
5.792705e+01	-1.348929e+01
5.826164e+01	-1.353698e+01
5.859815e+01	-1.358415e+01
5.893662e+01	-1.363325e+01
5.927703e+01	-1.368086e+01
5.961941e+01	-1.372881e+01
5.996377e+01	-1.377665e+01
6.031012e+01	-1.382479e+01
6.065847e+01	-1.387296e+01
6.100883e+01	-1.392132e+01
6.136121e+01	-1.396859e+01
6.171563e+01	-1.401614e+01
6.207210e+01	-1.406415e+01
6.243063e+01	-1.411224e+01
6.279122e+01	-1.416066e+01
6.315390e+01	-1.420927e+01
6.351868e+01	-1.425715e+01
6.388556e+01	-1.430466e+01
6.425456e+01	-1.435331e+01
6.462569e+01	-1.440167e+01
6.499897e+01	-1.445009e+01
6.537440e+01	-1.449833e+01
6.575200e+01	-1.454640e+01
6.613178e+01	-1.459507e+01
6.651375e+01	-1.464285e+01
6.689793e+01	-1.469097e+01
6.728433e+01	-1.473942e+01
6.767297e+01	-1.478762e+01
6.806384e+01	-1.483635e+01
6.845698e+01	-1.488401e+01
6.885238e+01	-1.493368e+01
6.925007e+01	-1.498216e+01
6.965005e+01	-1.502943e+01
7.005235e+01	-1.507866e+01
7.045697e+01	-1.512713e+01
7.086393e+01	-1.517549e+01
7.127323e+01	-1.522481e+01
7.168490e+01	-1.527251e+01
7.209895e+01	-1.532093e+01
7.251539e+01	-1.536882e+01
7.293424e+01	-1.541791e+01
7.335551e+01	-1.546643e+01
7.377920e+01	-1.551554e+01
7.420535e+01	-1.556391e+01
7.463396e+01	-1.561196e+01
7.506504e+01	-1.566072e+01
7.549861e+01	-1.570903e+01
7.593469e+01	-1.575912e+01
7.637328e+01	-1.580736e+01
7.681441e+01	-1.585609e+01
7.725809e+01	-1.590388e+01
7.770433e+01	-1.595265e+01
7.815315e+01	-1.600237e+01
7.860456e+01	-1.605206e+01
7.905857e+01	-1.609979e+01
7.951521e+01	-1.614884e+01
7.997449e+01	-1.619707e+01
8.043642e+01	-1.624624e+01
8.090102e+01	-1.629459e+01
8.136830e+01	-1.634337e+01
8.183828e+01	-1.639359e+01
8.231097e+01	-1.644287e+01
8.278640e+01	-1.649101e+01
8.326457e+01	-1.654039e+01
8.374550e+01	-1.658945e+01
8.422921e+01	-1.663800e+01
8.471572e+01	-1.668567e+01
8.520503e+01	-1.673580e+01
8.569717e+01	-1.678497e+01
8.619215e+01	-1.683367e+01
8.669000e+01	-1.688171e+01
8.719071e+01	-1.693245e+01
8.769432e+01	-1.698028e+01
8.820084e+01	-1.702895e+01
8.871029e+01	-1.707995e+01
8.922267e+01	-1.712787e+01
8.973802e+01	-1.717798e+01
9.025634e+01	-1.722611e+01
9.077766e+01	-1.727377e+01
9.130199e+01	-1.732408e+01
9.182935e+01	-1.737304e+01
9.235975e+01	-1.742277e+01
9.289321e+01	-1.747199e+01
9.342976e+01	-1.752087e+01
9.396941e+01	-1.756900e+01
9.451217e+01	-1.762013e+01
9.505807e+01	-1.766729e+01
9.560712e+01	-1.771806e+01
9.615934e+01	-1.776673e+01
9.671476e+01	-1.781554e+01
9.727338e+01	-1.786373e+01
9.783522e+01	-1.791373e+01
9.840032e+01	-1.796395e+01
9.896867e+01	-1.801269e+01
9.954031e+01	-1.806141e+01
1.001153e+02	-1.811037e+01
1.006935e+02	-1.816016e+01
1.012751e+02	-1.821023e+01
1.018601e+02	-1.825795e+01
1.024484e+02	-1.830761e+01
1.030402e+02	-1.835758e+01
1.036353e+02	-1.840632e+01
1.042339e+02	-1.845646e+01
1.048360e+02	-1.850554e+01
1.054415e+02	-1.855536e+01
1.060505e+02	-1.860238e+01
1.066631e+02	-1.865423e+01
1.072791e+02	-1.870369e+01
1.078988e+02	-1.875199e+01
1.085220e+02	-1.880098e+01
1.091488e+02	-1.884932e+01
1.097793e+02	-1.890097e+01
1.104133e+02	-1.894873e+01
1.110511e+02	-1.899840e+01
1.116925e+02	-1.904837e+01
1.123376e+02	-1.909856e+01
1.129865e+02	-1.914630e+01
1.136391e+02	-1.919664e+01
1.142955e+02	-1.924562e+01
1.149556e+02	-1.929467e+01
1.156196e+02	-1.934555e+01
1.162874e+02	-1.939552e+01
1.169591e+02	-1.944423e+01
1.176347e+02	-1.949297e+01
1.183141e+02	-1.954290e+01
1.189975e+02	-1.959219e+01
1.196848e+02	-1.964172e+01
1.203761e+02	-1.969000e+01
1.210714e+02	-1.974163e+01
1.217707e+02	-1.978974e+01
1.224740e+02	-1.983971e+01
1.231814e+02	-1.988855e+01
1.238929e+02	-1.993917e+01
1.246085e+02	-1.998771e+01
1.253283e+02	-2.003809e+01
1.260522e+02	-2.008722e+01
1.267802e+02	-2.013585e+01
1.275125e+02	-2.018861e+01
1.282490e+02	-2.023605e+01
1.289898e+02	-2.028654e+01
1.297348e+02	-2.033567e+01
1.304842e+02	-2.038347e+01
1.312378e+02	-2.043377e+01
1.319959e+02	-2.048228e+01
1.327583e+02	-2.053504e+01
1.335251e+02	-2.058328e+01
1.342963e+02	-2.063315e+01
1.350720e+02	-2.068242e+01
1.358522e+02	-2.073336e+01
1.366368e+02	-2.078360e+01
1.374260e+02	-2.083131e+01
1.382198e+02	-2.088091e+01
1.390182e+02	-2.093117e+01
1.398211e+02	-2.097901e+01
1.406287e+02	-2.102998e+01
1.414410e+02	-2.107988e+01
1.422579e+02	-2.112969e+01
1.430796e+02	-2.117809e+01
1.439060e+02	-2.122861e+01
1.447372e+02	-2.127694e+01
1.455732e+02	-2.132769e+01
1.464141e+02	-2.137843e+01
1.472597e+02	-2.142711e+01
1.481103e+02	-2.147627e+01
1.489658e+02	-2.152656e+01
1.498262e+02	-2.157758e+01
1.506916e+02	-2.162674e+01
1.515620e+02	-2.167472e+01
1.524374e+02	-2.172582e+01
1.533179e+02	-2.177492e+01
1.542034e+02	-2.182586e+01
1.550941e+02	-2.187481e+01
1.559899e+02	-2.192413e+01
1.568909e+02	-2.197455e+01
1.577971e+02	-2.202244e+01
1.587085e+02	-2.207207e+01
1.596252e+02	-2.212119e+01
1.605472e+02	-2.217232e+01
1.614745e+02	-2.222222e+01
1.624072e+02	-2.227211e+01
1.633453e+02	-2.232420e+01
1.642887e+02	-2.237301e+01
1.652377e+02	-2.242220e+01
1.661921e+02	-2.247148e+01
1.671520e+02	-2.252058e+01
1.681175e+02	-2.257140e+01
1.690885e+02	-2.262071e+01
1.700651e+02	-2.267258e+01
1.710474e+02	-2.271981e+01
1.720354e+02	-2.276989e+01
1.730291e+02	-2.282030e+01
1.740285e+02	-2.286998e+01
1.750337e+02	-2.291940e+01
1.760446e+02	-2.296848e+01
1.770615e+02	-2.301999e+01
1.780842e+02	-2.306823e+01
1.791128e+02	-2.311861e+01
1.801473e+02	-2.316695e+01
1.811878e+02	-2.321926e+01
1.822344e+02	-2.326975e+01
1.832870e+02	-2.331930e+01
1.843456e+02	-2.336827e+01
1.854104e+02	-2.341640e+01
1.864813e+02	-2.346570e+01
1.875584e+02	-2.351834e+01
1.886418e+02	-2.356664e+01
1.897313e+02	-2.361570e+01
1.908272e+02	-2.366598e+01
1.919294e+02	-2.371691e+01
1.930380e+02	-2.376551e+01
1.941530e+02	-2.381555e+01
1.952744e+02	-2.386503e+01
1.964023e+02	-2.391669e+01
1.975367e+02	-2.396650e+01
1.986777e+02	-2.401731e+01
1.998252e+02	-2.406725e+01
2.009794e+02	-2.411438e+01
2.021403e+02	-2.416376e+01
2.033078e+02	-2.421570e+01
2.044821e+02	-2.426655e+01
2.056632e+02	-2.431395e+01
2.068511e+02	-2.436506e+01
2.080459e+02	-2.441279e+01
2.092475e+02	-2.446633e+01
2.104561e+02	-2.451466e+01
2.116717e+02	-2.456405e+01
2.128943e+02	-2.461463e+01
2.141240e+02	-2.466446e+01
2.153608e+02	-2.471392e+01
2.166047e+02	-2.476351e+01
2.178558e+02	-2.481249e+01
2.191141e+02	-2.486034e+01
2.203797e+02	-2.491425e+01
2.216526e+02	-2.496607e+01
2.229329e+02	-2.501502e+01
2.242205e+02	-2.506387e+01
2.255156e+02	-2.511403e+01
2.268182e+02	-2.516247e+01
2.281283e+02	-2.521061e+01
2.294459e+02	-2.526204e+01
2.307712e+02	-2.531443e+01
2.321041e+02	-2.536521e+01
2.334447e+02	-2.541333e+01
2.347931e+02	-2.546172e+01
2.361493e+02	-2.551375e+01
2.375133e+02	-2.556176e+01
2.388851e+02	-2.561345e+01
2.402649e+02	-2.566395e+01
2.416527e+02	-2.571219e+01
2.430484e+02	-2.576126e+01
2.444523e+02	-2.581237e+01
2.458642e+02	-2.586108e+01
2.472843e+02	-2.590955e+01
2.487126e+02	-2.596299e+01
2.501492e+02	-2.601120e+01
2.515940e+02	-2.605706e+01
2.530472e+02	-2.611214e+01
2.545088e+02	-2.616118e+01
2.559789e+02	-2.621304e+01
2.574574e+02	-2.626257e+01
2.589444e+02	-2.631412e+01
2.604401e+02	-2.636100e+01
2.619444e+02	-2.641031e+01
2.634574e+02	-2.646514e+01
2.649791e+02	-2.651319e+01
2.665096e+02	-2.656312e+01
2.680489e+02	-2.661160e+01
2.695972e+02	-2.666374e+01
2.711544e+02	-2.670691e+01
2.727205e+02	-2.676139e+01
2.742958e+02	-2.681144e+01
2.758801e+02	-2.686062e+01
2.774736e+02	-2.691124e+01
2.790762e+02	-2.695665e+01
2.806882e+02	-2.701151e+01
2.823094e+02	-2.706310e+01
2.839400e+02	-2.710965e+01
2.855800e+02	-2.716222e+01
2.872295e+02	-2.720934e+01
2.888886e+02	-2.726077e+01
2.905572e+02	-2.730894e+01
2.922354e+02	-2.736207e+01
2.939234e+02	-2.741198e+01
2.956211e+02	-2.746014e+01
2.973286e+02	-2.751032e+01
2.990459e+02	-2.756096e+01
3.007732e+02	-2.761098e+01
3.025104e+02	-2.765995e+01
3.042577e+02	-2.771516e+01
3.060151e+02	-2.776064e+01
3.077826e+02	-2.781287e+01
3.095604e+02	-2.786445e+01
3.113484e+02	-2.791015e+01
3.131467e+02	-2.796272e+01
3.149554e+02	-2.800822e+01
3.167746e+02	-2.806419e+01
3.186043e+02	-2.811337e+01
3.204445e+02	-2.816018e+01
3.222954e+02	-2.821133e+01
3.241570e+02	-2.826356e+01
3.260293e+02	-2.831241e+01
3.279124e+02	-2.836172e+01
3.298064e+02	-2.841799e+01
3.317114e+02	-2.845951e+01
3.336273e+02	-2.851368e+01
3.355544e+02	-2.856007e+01
3.374925e+02	-2.860938e+01
3.394418e+02	-2.866291e+01
3.414024e+02	-2.871305e+01
3.433744e+02	-2.876337e+01
3.453577e+02	-2.881327e+01
3.473525e+02	-2.886119e+01
3.493588e+02	-2.891275e+01
3.513766e+02	-2.896287e+01
3.534062e+02	-2.901068e+01
3.554474e+02	-2.906337e+01
3.575005e+02	-2.911355e+01
3.595654e+02	-2.916183e+01
3.616422e+02	-2.921601e+01
3.637311e+02	-2.926601e+01
3.658320e+02	-2.931361e+01
3.679450e+02	-2.935894e+01
3.700702e+02	-2.941393e+01
3.722077e+02	-2.946383e+01
3.743576e+02	-2.951716e+01
3.765199e+02	-2.956111e+01
3.786946e+02	-2.961312e+01
3.808820e+02	-2.966005e+01
3.830819e+02	-2.971615e+01
3.852946e+02	-2.976184e+01
3.875200e+02	-2.980985e+01
3.897583e+02	-2.986307e+01
3.920096e+02	-2.991671e+01
3.942738e+02	-2.996489e+01
3.965511e+02	-3.001230e+01
3.988416e+02	-3.006608e+01
4.011452e+02	-3.011206e+01
4.034622e+02	-3.015994e+01
4.057926e+02	-3.021256e+01
4.081365e+02	-3.026935e+01
4.104938e+02	-3.031979e+01
4.128648e+02	-3.036488e+01
4.152495e+02	-3.041917e+01
4.176480e+02	-3.046389e+01
4.200603e+02	-3.051310e+01
4.224866e+02	-3.056480e+01
4.249268e+02	-3.060952e+01
4.273812e+02	-3.066341e+01
4.298497e+02	-3.071581e+01
4.323325e+02	-3.076684e+01
4.348297e+02	-3.081247e+01
4.373412e+02	-3.086915e+01
4.398673e+02	-3.091549e+01
4.424079e+02	-3.096779e+01
4.449633e+02	-3.101019e+01
4.475334e+02	-3.106441e+01
4.501183e+02	-3.111698e+01
4.527182e+02	-3.117210e+01
4.553330e+02	-3.121840e+01
4.579630e+02	-3.126775e+01
4.606082e+02	-3.132053e+01
4.632687e+02	-3.136612e+01
4.659445e+02	-3.141805e+01
4.686358e+02	-3.146756e+01
4.713426e+02	-3.151762e+01
4.740650e+02	-3.156221e+01
4.768032e+02	-3.161878e+01
4.795572e+02	-3.166448e+01
4.823271e+02	-3.171706e+01
4.851130e+02	-3.176847e+01
4.879150e+02	-3.182203e+01
4.907332e+02	-3.186779e+01
4.935676e+02	-3.192401e+01
4.964185e+02	-3.196631e+01
4.992858e+02	-3.201581e+01
5.021696e+02	-3.207429e+01
5.050701e+02	-3.212243e+01
5.079874e+02	-3.217639e+01
5.109215e+02	-3.221638e+01
5.138726e+02	-3.226783e+01
5.168407e+02	-3.232107e+01
5.198259e+02	-3.237260e+01
5.228284e+02	-3.242477e+01
5.258482e+02	-3.247306e+01
5.288855e+02	-3.252402e+01
5.319403e+02	-3.257259e+01
5.350128e+02	-3.262174e+01
5.381030e+02	-3.266820e+01
5.412111e+02	-3.272565e+01
5.443371e+02	-3.277465e+01
5.474812e+02	-3.282091e+01
5.506434e+02	-3.287127e+01
5.538239e+02	-3.292317e+01
5.570228e+02	-3.297393e+01
5.602401e+02	-3.302824e+01
5.634760e+02	-3.307414e+01
5.667306e+02	-3.312351e+01
5.700040e+02	-3.316748e+01
5.732964e+02	-3.322679e+01
5.766077e+02	-3.327933e+01
5.799382e+02	-3.332520e+01
5.832879e+02	-3.337372e+01
5.866569e+02	-3.342611e+01
5.900454e+02	-3.347828e+01
5.934535e+02	-3.352733e+01
5.968813e+02	-3.357643e+01
6.003288e+02	-3.363142e+01
6.037963e+02	-3.367664e+01
6.072838e+02	-3.372083e+01
6.107914e+02	-3.378495e+01
6.143194e+02	-3.382304e+01
6.178676e+02	-3.387047e+01
6.214364e+02	-3.392744e+01
6.250258e+02	-3.397760e+01
6.286359e+02	-3.403540e+01
6.322669e+02	-3.407922e+01
6.359189e+02	-3.413695e+01
6.395919e+02	-3.418790e+01
6.432862e+02	-3.423320e+01
6.470017e+02	-3.428771e+01
6.507388e+02	-3.433386e+01
6.544974e+02	-3.437606e+01
6.582778e+02	-3.443410e+01
6.620800e+02	-3.448360e+01
6.659041e+02	-3.453039e+01
6.697504e+02	-3.458578e+01
6.736188e+02	-3.462353e+01
6.775096e+02	-3.468998e+01
6.814229e+02	-3.474341e+01
6.853587e+02	-3.478995e+01
6.893173e+02	-3.484448e+01
6.932988e+02	-3.488815e+01
6.973033e+02	-3.493777e+01
7.013309e+02	-3.497881e+01
