Frequency(Hz)	Magnitude(dB)
1.000000e+01	-1.719936e-05
1.005776e+01	-1.739862e-05
1.011585e+01	-1.760018e-05
1.017428e+01	-1.780409e-05
1.023305e+01	-1.801035e-05
1.029215e+01	-1.821901e-05
1.035160e+01	-1.843008e-05
1.041139e+01	-1.864360e-05
1.047153e+01	-1.885959e-05
1.053201e+01	-1.907808e-05
1.059284e+01	-1.929910e-05
1.065403e+01	-1.952269e-05
1.071556e+01	-1.974886e-05
1.077746e+01	-1.997766e-05
1.083971e+01	-2.020911e-05
1.090232e+01	-2.044323e-05
1.096529e+01	-2.068007e-05
1.102862e+01	-2.091966e-05
1.109232e+01	-2.116202e-05
1.115639e+01	-2.140718e-05
1.122083e+01	-2.165519e-05
1.128564e+01	-2.190607e-05
1.135083e+01	-2.215986e-05
1.141639e+01	-2.241659e-05
1.148233e+01	-2.267629e-05
1.154865e+01	-2.293900e-05
1.161536e+01	-2.320475e-05
1.168245e+01	-2.347359e-05
1.174992e+01	-2.374553e-05
1.181779e+01	-2.402063e-05
1.188605e+01	-2.429892e-05
1.195470e+01	-2.458043e-05
1.202375e+01	-2.486520e-05
1.209320e+01	-2.515327e-05
1.216305e+01	-2.544467e-05
1.223330e+01	-2.573946e-05
1.230396e+01	-2.603765e-05
1.237503e+01	-2.633931e-05
1.244651e+01	-2.664445e-05
1.251840e+01	-2.695314e-05
1.259070e+01	-2.726539e-05
1.266343e+01	-2.758127e-05
1.273657e+01	-2.790081e-05
1.281014e+01	-2.822404e-05
1.288413e+01	-2.855103e-05
1.295855e+01	-2.888180e-05
1.303339e+01	-2.921640e-05
1.310867e+01	-2.955488e-05
1.318439e+01	-2.989728e-05
1.326054e+01	-3.024365e-05
1.333713e+01	-3.059403e-05
1.341417e+01	-3.094847e-05
1.349165e+01	-3.130701e-05
1.356958e+01	-3.166971e-05
1.364795e+01	-3.203661e-05
1.372678e+01	-3.240776e-05
1.380607e+01	-3.278321e-05
1.388581e+01	-3.316302e-05
1.396602e+01	-3.354722e-05
1.404668e+01	-3.393587e-05
1.412782e+01	-3.432902e-05
1.420942e+01	-3.472673e-05
1.429149e+01	-3.512905e-05
1.437404e+01	-3.553603e-05
1.445706e+01	-3.594772e-05
1.454057e+01	-3.636419e-05
1.462455e+01	-3.678547e-05
1.470902e+01	-3.721164e-05
1.479398e+01	-3.764275e-05
1.487943e+01	-3.807885e-05
1.496537e+01	-3.852000e-05
1.505181e+01	-3.896626e-05
1.513875e+01	-3.941769e-05
1.522619e+01	-3.987436e-05
1.531414e+01	-4.033631e-05
1.540259e+01	-4.080362e-05
1.549156e+01	-4.127634e-05
1.558103e+01	-4.175453e-05
1.567103e+01	-4.223827e-05
1.576155e+01	-4.272761e-05
1.585258e+01	-4.322261e-05
1.594415e+01	-4.372336e-05
1.603624e+01	-4.422990e-05
1.612886e+01	-4.474232e-05
1.622202e+01	-4.526067e-05
1.631572e+01	-4.578502e-05
1.640996e+01	-4.631545e-05
1.650474e+01	-4.685202e-05
1.660008e+01	-4.739482e-05
1.669596e+01	-4.794389e-05
1.679239e+01	-4.849933e-05
1.688938e+01	-4.906121e-05
1.698694e+01	-4.962959e-05
1.708505e+01	-5.020456e-05
1.718373e+01	-5.078619e-05
1.728299e+01	-5.137456e-05
1.738281e+01	-5.196975e-05
1.748322e+01	-5.257183e-05
1.758420e+01	-5.318088e-05
1.768576e+01	-5.379700e-05
1.778792e+01	-5.442025e-05
1.789066e+01	-5.505072e-05
1.799399e+01	-5.568849e-05
1.809793e+01	-5.633365e-05
1.820246e+01	-5.698629e-05
1.830760e+01	-5.764649e-05
1.841334e+01	-5.831433e-05
1.851969e+01	-5.898992e-05
1.862666e+01	-5.967333e-05
1.873425e+01	-6.036465e-05
1.884246e+01	-6.106399e-05
1.895129e+01	-6.177143e-05
1.906075e+01	-6.248706e-05
1.917085e+01	-6.321099e-05
1.928158e+01	-6.394330e-05
1.939295e+01	-6.468409e-05
1.950496e+01	-6.543347e-05
1.961762e+01	-6.619153e-05
1.973093e+01	-6.695837e-05
1.984490e+01	-6.773410e-05
1.995952e+01	-6.851881e-05
2.007480e+01	-6.931261e-05
2.019076e+01	-7.011561e-05
2.030738e+01	-7.092792e-05
2.042467e+01	-7.174963e-05
2.054264e+01	-7.258086e-05
2.066130e+01	-7.342172e-05
2.078064e+01	-7.427233e-05
2.090066e+01	-7.513279e-05
2.102139e+01	-7.600321e-05
2.114280e+01	-7.688372e-05
2.126492e+01	-7.777443e-05
2.138775e+01	-7.867546e-05
2.151128e+01	-7.958693e-05
2.163553e+01	-8.050896e-05
2.176050e+01	-8.144167e-05
2.188619e+01	-8.238519e-05
2.201260e+01	-8.333963e-05
2.213974e+01	-8.430514e-05
2.226762e+01	-8.528183e-05
2.239624e+01	-8.626983e-05
2.252560e+01	-8.726928e-05
2.265571e+01	-8.828031e-05
2.278656e+01	-8.930305e-05
2.291818e+01	-9.033764e-05
2.305055e+01	-9.138422e-05
2.318369e+01	-9.244292e-05
2.331760e+01	-9.351388e-05
2.345228e+01	-9.459726e-05
2.358774e+01	-9.569318e-05
2.372398e+01	-9.680180e-05
2.386101e+01	-9.792326e-05
2.399883e+01	-9.905772e-05
2.413745e+01	-1.002053e-04
2.427686e+01	-1.013662e-04
2.441709e+01	-1.025406e-04
2.455812e+01	-1.037285e-04
2.469997e+01	-1.049302e-04
2.484263e+01	-1.061458e-04
2.498612e+01	-1.073756e-04
2.513044e+01	-1.086195e-04
2.527559e+01	-1.098779e-04
2.542158e+01	-1.111508e-04
2.556842e+01	-1.124385e-04
2.571610e+01	-1.137411e-04
2.586463e+01	-1.150589e-04
2.601403e+01	-1.163918e-04
2.616428e+01	-1.177402e-04
2.631541e+01	-1.191043e-04
2.646740e+01	-1.204841e-04
2.662028e+01	-1.218799e-04
2.677404e+01	-1.232919e-04
2.692868e+01	-1.247203e-04
2.708422e+01	-1.261652e-04
2.724066e+01	-1.276268e-04
2.739800e+01	-1.291054e-04
2.755625e+01	-1.306011e-04
2.771541e+01	-1.321141e-04
2.787550e+01	-1.336447e-04
2.803650e+01	-1.351929e-04
2.819844e+01	-1.367592e-04
2.836131e+01	-1.383435e-04
2.852513e+01	-1.399463e-04
2.868989e+01	-1.415676e-04
2.885560e+01	-1.432076e-04
2.902227e+01	-1.448667e-04
2.918990e+01	-1.465450e-04
2.935850e+01	-1.482427e-04
2.952807e+01	-1.499601e-04
2.969863e+01	-1.516974e-04
2.987016e+01	-1.534549e-04
3.004269e+01	-1.552326e-04
3.021622e+01	-1.570310e-04
3.039075e+01	-1.588502e-04
3.056628e+01	-1.606905e-04
3.074283e+01	-1.625521e-04
3.092040e+01	-1.644353e-04
3.109900e+01	-1.663403e-04
3.127862e+01	-1.682674e-04
3.145929e+01	-1.702168e-04
3.164099e+01	-1.721887e-04
3.182375e+01	-1.741835e-04
3.200756e+01	-1.762015e-04
3.219244e+01	-1.782428e-04
3.237838e+01	-1.803077e-04
3.256540e+01	-1.823966e-04
3.275349e+01	-1.845097e-04
3.294268e+01	-1.866472e-04
3.313295e+01	-1.888095e-04
3.332433e+01	-1.909969e-04
3.351681e+01	-1.932096e-04
3.371040e+01	-1.954479e-04
3.390511e+01	-1.977122e-04
3.410094e+01	-2.000027e-04
3.429791e+01	-2.023197e-04
3.449601e+01	-2.046636e-04
3.469526e+01	-2.070346e-04
3.489566e+01	-2.094331e-04
3.509721e+01	-2.118594e-04
3.529993e+01	-2.143138e-04
3.550382e+01	-2.167966e-04
3.570889e+01	-2.193082e-04
3.591515e+01	-2.218489e-04
3.612259e+01	-2.244190e-04
3.633123e+01	-2.270189e-04
3.654108e+01	-2.296489e-04
3.675214e+01	-2.323094e-04
3.696442e+01	-2.350007e-04
3.717792e+01	-2.377231e-04
3.739266e+01	-2.404771e-04
3.760864e+01	-2.432631e-04
3.782587e+01	-2.460812e-04
3.804435e+01	-2.489321e-04
3.826409e+01	-2.518160e-04
3.848510e+01	-2.547332e-04
3.870739e+01	-2.576843e-04
3.893096e+01	-2.606695e-04
3.915583e+01	-2.636894e-04
3.938199e+01	-2.667442e-04
3.960946e+01	-2.698344e-04
3.983824e+01	-2.729604e-04
4.006834e+01	-2.761226e-04
4.029978e+01	-2.793215e-04
4.053255e+01	-2.825574e-04
4.076666e+01	-2.858308e-04
4.100213e+01	-2.891421e-04
4.123896e+01	-2.924918e-04
4.147715e+01	-2.958803e-04
4.171672e+01	-2.993080e-04
4.195767e+01	-3.027755e-04
4.220002e+01	-3.062831e-04
4.244377e+01	-3.098313e-04
4.268892e+01	-3.134207e-04
4.293549e+01	-3.170516e-04
4.318348e+01	-3.207246e-04
4.343291e+01	-3.244402e-04
4.368377e+01	-3.281988e-04
4.393609e+01	-3.320009e-04
4.418986e+01	-3.358471e-04
4.444510e+01	-3.397378e-04
4.470182e+01	-3.436736e-04
4.496001e+01	-3.476550e-04
4.521970e+01	-3.516825e-04
4.548089e+01	-3.557567e-04
4.574358e+01	-3.598780e-04
4.600779e+01	-3.640471e-04
4.627353e+01	-3.682646e-04
4.654081e+01	-3.725308e-04
4.680963e+01	-3.768465e-04
4.708000e+01	-3.812122e-04
4.735193e+01	-3.856284e-04
4.762543e+01	-3.900958e-04
4.790051e+01	-3.946150e-04
4.817719e+01	-3.991865e-04
4.845545e+01	-4.038110e-04
4.873533e+01	-4.084890e-04
4.901682e+01	-4.132213e-04
4.929994e+01	-4.180083e-04
4.958470e+01	-4.228508e-04
4.987110e+01	-4.277494e-04
5.015915e+01	-4.327048e-04
5.044887e+01	-4.377175e-04
5.074026e+01	-4.427884e-04
5.103333e+01	-4.479179e-04
5.132810e+01	-4.531069e-04
5.162457e+01	-4.583560e-04
5.192275e+01	-4.636659e-04
5.222265e+01	-4.690373e-04
5.252429e+01	-4.744709e-04
5.282767e+01	-4.799675e-04
5.313280e+01	-4.855277e-04
5.343969e+01	-4.911524e-04
5.374836e+01	-4.968422e-04
5.405880e+01	-5.025979e-04
5.437105e+01	-5.084203e-04
5.468509e+01	-5.143102e-04
5.500095e+01	-5.202682e-04
5.531863e+01	-5.262953e-04
5.563815e+01	-5.323922e-04
5.595951e+01	-5.385598e-04
5.628273e+01	-5.447987e-04
5.660782e+01	-5.511100e-04
5.693479e+01	-5.574943e-04
5.726364e+01	-5.639526e-04
5.759439e+01	-5.704857e-04
5.792705e+01	-5.770945e-04
5.826164e+01	-5.837799e-04
5.859815e+01	-5.905427e-04
5.893662e+01	-5.973838e-04
5.927703e+01	-6.043042e-04
5.961941e+01	-6.113047e-04
5.996377e+01	-6.183864e-04
6.031012e+01	-6.255500e-04
6.065847e+01	-6.327967e-04
6.100883e+01	-6.401272e-04
6.136121e+01	-6.475427e-04
6.171563e+01	-6.550441e-04
6.207210e+01	-6.626324e-04
6.243063e+01	-6.703086e-04
6.279122e+01	-6.780737e-04
6.315390e+01	-6.859288e-04
6.351868e+01	-6.938748e-04
6.388556e+01	-7.019129e-04
6.425456e+01	-7.100441e-04
6.462569e+01	-7.182694e-04
6.499897e+01	-7.265901e-04
6.537440e+01	-7.350071e-04
6.575200e+01	-7.435217e-04
6.613178e+01	-7.521348e-04
6.651375e+01	-7.608477e-04
6.689793e+01	-7.696616e-04
6.728433e+01	-7.785775e-04
6.767297e+01	-7.875967e-04
6.806384e+01	-7.967204e-04
6.845698e+01	-8.059498e-04
6.885238e+01	-8.152861e-04
6.925007e+01	-8.247305e-04
6.965005e+01	-8.342843e-04
7.005235e+01	-8.439488e-04
7.045697e+01	-8.537252e-04
7.086393e+01	-8.636148e-04
7.127323e+01	-8.736190e-04
7.168490e+01	-8.837391e-04
7.209895e+01	-8.939764e-04
7.251539e+01	-9.043323e-04
7.293424e+01	-9.148082e-04
7.335551e+01	-9.254053e-04
7.377920e+01	-9.361252e-04
7.420535e+01	-9.469693e-04
7.463396e+01	-9.579390e-04
7.506504e+01	-9.690358e-04
7.549861e+01	-9.802610e-04
7.593469e+01	-9.916163e-04
7.637328e+01	-1.003103e-03
7.681441e+01	-1.014723e-03
7.725809e+01	-1.026477e-03
7.770433e+01	-1.038368e-03
7.815315e+01	-1.050396e-03
7.860456e+01	-1.062564e-03
7.905857e+01	-1.074873e-03
7.951521e+01	-1.087324e-03
7.997449e+01	-1.099919e-03
8.043642e+01	-1.112660e-03
8.090102e+01	-1.125549e-03
8.136830e+01	-1.138587e-03
8.183828e+01	-1.151776e-03
8.231097e+01	-1.165118e-03
8.278640e+01	-1.178615e-03
8.326457e+01	-1.192267e-03
8.374550e+01	-1.206078e-03
8.422921e+01	-1.220049e-03
8.471572e+01	-1.234181e-03
8.520503e+01	-1.248478e-03
8.569717e+01	-1.262940e-03
8.619215e+01	-1.277569e-03
8.669000e+01	-1.292368e-03
8.719071e+01	-1.307338e-03
8.769432e+01	-1.322481e-03
8.820084e+01	-1.337800e-03
8.871029e+01	-1.353297e-03
8.922267e+01	-1.368973e-03
8.973802e+01	-1.384830e-03
9.025634e+01	-1.400871e-03
9.077766e+01	-1.417098e-03
9.130199e+01	-1.433513e-03
9.182935e+01	-1.450117e-03
9.235975e+01	-1.466915e-03
9.289321e+01	-1.483906e-03
9.342976e+01	-1.501095e-03
9.396941e+01	-1.518482e-03
9.451217e+01	-1.536071e-03
9.505807e+01	-1.553864e-03
9.560712e+01	-1.571862e-03
9.615934e+01	-1.590070e-03
9.671476e+01	-1.608488e-03
9.727338e+01	-1.627119e-03
9.783522e+01	-1.645966e-03
9.840032e+01	-1.665031e-03
9.896867e+01	-1.684317e-03
9.954031e+01	-1.703827e-03
1.001153e+02	-1.723562e-03
1.006935e+02	-1.743526e-03
1.012751e+02	-1.763721e-03
1.018601e+02	-1.784150e-03
1.024484e+02	-1.804816e-03
1.030402e+02	-1.825720e-03
1.036353e+02	-1.846867e-03
1.042339e+02	-1.868259e-03
1.048360e+02	-1.889899e-03
1.054415e+02	-1.911789e-03
1.060505e+02	-1.933933e-03
1.066631e+02	-1.956333e-03
1.072791e+02	-1.978992e-03
1.078988e+02	-2.001914e-03
1.085220e+02	-2.025101e-03
1.091488e+02	-2.048557e-03
1.097793e+02	-2.072285e-03
1.104133e+02	-2.096287e-03
1.110511e+02	-2.120567e-03
1.116925e+02	-2.145128e-03
1.123376e+02	-2.169974e-03
1.129865e+02	-2.195107e-03
1.136391e+02	-2.220532e-03
1.142955e+02	-2.246250e-03
1.149556e+02	-2.272267e-03
1.156196e+02	-2.298585e-03
1.162874e+02	-2.325207e-03
1.169591e+02	-2.352138e-03
1.176347e+02	-2.379381e-03
1.183141e+02	-2.406939e-03
1.189975e+02	-2.434816e-03
1.196848e+02	-2.463016e-03
1.203761e+02	-2.491543e-03
1.210714e+02	-2.520399e-03
1.217707e+02	-2.549590e-03
1.224740e+02	-2.579119e-03
1.231814e+02	-2.608990e-03
1.238929e+02	-2.639207e-03
1.246085e+02	-2.669773e-03
1.253283e+02	-2.700694e-03
1.260522e+02	-2.731972e-03
1.267802e+02	-2.763613e-03
1.275125e+02	-2.795619e-03
1.282490e+02	-2.827997e-03
1.289898e+02	-2.860749e-03
1.297348e+02	-2.893881e-03
1.304842e+02	-2.927396e-03
1.312378e+02	-2.961299e-03
1.319959e+02	-2.995594e-03
1.327583e+02	-3.030287e-03
1.335251e+02	-3.065381e-03
1.342963e+02	-3.100882e-03
1.350720e+02	-3.136793e-03
1.358522e+02	-3.173121e-03
1.366368e+02	-3.209868e-03
1.374260e+02	-3.247042e-03
1.382198e+02	-3.284645e-03
1.390182e+02	-3.322684e-03
1.398211e+02	-3.361163e-03
1.406287e+02	-3.400088e-03
1.414410e+02	-3.439463e-03
1.422579e+02	-3.479294e-03
1.430796e+02	-3.519587e-03
1.439060e+02	-3.560345e-03
1.447372e+02	-3.601576e-03
1.455732e+02	-3.643283e-03
1.464141e+02	-3.685474e-03
1.472597e+02	-3.728152e-03
1.481103e+02	-3.771325e-03
1.489658e+02	-3.814998e-03
1.498262e+02	-3.859176e-03
1.506916e+02	-3.903865e-03
1.515620e+02	-3.949072e-03
1.524374e+02	-3.994802e-03
1.533179e+02	-4.041061e-03
1.542034e+02	-4.087856e-03
1.550941e+02	-4.135192e-03
1.559899e+02	-4.183076e-03
1.568909e+02	-4.231515e-03
1.577971e+02	-4.280514e-03
1.587085e+02	-4.330080e-03
1.596252e+02	-4.380220e-03
1.605472e+02	-4.430940e-03
1.614745e+02	-4.482247e-03
1.624072e+02	-4.534147e-03
1.633453e+02	-4.586649e-03
1.642887e+02	-4.639758e-03
1.652377e+02	-4.693482e-03
1.661921e+02	-4.747827e-03
1.671520e+02	-4.802801e-03
1.681175e+02	-4.858412e-03
1.690885e+02	-4.914666e-03
1.700651e+02	-4.971571e-03
1.710474e+02	-5.029134e-03
1.720354e+02	-5.087364e-03
1.730291e+02	-5.146267e-03
1.740285e+02	-5.205853e-03
1.750337e+02	-5.266127e-03
1.760446e+02	-5.327099e-03
1.770615e+02	-5.388776e-03
1.780842e+02	-5.451167e-03
1.791128e+02	-5.514280e-03
1.801473e+02	-5.578124e-03
1.811878e+02	-5.642706e-03
1.822344e+02	-5.708035e-03
1.832870e+02	-5.774120e-03
1.843456e+02	-5.840969e-03
1.854104e+02	-5.908592e-03
1.864813e+02	-5.976998e-03
1.875584e+02	-6.046194e-03
1.886418e+02	-6.116192e-03
1.897313e+02	-6.186999e-03
1.908272e+02	-6.258625e-03
1.919294e+02	-6.331080e-03
1.930380e+02	-6.404373e-03
1.941530e+02	-6.478513e-03
1.952744e+02	-6.553512e-03
1.964023e+02	-6.629378e-03
1.975367e+02	-6.706121e-03
1.986777e+02	-6.783753e-03
1.998252e+02	-6.862282e-03
2.009794e+02	-6.941719e-03
2.021403e+02	-7.022076e-03
2.033078e+02	-7.103362e-03
2.044821e+02	-7.185588e-03
2.056632e+02	-7.268765e-03
2.068511e+02	-7.352904e-03
2.080459e+02	-7.438016e-03
2.092475e+02	-7.524112e-03
2.104561e+02	-7.611204e-03
2.116717e+02	-7.699304e-03
2.128943e+02	-7.788422e-03
2.141240e+02	-7.878571e-03
2.153608e+02	-7.969762e-03
2.166047e+02	-8.062008e-03
2.178558e+02	-8.155320e-03
2.191141e+02	-8.249712e-03
2.203797e+02	-8.345195e-03
2.216526e+02	-8.441781e-03
2.229329e+02	-8.539485e-03
2.242205e+02	-8.638319e-03
2.255156e+02	-8.738295e-03
2.268182e+02	-8.839427e-03
2.281283e+02	-8.941728e-03
2.294459e+02	-9.045212e-03
2.307712e+02	-9.149892e-03
2.321041e+02	-9.255783e-03
2.334447e+02	-9.362898e-03
2.347931e+02	-9.471250e-03
2.361493e+02	-9.580856e-03
2.375133e+02	-9.691728e-03
2.388851e+02	-9.803882e-03
2.402649e+02	-9.917333e-03
2.416527e+02	-1.003209e-02
2.430484e+02	-1.014818e-02
2.444523e+02	-1.026561e-02
2.458642e+02	-1.038440e-02
2.472843e+02	-1.050456e-02
2.487126e+02	-1.062611e-02
2.501492e+02	-1.074906e-02
2.515940e+02	-1.087344e-02
2.530472e+02	-1.099925e-02
2.545088e+02	-1.112651e-02
2.559789e+02	-1.125525e-02
2.574574e+02	-1.138547e-02
2.589444e+02	-1.151720e-02
2.604401e+02	-1.165045e-02
2.619444e+02	-1.178524e-02
2.634574e+02	-1.192159e-02
2.649791e+02	-1.205951e-02
2.665096e+02	-1.219902e-02
2.680489e+02	-1.234015e-02
2.695972e+02	-1.248291e-02
2.711544e+02	-1.262732e-02
2.727205e+02	-1.277339e-02
2.742958e+02	-1.292115e-02
2.758801e+02	-1.307062e-02
2.774736e+02	-1.322182e-02
2.790762e+02	-1.337476e-02
2.806882e+02	-1.352947e-02
2.823094e+02	-1.368596e-02
2.839400e+02	-1.384426e-02
2.855800e+02	-1.400439e-02
2.872295e+02	-1.416637e-02
2.888886e+02	-1.433022e-02
2.905572e+02	-1.449596e-02
2.922354e+02	-1.466362e-02
2.939234e+02	-1.483321e-02
2.956211e+02	-1.500476e-02
2.973286e+02	-1.517828e-02
2.990459e+02	-1.535382e-02
3.007732e+02	-1.553138e-02
3.025104e+02	-1.571098e-02
3.042577e+02	-1.589267e-02
3.060151e+02	-1.607644e-02
3.077826e+02	-1.626234e-02
3.095604e+02	-1.645039e-02
3.113484e+02	-1.664060e-02
3.131467e+02	-1.683301e-02
3.149554e+02	-1.702765e-02
3.167746e+02	-1.722452e-02
3.186043e+02	-1.742367e-02
3.204445e+02	-1.762512e-02
3.222954e+02	-1.782889e-02
3.241570e+02	-1.803501e-02
3.260293e+02	-1.824351e-02
3.279124e+02	-1.845442e-02
3.298064e+02	-1.866775e-02
3.317114e+02	-1.888355e-02
3.336273e+02	-1.910184e-02
3.355544e+02	-1.932265e-02
3.374925e+02	-1.954600e-02
3.394418e+02	-1.977193e-02
3.414024e+02	-2.000046e-02
3.433744e+02	-2.023163e-02
3.453577e+02	-2.046546e-02
3.473525e+02	-2.070199e-02
3.493588e+02	-2.094125e-02
3.513766e+02	-2.118327e-02
3.534062e+02	-2.142807e-02
3.554474e+02	-2.167570e-02
3.575005e+02	-2.192618e-02
3.595654e+02	-2.217955e-02
3.616422e+02	-2.243584e-02
3.637311e+02	-2.269509e-02
3.658320e+02	-2.295732e-02
3.679450e+02	-2.322257e-02
3.700702e+02	-2.349088e-02
3.722077e+02	-2.376228e-02
3.743576e+02	-2.403681e-02
3.765199e+02	-2.431450e-02
3.786946e+02	-2.459539e-02
3.808820e+02	-2.487951e-02
3.830819e+02	-2.516691e-02
3.852946e+02	-2.545762e-02
3.875200e+02	-2.575168e-02
3.897583e+02	-2.604912e-02
3.920096e+02	-2.634998e-02
3.942738e+02	-2.665432e-02
3.965511e+02	-2.696215e-02
3.988416e+02	-2.727353e-02
4.011452e+02	-2.758849e-02
4.034622e+02	-2.790708e-02
4.057926e+02	-2.822934e-02
4.081365e+02	-2.855531e-02
4.104938e+02	-2.888502e-02
4.128648e+02	-2.921853e-02
4.152495e+02	-2.955588e-02
4.176480e+02	-2.989711e-02
4.200603e+02	-3.024227e-02
4.224866e+02	-3.059140e-02
4.249268e+02	-3.094454e-02
4.273812e+02	-3.130174e-02
4.298497e+02	-3.166306e-02
4.323325e+02	-3.202852e-02
4.348297e+02	-3.239820e-02
4.373412e+02	-3.277212e-02
4.398673e+02	-3.315034e-02
4.424079e+02	-3.353290e-02
4.449633e+02	-3.391987e-02
4.475334e+02	-3.431128e-02
4.501183e+02	-3.470720e-02
4.527182e+02	-3.510766e-02
4.553330e+02	-3.551272e-02
4.579630e+02	-3.592244e-02
4.606082e+02	-3.633686e-02
4.632687e+02	-3.675605e-02
4.659445e+02	-3.718005e-02
4.686358e+02	-3.760892e-02
4.713426e+02	-3.804272e-02
4.740650e+02	-3.848149e-02
4.768032e+02	-3.892531e-02
4.795572e+02	-3.937422e-02
4.823271e+02	-3.982828e-02
4.851130e+02	-4.028756e-02
4.879150e+02	-4.075211e-02
4.907332e+02	-4.122198e-02
4.935676e+02	-4.169725e-02
4.964185e+02	-4.217797e-02
4.992858e+02	-4.266421e-02
5.021696e+02	-4.315603e-02
5.050701e+02	-4.365348e-02
5.079874e+02	-4.415664e-02
5.109215e+02	-4.466557e-02
5.138726e+02	-4.518034e-02
5.168407e+02	-4.570100e-02
5.198259e+02	-4.622764e-02
5.228284e+02	-4.676031e-02
5.258482e+02	-4.729908e-02
5.288855e+02	-4.784403e-02
5.319403e+02	-4.839522e-02
5.350128e+02	-4.895272e-02
5.381030e+02	-4.951661e-02
5.412111e+02	-5.008696e-02
5.443371e+02	-5.066384e-02
5.474812e+02	-5.124733e-02
5.506434e+02	-5.183749e-02
5.538239e+02	-5.243441e-02
5.570228e+02	-5.303816e-02
5.602401e+02	-5.364882e-02
5.634760e+02	-5.426647e-02
5.667306e+02	-5.489118e-02
5.700040e+02	-5.552304e-02
5.732964e+02	-5.616212e-02
5.766077e+02	-5.680851e-02
5.799382e+02	-5.746229e-02
5.832879e+02	-5.812355e-02
5.866569e+02	-5.879236e-02
5.900454e+02	-5.946882e-02
5.934535e+02	-6.015300e-02
5.968813e+02	-6.084500e-02
6.003288e+02	-6.154491e-02
6.037963e+02	-6.225281e-02
6.072838e+02	-6.296879e-02
6.107914e+02	-6.369295e-02
6.143194e+02	-6.442537e-02
6.178676e+02	-6.516615e-02
6.214364e+02	-6.591538e-02
6.250258e+02	-6.667316e-02
6.286359e+02	-6.743959e-02
6.322669e+02	-6.821475e-02
6.359189e+02	-6.899876e-02
6.395919e+02	-6.979170e-02
6.432862e+02	-7.059368e-02
6.470017e+02	-7.140480e-02
6.507388e+02	-7.222516e-02
6.544974e+02	-7.305487e-02
6.582778e+02	-7.389403e-02
6.620800e+02	-7.474275e-02
6.659041e+02	-7.560112e-02
6.697504e+02	-7.646927e-02
6.736188e+02	-7.734730e-02
6.775096e+02	-7.823532e-02
6.814229e+02	-7.913344e-02
6.853587e+02	-8.004177e-02
6.893173e+02	-8.096044e-02
6.932988e+02	-8.188955e-02
6.973033e+02	-8.282922e-02
7.013309e+02	-8.377956e-02
