Frequency(Hz)	Magnitude(dB)
1.000000e+01	-1.673327e-05
1.005776e+01	-1.692713e-05
1.011585e+01	-1.712324e-05
1.017428e+01	-1.732161e-05
1.023305e+01	-1.752229e-05
1.029215e+01	-1.772529e-05
1.035160e+01	-1.793064e-05
1.041139e+01	-1.813837e-05
1.047153e+01	-1.834851e-05
1.053201e+01	-1.856108e-05
1.059284e+01	-1.877612e-05
1.065403e+01	-1.899364e-05
1.071556e+01	-1.921369e-05
1.077746e+01	-1.943628e-05
1.083971e+01	-1.966146e-05
1.090232e+01	-1.988924e-05
1.096529e+01	-2.011966e-05
1.102862e+01	-2.035276e-05
1.109232e+01	-2.058855e-05
1.115639e+01	-2.082707e-05
1.122083e+01	-2.106836e-05
1.128564e+01	-2.131244e-05
1.135083e+01	-2.155935e-05
1.141639e+01	-2.180912e-05
1.148233e+01	-2.206178e-05
1.154865e+01	-2.231738e-05
1.161536e+01	-2.257593e-05
1.168245e+01	-2.283748e-05
1.174992e+01	-2.310205e-05
1.181779e+01	-2.336970e-05
1.188605e+01	-2.364044e-05
1.195470e+01	-2.391432e-05
1.202375e+01	-2.419137e-05
1.209320e+01	-2.447164e-05
1.216305e+01	-2.475515e-05
1.223330e+01	-2.504194e-05
1.230396e+01	-2.533206e-05
1.237503e+01	-2.562554e-05
1.244651e+01	-2.592241e-05
1.251840e+01	-2.622273e-05
1.259070e+01	-2.652653e-05
1.266343e+01	-2.683385e-05
1.273657e+01	-2.714472e-05
1.281014e+01	-2.745920e-05
1.288413e+01	-2.777732e-05
1.295855e+01	-2.809913e-05
1.303339e+01	-2.842466e-05
1.310867e+01	-2.875397e-05
1.318439e+01	-2.908709e-05
1.326054e+01	-2.942407e-05
1.333713e+01	-2.976496e-05
1.341417e+01	-3.010979e-05
1.349165e+01	-3.045862e-05
1.356958e+01	-3.081149e-05
1.364795e+01	-3.116845e-05
1.372678e+01	-3.152954e-05
1.380607e+01	-3.189482e-05
1.388581e+01	-3.226433e-05
1.396602e+01	-3.263812e-05
1.404668e+01	-3.301624e-05
1.412782e+01	-3.339874e-05
1.420942e+01	-3.378567e-05
1.429149e+01	-3.417709e-05
1.437404e+01	-3.457304e-05
1.445706e+01	-3.497358e-05
1.454057e+01	-3.537875e-05
1.462455e+01	-3.578862e-05
1.470902e+01	-3.620324e-05
1.479398e+01	-3.662267e-05
1.487943e+01	-3.704695e-05
1.496537e+01	-3.747615e-05
1.505181e+01	-3.791032e-05
1.513875e+01	-3.834951e-05
1.522619e+01	-3.879380e-05
1.531414e+01	-3.924324e-05
1.540259e+01	-3.969788e-05
1.549156e+01	-4.015779e-05
1.558103e+01	-4.062303e-05
1.567103e+01	-4.109365e-05
1.576155e+01	-4.156973e-05
1.585258e+01	-4.205133e-05
1.594415e+01	-4.253850e-05
1.603624e+01	-4.303132e-05
1.612886e+01	-4.352985e-05
1.622202e+01	-4.403415e-05
1.631572e+01	-4.454429e-05
1.640996e+01	-4.506035e-05
1.650474e+01	-4.558238e-05
1.660008e+01	-4.611046e-05
1.669596e+01	-4.664466e-05
1.679239e+01	-4.718505e-05
1.688938e+01	-4.773170e-05
1.698694e+01	-4.828468e-05
1.708505e+01	-4.884407e-05
1.718373e+01	-4.940994e-05
1.728299e+01	-4.998237e-05
1.738281e+01	-5.056142e-05
1.748322e+01	-5.114719e-05
1.758420e+01	-5.173974e-05
1.768576e+01	-5.233915e-05
1.778792e+01	-5.294551e-05
1.789066e+01	-5.355890e-05
1.799399e+01	-5.417939e-05
1.809793e+01	-5.480707e-05
1.820246e+01	-5.544202e-05
1.830760e+01	-5.608433e-05
1.841334e+01	-5.673408e-05
1.851969e+01	-5.739135e-05
1.862666e+01	-5.805624e-05
1.873425e+01	-5.872884e-05
1.884246e+01	-5.940922e-05
1.895129e+01	-6.009749e-05
1.906075e+01	-6.079373e-05
1.917085e+01	-6.149804e-05
1.928158e+01	-6.221050e-05
1.939295e+01	-6.293123e-05
1.950496e+01	-6.366030e-05
1.961762e+01	-6.439781e-05
1.973093e+01	-6.514387e-05
1.984490e+01	-6.589858e-05
1.995952e+01	-6.666203e-05
2.007480e+01	-6.743432e-05
2.019076e+01	-6.821556e-05
2.030738e+01	-6.900585e-05
2.042467e+01	-6.980529e-05
2.054264e+01	-7.061400e-05
2.066130e+01	-7.143208e-05
2.078064e+01	-7.225963e-05
2.090066e+01	-7.309677e-05
2.102139e+01	-7.394361e-05
2.114280e+01	-7.480026e-05
2.126492e+01	-7.566684e-05
2.138775e+01	-7.654345e-05
2.151128e+01	-7.743022e-05
2.163553e+01	-7.832726e-05
2.176050e+01	-7.923470e-05
2.188619e+01	-8.015264e-05
2.201260e+01	-8.108123e-05
2.213974e+01	-8.202057e-05
2.226762e+01	-8.297079e-05
2.239624e+01	-8.393202e-05
2.252560e+01	-8.490438e-05
2.265571e+01	-8.588802e-05
2.278656e+01	-8.688304e-05
2.291818e+01	-8.788960e-05
2.305055e+01	-8.890781e-05
2.318369e+01	-8.993782e-05
2.331760e+01	-9.097977e-05
2.345228e+01	-9.203378e-05
2.358774e+01	-9.310001e-05
2.372398e+01	-9.417859e-05
2.386101e+01	-9.526966e-05
2.399883e+01	-9.637337e-05
2.413745e+01	-9.748987e-05
2.427686e+01	-9.861931e-05
2.441709e+01	-9.976183e-05
2.455812e+01	-1.009176e-04
2.469997e+01	-1.020867e-04
2.484263e+01	-1.032694e-04
2.498612e+01	-1.044658e-04
2.513044e+01	-1.056761e-04
2.527559e+01	-1.069003e-04
2.542158e+01	-1.081388e-04
2.556842e+01	-1.093916e-04
2.571610e+01	-1.106589e-04
2.586463e+01	-1.119409e-04
2.601403e+01	-1.132377e-04
2.616428e+01	-1.145496e-04
2.631541e+01	-1.158767e-04
2.646740e+01	-1.172191e-04
2.662028e+01	-1.185771e-04
2.677404e+01	-1.199509e-04
2.692868e+01	-1.213405e-04
2.708422e+01	-1.227463e-04
2.724066e+01	-1.241683e-04
2.739800e+01	-1.256068e-04
2.755625e+01	-1.270620e-04
2.771541e+01	-1.285340e-04
2.787550e+01	-1.300231e-04
2.803650e+01	-1.315294e-04
2.819844e+01	-1.330532e-04
2.836131e+01	-1.345946e-04
2.852513e+01	-1.361539e-04
2.868989e+01	-1.377313e-04
2.885560e+01	-1.393269e-04
2.902227e+01	-1.409410e-04
2.918990e+01	-1.425738e-04
2.935850e+01	-1.442255e-04
2.952807e+01	-1.458964e-04
2.969863e+01	-1.475866e-04
2.987016e+01	-1.492964e-04
3.004269e+01	-1.510260e-04
3.021622e+01	-1.527757e-04
3.039075e+01	-1.545456e-04
3.056628e+01	-1.563360e-04
3.074283e+01	-1.581472e-04
3.092040e+01	-1.599793e-04
3.109900e+01	-1.618327e-04
3.127862e+01	-1.637076e-04
3.145929e+01	-1.656041e-04
3.164099e+01	-1.675227e-04
3.182375e+01	-1.694634e-04
3.200756e+01	-1.714267e-04
3.219244e+01	-1.734126e-04
3.237838e+01	-1.754216e-04
3.256540e+01	-1.774539e-04
3.275349e+01	-1.795097e-04
3.294268e+01	-1.815893e-04
3.313295e+01	-1.836931e-04
3.332433e+01	-1.858211e-04
3.351681e+01	-1.879739e-04
3.371040e+01	-1.901516e-04
3.390511e+01	-1.923545e-04
3.410094e+01	-1.945829e-04
3.429791e+01	-1.968372e-04
3.449601e+01	-1.991175e-04
3.469526e+01	-2.014243e-04
3.489566e+01	-2.037578e-04
3.509721e+01	-2.061183e-04
3.529993e+01	-2.085062e-04
3.550382e+01	-2.109218e-04
3.570889e+01	-2.133653e-04
3.591515e+01	-2.158371e-04
3.612259e+01	-2.183376e-04
3.633123e+01	-2.208670e-04
3.654108e+01	-2.234258e-04
3.675214e+01	-2.260141e-04
3.696442e+01	-2.286325e-04
3.717792e+01	-2.312812e-04
3.739266e+01	-2.339606e-04
3.760864e+01	-2.366710e-04
3.782587e+01	-2.394129e-04
3.804435e+01	-2.421864e-04
3.826409e+01	-2.449922e-04
3.848510e+01	-2.478304e-04
3.870739e+01	-2.507015e-04
3.893096e+01	-2.536058e-04
3.915583e+01	-2.565438e-04
3.938199e+01	-2.595159e-04
3.960946e+01	-2.625224e-04
3.983824e+01	-2.655637e-04
4.006834e+01	-2.686402e-04
4.029978e+01	-2.717524e-04
4.053255e+01	-2.749006e-04
4.076666e+01	-2.780853e-04
4.100213e+01	-2.813069e-04
4.123896e+01	-2.845658e-04
4.147715e+01	-2.878625e-04
4.171672e+01	-2.911973e-04
4.195767e+01	-2.945708e-04
4.220002e+01	-2.979834e-04
4.244377e+01	-3.014355e-04
4.268892e+01	-3.049276e-04
4.293549e+01	-3.084601e-04
4.318348e+01	-3.120336e-04
4.343291e+01	-3.156484e-04
4.368377e+01	-3.193052e-04
4.393609e+01	-3.230043e-04
4.418986e+01	-3.267462e-04
4.444510e+01	-3.305315e-04
4.470182e+01	-3.343607e-04
4.496001e+01	-3.382342e-04
4.521970e+01	-3.421526e-04
4.548089e+01	-3.461164e-04
4.574358e+01	-3.501261e-04
4.600779e+01	-3.541822e-04
4.627353e+01	-3.582853e-04
4.654081e+01	-3.624360e-04
4.680963e+01	-3.666347e-04
4.708000e+01	-3.708821e-04
4.735193e+01	-3.751787e-04
4.762543e+01	-3.795251e-04
4.790051e+01	-3.839218e-04
4.817719e+01	-3.883694e-04
4.845545e+01	-3.928686e-04
4.873533e+01	-3.974199e-04
4.901682e+01	-4.020239e-04
4.929994e+01	-4.066812e-04
4.958470e+01	-4.113925e-04
4.987110e+01	-4.161584e-04
5.015915e+01	-4.209794e-04
5.044887e+01	-4.258564e-04
5.074026e+01	-4.307898e-04
5.103333e+01	-4.357804e-04
5.132810e+01	-4.408287e-04
5.162457e+01	-4.459356e-04
5.192275e+01	-4.511016e-04
5.222265e+01	-4.563275e-04
5.252429e+01	-4.616139e-04
5.282767e+01	-4.669615e-04
5.313280e+01	-4.723711e-04
5.343969e+01	-4.778433e-04
5.374836e+01	-4.833790e-04
5.405880e+01	-4.889787e-04
5.437105e+01	-4.946434e-04
5.468509e+01	-5.003736e-04
5.500095e+01	-5.061703e-04
5.531863e+01	-5.120340e-04
5.563815e+01	-5.179657e-04
5.595951e+01	-5.239661e-04
5.628273e+01	-5.300361e-04
5.660782e+01	-5.361763e-04
5.693479e+01	-5.423877e-04
5.726364e+01	-5.486710e-04
5.759439e+01	-5.550271e-04
5.792705e+01	-5.614568e-04
5.826164e+01	-5.679610e-04
5.859815e+01	-5.745406e-04
5.893662e+01	-5.811963e-04
5.927703e+01	-5.879292e-04
5.961941e+01	-5.947400e-04
5.996377e+01	-6.016298e-04
6.031012e+01	-6.085994e-04
6.065847e+01	-6.156496e-04
6.100883e+01	-6.227816e-04
6.136121e+01	-6.299962e-04
6.171563e+01	-6.372943e-04
6.207210e+01	-6.446770e-04
6.243063e+01	-6.521452e-04
6.279122e+01	-6.596999e-04
6.315390e+01	-6.673421e-04
6.351868e+01	-6.750729e-04
6.388556e+01	-6.828932e-04
6.425456e+01	-6.908040e-04
6.462569e+01	-6.988065e-04
6.499897e+01	-7.069017e-04
6.537440e+01	-7.150907e-04
6.575200e+01	-7.233746e-04
6.613178e+01	-7.317543e-04
6.651375e+01	-7.402312e-04
6.689793e+01	-7.488062e-04
6.728433e+01	-7.574806e-04
6.767297e+01	-7.662555e-04
6.806384e+01	-7.751319e-04
6.845698e+01	-7.841112e-04
6.885238e+01	-7.931946e-04
6.925007e+01	-8.023831e-04
6.965005e+01	-8.116780e-04
7.005235e+01	-8.210807e-04
7.045697e+01	-8.305922e-04
7.086393e+01	-8.402139e-04
7.127323e+01	-8.499471e-04
7.168490e+01	-8.597930e-04
7.209895e+01	-8.697529e-04
7.251539e+01	-8.798282e-04
7.293424e+01	-8.900202e-04
7.335551e+01	-9.003303e-04
7.377920e+01	-9.107597e-04
7.420535e+01	-9.213100e-04
7.463396e+01	-9.319825e-04
7.506504e+01	-9.427786e-04
7.549861e+01	-9.536998e-04
7.593469e+01	-9.647474e-04
7.637328e+01	-9.759230e-04
7.681441e+01	-9.872281e-04
7.725809e+01	-9.986641e-04
7.770433e+01	-1.010232e-03
7.815315e+01	-1.021935e-03
7.860456e+01	-1.033773e-03
7.905857e+01	-1.045748e-03
7.951521e+01	-1.057862e-03
7.997449e+01	-1.070116e-03
8.043642e+01	-1.082512e-03
8.090102e+01	-1.095052e-03
8.136830e+01	-1.107736e-03
8.183828e+01	-1.120568e-03
8.231097e+01	-1.133549e-03
8.278640e+01	-1.146679e-03
8.326457e+01	-1.159962e-03
8.374550e+01	-1.173399e-03
8.422921e+01	-1.186991e-03
8.471572e+01	-1.200741e-03
8.520503e+01	-1.214650e-03
8.569717e+01	-1.228720e-03
8.619215e+01	-1.242953e-03
8.669000e+01	-1.257351e-03
8.719071e+01	-1.271915e-03
8.769432e+01	-1.286649e-03
8.820084e+01	-1.301553e-03
8.871029e+01	-1.316629e-03
8.922267e+01	-1.331880e-03
8.973802e+01	-1.347308e-03
9.025634e+01	-1.362915e-03
9.077766e+01	-1.378702e-03
9.130199e+01	-1.394672e-03
9.182935e+01	-1.410827e-03
9.235975e+01	-1.427169e-03
9.289321e+01	-1.443700e-03
9.342976e+01	-1.460423e-03
9.396941e+01	-1.477340e-03
9.451217e+01	-1.494452e-03
9.505807e+01	-1.511763e-03
9.560712e+01	-1.529274e-03
9.615934e+01	-1.546988e-03
9.671476e+01	-1.564907e-03
9.727338e+01	-1.583033e-03
9.783522e+01	-1.601370e-03
9.840032e+01	-1.619919e-03
9.896867e+01	-1.638682e-03
9.954031e+01	-1.657663e-03
1.001153e+02	-1.676864e-03
1.006935e+02	-1.696287e-03
1.012751e+02	-1.715935e-03
1.018601e+02	-1.735811e-03
1.024484e+02	-1.755917e-03
1.030402e+02	-1.776255e-03
1.036353e+02	-1.796829e-03
1.042339e+02	-1.817642e-03
1.048360e+02	-1.838695e-03
1.054415e+02	-1.859992e-03
1.060505e+02	-1.881536e-03
1.066631e+02	-1.903329e-03
1.072791e+02	-1.925375e-03
1.078988e+02	-1.947676e-03
1.085220e+02	-1.970235e-03
1.091488e+02	-1.993056e-03
1.097793e+02	-2.016141e-03
1.104133e+02	-2.039493e-03
1.110511e+02	-2.063115e-03
1.116925e+02	-2.087011e-03
1.123376e+02	-2.111184e-03
1.129865e+02	-2.135636e-03
1.136391e+02	-2.160372e-03
1.142955e+02	-2.185394e-03
1.149556e+02	-2.210706e-03
1.156196e+02	-2.236311e-03
1.162874e+02	-2.262213e-03
1.169591e+02	-2.288414e-03
1.176347e+02	-2.314919e-03
1.183141e+02	-2.341731e-03
1.189975e+02	-2.368853e-03
1.196848e+02	-2.396289e-03
1.203761e+02	-2.424043e-03
1.210714e+02	-2.452118e-03
1.217707e+02	-2.480518e-03
1.224740e+02	-2.509248e-03
1.231814e+02	-2.538309e-03
1.238929e+02	-2.567708e-03
1.246085e+02	-2.597446e-03
1.253283e+02	-2.627529e-03
1.260522e+02	-2.657961e-03
1.267802e+02	-2.688744e-03
1.275125e+02	-2.719884e-03
1.282490e+02	-2.751385e-03
1.289898e+02	-2.783250e-03
1.297348e+02	-2.815484e-03
1.304842e+02	-2.848092e-03
1.312378e+02	-2.881077e-03
1.319959e+02	-2.914444e-03
1.327583e+02	-2.948197e-03
1.335251e+02	-2.982341e-03
1.342963e+02	-3.016880e-03
1.350720e+02	-3.051819e-03
1.358522e+02	-3.087162e-03
1.366368e+02	-3.122915e-03
1.374260e+02	-3.159082e-03
1.382198e+02	-3.195667e-03
1.390182e+02	-3.232676e-03
1.398211e+02	-3.270113e-03
1.406287e+02	-3.307984e-03
1.414410e+02	-3.346293e-03
1.422579e+02	-3.385045e-03
1.430796e+02	-3.424247e-03
1.439060e+02	-3.463901e-03
1.447372e+02	-3.504015e-03
1.455732e+02	-3.544594e-03
1.464141e+02	-3.585642e-03
1.472597e+02	-3.627165e-03
1.481103e+02	-3.669169e-03
1.489658e+02	-3.711659e-03
1.498262e+02	-3.754641e-03
1.506916e+02	-3.798120e-03
1.515620e+02	-3.842103e-03
1.524374e+02	-3.886595e-03
1.533179e+02	-3.931602e-03
1.542034e+02	-3.977129e-03
1.550941e+02	-4.023184e-03
1.559899e+02	-4.069772e-03
1.568909e+02	-4.116899e-03
1.577971e+02	-4.164571e-03
1.587085e+02	-4.212795e-03
1.596252e+02	-4.261578e-03
1.605472e+02	-4.310925e-03
1.614745e+02	-4.360843e-03
1.624072e+02	-4.411339e-03
1.633453e+02	-4.462419e-03
1.642887e+02	-4.514090e-03
1.652377e+02	-4.566359e-03
1.661921e+02	-4.619234e-03
1.671520e+02	-4.672720e-03
1.681175e+02	-4.726825e-03
1.690885e+02	-4.781556e-03
1.700651e+02	-4.836921e-03
1.710474e+02	-4.892926e-03
1.720354e+02	-4.949580e-03
1.730291e+02	-5.006889e-03
1.740285e+02	-5.064861e-03
1.750337e+02	-5.123504e-03
1.760446e+02	-5.182825e-03
1.770615e+02	-5.242834e-03
1.780842e+02	-5.303536e-03
1.791128e+02	-5.364941e-03
1.801473e+02	-5.427056e-03
1.811878e+02	-5.489890e-03
1.822344e+02	-5.553451e-03
1.832870e+02	-5.617747e-03
1.843456e+02	-5.682788e-03
1.854104e+02	-5.748581e-03
1.864813e+02	-5.815135e-03
1.875584e+02	-5.882459e-03
1.886418e+02	-5.950562e-03
1.897313e+02	-6.019453e-03
1.908272e+02	-6.089141e-03
1.919294e+02	-6.159635e-03
1.930380e+02	-6.230944e-03
1.941530e+02	-6.303079e-03
1.952744e+02	-6.376048e-03
1.964023e+02	-6.449861e-03
1.975367e+02	-6.524528e-03
1.986777e+02	-6.600059e-03
1.998252e+02	-6.676463e-03
2.009794e+02	-6.753751e-03
2.021403e+02	-6.831934e-03
2.033078e+02	-6.911020e-03
2.044821e+02	-6.991021e-03
2.056632e+02	-7.071948e-03
2.068511e+02	-7.153811e-03
2.080459e+02	-7.236620e-03
2.092475e+02	-7.320387e-03
2.104561e+02	-7.405123e-03
2.116717e+02	-7.490839e-03
2.128943e+02	-7.577547e-03
2.141240e+02	-7.665257e-03
2.153608e+02	-7.753981e-03
2.166047e+02	-7.843732e-03
2.178558e+02	-7.934520e-03
2.191141e+02	-8.026358e-03
2.203797e+02	-8.119259e-03
2.216526e+02	-8.213233e-03
2.229329e+02	-8.308294e-03
2.242205e+02	-8.404454e-03
2.255156e+02	-8.501727e-03
2.268182e+02	-8.600123e-03
2.281283e+02	-8.699658e-03
2.294459e+02	-8.800343e-03
2.307712e+02	-8.902193e-03
2.321041e+02	-9.005220e-03
2.334447e+02	-9.109438e-03
2.347931e+02	-9.214860e-03
2.361493e+02	-9.321502e-03
2.375133e+02	-9.429376e-03
2.388851e+02	-9.538498e-03
2.402649e+02	-9.648880e-03
2.416527e+02	-9.760539e-03
2.430484e+02	-9.873488e-03
2.444523e+02	-9.987743e-03
2.458642e+02	-1.010332e-02
2.472843e+02	-1.022023e-02
2.487126e+02	-1.033849e-02
2.501492e+02	-1.045812e-02
2.515940e+02	-1.057913e-02
2.530472e+02	-1.070154e-02
2.545088e+02	-1.082537e-02
2.559789e+02	-1.095063e-02
2.574574e+02	-1.107733e-02
2.589444e+02	-1.120550e-02
2.604401e+02	-1.133514e-02
2.619444e+02	-1.146629e-02
2.634574e+02	-1.159895e-02
2.649791e+02	-1.173315e-02
2.665096e+02	-1.186889e-02
2.680489e+02	-1.200621e-02
2.695972e+02	-1.214511e-02
2.711544e+02	-1.228561e-02
2.727205e+02	-1.242774e-02
2.742958e+02	-1.257151e-02
2.758801e+02	-1.271694e-02
2.774736e+02	-1.286405e-02
2.790762e+02	-1.301286e-02
2.806882e+02	-1.316338e-02
2.823094e+02	-1.331565e-02
2.839400e+02	-1.346968e-02
2.855800e+02	-1.362548e-02
2.872295e+02	-1.378308e-02
2.888886e+02	-1.394251e-02
2.905572e+02	-1.410377e-02
2.922354e+02	-1.426690e-02
2.939234e+02	-1.443191e-02
2.956211e+02	-1.459882e-02
2.973286e+02	-1.476767e-02
2.990459e+02	-1.493846e-02
3.007732e+02	-1.511122e-02
3.025104e+02	-1.528598e-02
3.042577e+02	-1.546275e-02
3.060151e+02	-1.564157e-02
3.077826e+02	-1.582245e-02
3.095604e+02	-1.600542e-02
3.113484e+02	-1.619050e-02
3.131467e+02	-1.637772e-02
3.149554e+02	-1.656709e-02
3.167746e+02	-1.675865e-02
3.186043e+02	-1.695243e-02
3.204445e+02	-1.714844e-02
3.222954e+02	-1.734671e-02
3.241570e+02	-1.754727e-02
3.260293e+02	-1.775014e-02
3.279124e+02	-1.795535e-02
3.298064e+02	-1.816293e-02
3.317114e+02	-1.837291e-02
3.336273e+02	-1.858531e-02
3.355544e+02	-1.880015e-02
3.374925e+02	-1.901748e-02
3.394418e+02	-1.923731e-02
3.414024e+02	-1.945968e-02
3.433744e+02	-1.968461e-02
3.453577e+02	-1.991214e-02
3.473525e+02	-2.014229e-02
3.493588e+02	-2.037509e-02
3.513766e+02	-2.061058e-02
3.534062e+02	-2.084879e-02
3.554474e+02	-2.108974e-02
3.575005e+02	-2.133346e-02
3.595654e+02	-2.158000e-02
3.616422e+02	-2.182938e-02
3.637311e+02	-2.208163e-02
3.658320e+02	-2.233679e-02
3.679450e+02	-2.259490e-02
3.700702e+02	-2.285597e-02
3.722077e+02	-2.312006e-02
3.743576e+02	-2.338719e-02
3.765199e+02	-2.365739e-02
3.786946e+02	-2.393071e-02
3.808820e+02	-2.420718e-02
3.830819e+02	-2.448683e-02
3.852946e+02	-2.476971e-02
3.875200e+02	-2.505584e-02
3.897583e+02	-2.534527e-02
3.920096e+02	-2.563803e-02
3.942738e+02	-2.593416e-02
3.965511e+02	-2.623371e-02
3.988416e+02	-2.653670e-02
4.011452e+02	-2.684318e-02
4.034622e+02	-2.715319e-02
4.057926e+02	-2.746677e-02
4.081365e+02	-2.778396e-02
4.104938e+02	-2.810479e-02
4.128648e+02	-2.842933e-02
4.152495e+02	-2.875759e-02
4.176480e+02	-2.908964e-02
4.200603e+02	-2.942550e-02
4.224866e+02	-2.976523e-02
4.249268e+02	-3.010887e-02
4.273812e+02	-3.045646e-02
4.298497e+02	-3.080806e-02
4.323325e+02	-3.116369e-02
4.348297e+02	-3.152341e-02
4.373412e+02	-3.188728e-02
4.398673e+02	-3.225532e-02
4.424079e+02	-3.262760e-02
4.449633e+02	-3.300416e-02
4.475334e+02	-3.338505e-02
4.501183e+02	-3.377031e-02
4.527182e+02	-3.416001e-02
4.553330e+02	-3.455418e-02
4.579630e+02	-3.495288e-02
4.606082e+02	-3.535617e-02
4.632687e+02	-3.576409e-02
4.659445e+02	-3.617669e-02
4.686358e+02	-3.659404e-02
4.713426e+02	-3.701618e-02
4.740650e+02	-3.744317e-02
4.768032e+02	-3.787506e-02
4.795572e+02	-3.831191e-02
4.823271e+02	-3.875378e-02
4.851130e+02	-3.920072e-02
4.879150e+02	-3.965279e-02
4.907332e+02	-4.011005e-02
4.935676e+02	-4.057256e-02
4.964185e+02	-4.104038e-02
4.992858e+02	-4.151356e-02
5.021696e+02	-4.199218e-02
5.050701e+02	-4.247628e-02
5.079874e+02	-4.296594e-02
5.109215e+02	-4.346122e-02
5.138726e+02	-4.396217e-02
5.168407e+02	-4.446887e-02
5.198259e+02	-4.498138e-02
5.228284e+02	-4.549976e-02
5.258482e+02	-4.602409e-02
5.288855e+02	-4.655443e-02
5.319403e+02	-4.709084e-02
5.350128e+02	-4.763340e-02
5.381030e+02	-4.818218e-02
5.412111e+02	-4.873725e-02
5.443371e+02	-4.929867e-02
5.474812e+02	-4.986652e-02
5.506434e+02	-5.044088e-02
5.538239e+02	-5.102181e-02
5.570228e+02	-5.160939e-02
5.602401e+02	-5.220370e-02
5.634760e+02	-5.280481e-02
5.667306e+02	-5.341280e-02
5.700040e+02	-5.402774e-02
5.732964e+02	-5.464972e-02
5.766077e+02	-5.527882e-02
5.799382e+02	-5.591511e-02
5.832879e+02	-5.655867e-02
5.866569e+02	-5.720960e-02
5.900454e+02	-5.786797e-02
5.934535e+02	-5.853386e-02
5.968813e+02	-5.920736e-02
6.003288e+02	-5.988856e-02
6.037963e+02	-6.057753e-02
6.072838e+02	-6.127438e-02
6.107914e+02	-6.197919e-02
6.143194e+02	-6.269205e-02
6.178676e+02	-6.341305e-02
6.214364e+02	-6.414227e-02
6.250258e+02	-6.487982e-02
6.286359e+02	-6.562579e-02
6.322669e+02	-6.638026e-02
6.359189e+02	-6.714335e-02
6.395919e+02	-6.791513e-02
6.432862e+02	-6.869572e-02
6.470017e+02	-6.948521e-02
6.507388e+02	-7.028369e-02
6.544974e+02	-7.109128e-02
6.582778e+02	-7.190807e-02
6.620800e+02	-7.273417e-02
6.659041e+02	-7.356967e-02
6.697504e+02	-7.441469e-02
6.736188e+02	-7.526933e-02
6.775096e+02	-7.613370e-02
6.814229e+02	-7.700791e-02
6.853587e+02	-7.789207e-02
6.893173e+02	-7.878628e-02
6.932988e+02	-7.969067e-02
6.973033e+02	-8.060534e-02
7.013309e+02	-8.153041e-02
