Frequency(Hz)	Magnitude(dB)
1.000000e+01	-1.842630e-05
1.005776e+01	-1.863977e-05
1.011585e+01	-1.885572e-05
1.017428e+01	-1.907416e-05
1.023305e+01	-1.929514e-05
1.029215e+01	-1.951868e-05
1.035160e+01	-1.974481e-05
1.041139e+01	-1.997356e-05
1.047153e+01	-2.020496e-05
1.053201e+01	-2.043904e-05
1.059284e+01	-2.067583e-05
1.065403e+01	-2.091536e-05
1.071556e+01	-2.115767e-05
1.077746e+01	-2.140279e-05
1.083971e+01	-2.165075e-05
1.090232e+01	-2.190158e-05
1.096529e+01	-2.215531e-05
1.102862e+01	-2.241199e-05
1.109232e+01	-2.267164e-05
1.115639e+01	-2.293429e-05
1.122083e+01	-2.319999e-05
1.128564e+01	-2.346877e-05
1.135083e+01	-2.374066e-05
1.141639e+01	-2.401570e-05
1.148233e+01	-2.429393e-05
1.154865e+01	-2.457538e-05
1.161536e+01	-2.486009e-05
1.168245e+01	-2.514810e-05
1.174992e+01	-2.543945e-05
1.181779e+01	-2.573417e-05
1.188605e+01	-2.603231e-05
1.195470e+01	-2.633390e-05
1.202375e+01	-2.663898e-05
1.209320e+01	-2.694760e-05
1.216305e+01	-2.725980e-05
1.223330e+01	-2.757561e-05
1.230396e+01	-2.789508e-05
1.237503e+01	-2.821825e-05
1.244651e+01	-2.854517e-05
1.251840e+01	-2.887587e-05
1.259070e+01	-2.921040e-05
1.266343e+01	-2.954881e-05
1.273657e+01	-2.989114e-05
1.281014e+01	-3.023744e-05
1.288413e+01	-3.058775e-05
1.295855e+01	-3.094211e-05
1.303339e+01	-3.130058e-05
1.310867e+01	-3.166321e-05
1.318439e+01	-3.203004e-05
1.326054e+01	-3.240111e-05
1.333713e+01	-3.277649e-05
1.341417e+01	-3.315621e-05
1.349165e+01	-3.354033e-05
1.356958e+01	-3.392890e-05
1.364795e+01	-3.432198e-05
1.372678e+01	-3.471961e-05
1.380607e+01	-3.512184e-05
1.388581e+01	-3.552874e-05
1.396602e+01	-3.594034e-05
1.404668e+01	-3.635672e-05
1.412782e+01	-3.677792e-05
1.420942e+01	-3.720400e-05
1.429149e+01	-3.763502e-05
1.437404e+01	-3.807103e-05
1.445706e+01	-3.851209e-05
1.454057e+01	-3.895826e-05
1.462455e+01	-3.940960e-05
1.470902e+01	-3.986617e-05
1.479398e+01	-4.032803e-05
1.487943e+01	-4.079524e-05
1.496537e+01	-4.126786e-05
1.505181e+01	-4.174596e-05
1.513875e+01	-4.222960e-05
1.522619e+01	-4.271884e-05
1.531414e+01	-4.321374e-05
1.540259e+01	-4.371438e-05
1.549156e+01	-4.422083e-05
1.558103e+01	-4.473313e-05
1.567103e+01	-4.525138e-05
1.576155e+01	-4.577562e-05
1.585258e+01	-4.630594e-05
1.594415e+01	-4.684241e-05
1.603624e+01	-4.738509e-05
1.612886e+01	-4.793405e-05
1.622202e+01	-4.848938e-05
1.631572e+01	-4.905114e-05
1.640996e+01	-4.961941e-05
1.650474e+01	-5.019426e-05
1.660008e+01	-5.077577e-05
1.669596e+01	-5.136402e-05
1.679239e+01	-5.195908e-05
1.688938e+01	-5.256104e-05
1.698694e+01	-5.316997e-05
1.708505e+01	-5.378595e-05
1.718373e+01	-5.440908e-05
1.728299e+01	-5.503942e-05
1.738281e+01	-5.567706e-05
1.748322e+01	-5.632209e-05
1.758420e+01	-5.697459e-05
1.768576e+01	-5.763465e-05
1.778792e+01	-5.830236e-05
1.789066e+01	-5.897781e-05
1.799399e+01	-5.966108e-05
1.809793e+01	-6.035226e-05
1.820246e+01	-6.105146e-05
1.830760e+01	-6.175875e-05
1.841334e+01	-6.247424e-05
1.851969e+01	-6.319801e-05
1.862666e+01	-6.393017e-05
1.873425e+01	-6.467082e-05
1.884246e+01	-6.542004e-05
1.895129e+01	-6.617795e-05
1.906075e+01	-6.694463e-05
1.917085e+01	-6.772020e-05
1.928158e+01	-6.850475e-05
1.939295e+01	-6.929839e-05
1.950496e+01	-7.010122e-05
1.961762e+01	-7.091336e-05
1.973093e+01	-7.173490e-05
1.984490e+01	-7.256596e-05
1.995952e+01	-7.340665e-05
2.007480e+01	-7.425708e-05
2.019076e+01	-7.511737e-05
2.030738e+01	-7.598761e-05
2.042467e+01	-7.686794e-05
2.054264e+01	-7.775847e-05
2.066130e+01	-7.865932e-05
2.078064e+01	-7.957060e-05
2.090066e+01	-8.049244e-05
2.102139e+01	-8.142496e-05
2.114280e+01	-8.236828e-05
2.126492e+01	-8.332253e-05
2.138775e+01	-8.428783e-05
2.151128e+01	-8.526432e-05
2.163553e+01	-8.625212e-05
2.176050e+01	-8.725137e-05
2.188619e+01	-8.826219e-05
2.201260e+01	-8.928472e-05
2.213974e+01	-9.031910e-05
2.226762e+01	-9.136546e-05
2.239624e+01	-9.242394e-05
2.252560e+01	-9.349469e-05
2.265571e+01	-9.457784e-05
2.278656e+01	-9.567354e-05
2.291818e+01	-9.678193e-05
2.305055e+01	-9.790316e-05
2.318369e+01	-9.903739e-05
2.331760e+01	-1.001847e-04
2.345228e+01	-1.013454e-04
2.358774e+01	-1.025195e-04
2.372398e+01	-1.037072e-04
2.386101e+01	-1.049087e-04
2.399883e+01	-1.061241e-04
2.413745e+01	-1.073535e-04
2.427686e+01	-1.085972e-04
2.441709e+01	-1.098553e-04
2.455812e+01	-1.111280e-04
2.469997e+01	-1.124155e-04
2.484263e+01	-1.137178e-04
2.498612e+01	-1.150352e-04
2.513044e+01	-1.163679e-04
2.527559e+01	-1.177161e-04
2.542158e+01	-1.190798e-04
2.556842e+01	-1.204594e-04
2.571610e+01	-1.218549e-04
2.586463e+01	-1.232666e-04
2.601403e+01	-1.246947e-04
2.616428e+01	-1.261393e-04
2.631541e+01	-1.276006e-04
2.646740e+01	-1.290789e-04
2.662028e+01	-1.305743e-04
2.677404e+01	-1.320870e-04
2.692868e+01	-1.336172e-04
2.708422e+01	-1.351652e-04
2.724066e+01	-1.367311e-04
2.739800e+01	-1.383151e-04
2.755625e+01	-1.399175e-04
2.771541e+01	-1.415385e-04
2.787550e+01	-1.431782e-04
2.803650e+01	-1.448370e-04
2.819844e+01	-1.465149e-04
2.836131e+01	-1.482123e-04
2.852513e+01	-1.499294e-04
2.868989e+01	-1.516663e-04
2.885560e+01	-1.534234e-04
2.902227e+01	-1.552008e-04
2.918990e+01	-1.569988e-04
2.935850e+01	-1.588176e-04
2.952807e+01	-1.606575e-04
2.969863e+01	-1.625188e-04
2.987016e+01	-1.644016e-04
3.004269e+01	-1.663062e-04
3.021622e+01	-1.682328e-04
3.039075e+01	-1.701818e-04
3.056628e+01	-1.721534e-04
3.074283e+01	-1.741478e-04
3.092040e+01	-1.761653e-04
3.109900e+01	-1.782062e-04
3.127862e+01	-1.802707e-04
3.145929e+01	-1.823591e-04
3.164099e+01	-1.844718e-04
3.182375e+01	-1.866089e-04
3.200756e+01	-1.887708e-04
3.219244e+01	-1.909577e-04
3.237838e+01	-1.931699e-04
3.256540e+01	-1.954078e-04
3.275349e+01	-1.976716e-04
3.294268e+01	-1.999616e-04
3.313295e+01	-2.022782e-04
3.332433e+01	-2.046216e-04
3.351681e+01	-2.069921e-04
3.371040e+01	-2.093901e-04
3.390511e+01	-2.118159e-04
3.410094e+01	-2.142698e-04
3.429791e+01	-2.167521e-04
3.449601e+01	-2.192632e-04
3.469526e+01	-2.218033e-04
3.489566e+01	-2.243729e-04
3.509721e+01	-2.269723e-04
3.529993e+01	-2.296018e-04
3.550382e+01	-2.322617e-04
3.570889e+01	-2.349524e-04
3.591515e+01	-2.376743e-04
3.612259e+01	-2.404278e-04
3.633123e+01	-2.432131e-04
3.654108e+01	-2.460307e-04
3.675214e+01	-2.488810e-04
3.696442e+01	-2.517643e-04
3.717792e+01	-2.546809e-04
3.739266e+01	-2.576314e-04
3.760864e+01	-2.606160e-04
3.782587e+01	-2.636353e-04
3.804435e+01	-2.666895e-04
3.826409e+01	-2.697790e-04
3.848510e+01	-2.729044e-04
3.870739e+01	-2.760660e-04
3.893096e+01	-2.792642e-04
3.915583e+01	-2.824994e-04
3.938199e+01	-2.857721e-04
3.960946e+01	-2.890828e-04
3.983824e+01	-2.924318e-04
4.006834e+01	-2.958196e-04
4.029978e+01	-2.992466e-04
4.053255e+01	-3.027133e-04
4.076666e+01	-3.062202e-04
4.100213e+01	-3.097677e-04
4.123896e+01	-3.133564e-04
4.147715e+01	-3.169866e-04
4.171672e+01	-3.206588e-04
4.195767e+01	-3.243736e-04
4.220002e+01	-3.281314e-04
4.244377e+01	-3.319327e-04
4.268892e+01	-3.357781e-04
4.293549e+01	-3.396681e-04
4.318348e+01	-3.436030e-04
4.343291e+01	-3.475836e-04
4.368377e+01	-3.516103e-04
4.393609e+01	-3.556837e-04
4.418986e+01	-3.598042e-04
4.444510e+01	-3.639724e-04
4.470182e+01	-3.681890e-04
4.496001e+01	-3.724544e-04
4.521970e+01	-3.767692e-04
4.548089e+01	-3.811339e-04
4.574358e+01	-3.855493e-04
4.600779e+01	-3.900158e-04
4.627353e+01	-3.945340e-04
4.654081e+01	-3.991046e-04
4.680963e+01	-4.037281e-04
4.708000e+01	-4.084052e-04
4.735193e+01	-4.131365e-04
4.762543e+01	-4.179225e-04
4.790051e+01	-4.227641e-04
4.817719e+01	-4.276616e-04
4.845545e+01	-4.326160e-04
4.873533e+01	-4.376277e-04
4.901682e+01	-4.426975e-04
4.929994e+01	-4.478260e-04
4.958470e+01	-4.530139e-04
4.987110e+01	-4.582619e-04
5.015915e+01	-4.635707e-04
5.044887e+01	-4.689410e-04
5.074026e+01	-4.743736e-04
5.103333e+01	-4.798690e-04
5.132810e+01	-4.854281e-04
5.162457e+01	-4.910516e-04
5.192275e+01	-4.967402e-04
5.222265e+01	-5.024948e-04
5.252429e+01	-5.083160e-04
5.282767e+01	-5.142046e-04
5.313280e+01	-5.201615e-04
5.343969e+01	-5.261873e-04
5.374836e+01	-5.322830e-04
5.405880e+01	-5.384492e-04
5.437105e+01	-5.446869e-04
5.468509e+01	-5.509969e-04
5.500095e+01	-5.573799e-04
5.531863e+01	-5.638369e-04
5.563815e+01	-5.703687e-04
5.595951e+01	-5.769761e-04
5.628273e+01	-5.836601e-04
5.660782e+01	-5.904215e-04
5.693479e+01	-5.972612e-04
5.726364e+01	-6.041802e-04
5.759439e+01	-6.111793e-04
5.792705e+01	-6.182594e-04
5.826164e+01	-6.254216e-04
5.859815e+01	-6.326668e-04
5.893662e+01	-6.399959e-04
5.927703e+01	-6.474098e-04
5.961941e+01	-6.549097e-04
5.996377e+01	-6.624964e-04
6.031012e+01	-6.701710e-04
6.065847e+01	-6.779346e-04
6.100883e+01	-6.857880e-04
6.136121e+01	-6.937324e-04
6.171563e+01	-7.017688e-04
6.207210e+01	-7.098983e-04
6.243063e+01	-7.181220e-04
6.279122e+01	-7.264410e-04
6.315390e+01	-7.348563e-04
6.351868e+01	-7.433691e-04
6.388556e+01	-7.519805e-04
6.425456e+01	-7.606916e-04
6.462569e+01	-7.695036e-04
6.499897e+01	-7.784177e-04
6.537440e+01	-7.874351e-04
6.575200e+01	-7.965569e-04
6.613178e+01	-8.057844e-04
6.651375e+01	-8.151188e-04
6.689793e+01	-8.245612e-04
6.728433e+01	-8.341131e-04
6.767297e+01	-8.437756e-04
6.806384e+01	-8.535500e-04
6.845698e+01	-8.634376e-04
6.885238e+01	-8.734398e-04
6.925007e+01	-8.835578e-04
6.965005e+01	-8.937930e-04
7.005235e+01	-9.041467e-04
7.045697e+01	-9.146204e-04
7.086393e+01	-9.252154e-04
7.127323e+01	-9.359331e-04
7.168490e+01	-9.467750e-04
7.209895e+01	-9.577424e-04
7.251539e+01	-9.688369e-04
7.293424e+01	-9.800599e-04
7.335551e+01	-9.914128e-04
7.377920e+01	-1.002897e-03
7.420535e+01	-1.014515e-03
7.463396e+01	-1.026267e-03
7.506504e+01	-1.038155e-03
7.549861e+01	-1.050181e-03
7.593469e+01	-1.062346e-03
7.637328e+01	-1.074652e-03
7.681441e+01	-1.087101e-03
7.725809e+01	-1.099693e-03
7.770433e+01	-1.112432e-03
7.815315e+01	-1.125318e-03
7.860456e+01	-1.138354e-03
7.905857e+01	-1.151540e-03
7.951521e+01	-1.164879e-03
7.997449e+01	-1.178373e-03
8.043642e+01	-1.192023e-03
8.090102e+01	-1.205831e-03
8.136830e+01	-1.219798e-03
8.183828e+01	-1.233928e-03
8.231097e+01	-1.248221e-03
8.278640e+01	-1.262680e-03
8.326457e+01	-1.277307e-03
8.374550e+01	-1.292102e-03
8.422921e+01	-1.307070e-03
8.471572e+01	-1.322210e-03
8.520503e+01	-1.337526e-03
8.569717e+01	-1.353019e-03
8.619215e+01	-1.368692e-03
8.669000e+01	-1.384546e-03
8.719071e+01	-1.400583e-03
8.769432e+01	-1.416807e-03
8.820084e+01	-1.433218e-03
8.871029e+01	-1.449820e-03
8.922267e+01	-1.466614e-03
8.973802e+01	-1.483602e-03
9.025634e+01	-1.500787e-03
9.077766e+01	-1.518171e-03
9.130199e+01	-1.535756e-03
9.182935e+01	-1.553545e-03
9.235975e+01	-1.571540e-03
9.289321e+01	-1.589743e-03
9.342976e+01	-1.608157e-03
9.396941e+01	-1.626785e-03
9.451217e+01	-1.645628e-03
9.505807e+01	-1.664689e-03
9.560712e+01	-1.683972e-03
9.615934e+01	-1.703477e-03
9.671476e+01	-1.723208e-03
9.727338e+01	-1.743168e-03
9.783522e+01	-1.763359e-03
9.840032e+01	-1.783784e-03
9.896867e+01	-1.804445e-03
9.954031e+01	-1.825346e-03
1.001153e+02	-1.846488e-03
1.006935e+02	-1.867876e-03
1.012751e+02	-1.889511e-03
1.018601e+02	-1.911397e-03
1.024484e+02	-1.933536e-03
1.030402e+02	-1.955931e-03
1.036353e+02	-1.978586e-03
1.042339e+02	-2.001503e-03
1.048360e+02	-2.024686e-03
1.054415e+02	-2.048137e-03
1.060505e+02	-2.071859e-03
1.066631e+02	-2.095857e-03
1.072791e+02	-2.120132e-03
1.078988e+02	-2.144688e-03
1.085220e+02	-2.169529e-03
1.091488e+02	-2.194657e-03
1.097793e+02	-2.220076e-03
1.104133e+02	-2.245789e-03
1.110511e+02	-2.271801e-03
1.116925e+02	-2.298113e-03
1.123376e+02	-2.324730e-03
1.129865e+02	-2.351656e-03
1.136391e+02	-2.378893e-03
1.142955e+02	-2.406445e-03
1.149556e+02	-2.434317e-03
1.156196e+02	-2.462511e-03
1.162874e+02	-2.491031e-03
1.169591e+02	-2.519882e-03
1.176347e+02	-2.549067e-03
1.183141e+02	-2.578590e-03
1.189975e+02	-2.608455e-03
1.196848e+02	-2.638665e-03
1.203761e+02	-2.669225e-03
1.210714e+02	-2.700140e-03
1.217707e+02	-2.731412e-03
1.224740e+02	-2.763046e-03
1.231814e+02	-2.795046e-03
1.238929e+02	-2.827417e-03
1.246085e+02	-2.860162e-03
1.253283e+02	-2.893287e-03
1.260522e+02	-2.926795e-03
1.267802e+02	-2.960691e-03
1.275125e+02	-2.994980e-03
1.282490e+02	-3.029665e-03
1.289898e+02	-3.064752e-03
1.297348e+02	-3.100246e-03
1.304842e+02	-3.136150e-03
1.312378e+02	-3.172470e-03
1.319959e+02	-3.209210e-03
1.327583e+02	-3.246376e-03
1.335251e+02	-3.283971e-03
1.342963e+02	-3.322002e-03
1.350720e+02	-3.360474e-03
1.358522e+02	-3.399391e-03
1.366368e+02	-3.438758e-03
1.374260e+02	-3.478581e-03
1.382198e+02	-3.518865e-03
1.390182e+02	-3.559615e-03
1.398211e+02	-3.600837e-03
1.406287e+02	-3.642536e-03
1.414410e+02	-3.684718e-03
1.422579e+02	-3.727388e-03
1.430796e+02	-3.770552e-03
1.439060e+02	-3.814215e-03
1.447372e+02	-3.858384e-03
1.455732e+02	-3.903065e-03
1.464141e+02	-3.948262e-03
1.472597e+02	-3.993983e-03
1.481103e+02	-4.040232e-03
1.489658e+02	-4.087017e-03
1.498262e+02	-4.134344e-03
1.506916e+02	-4.182218e-03
1.515620e+02	-4.230647e-03
1.524374e+02	-4.279636e-03
1.533179e+02	-4.329192e-03
1.542034e+02	-4.379321e-03
1.550941e+02	-4.430031e-03
1.559899e+02	-4.481327e-03
1.568909e+02	-4.533218e-03
1.577971e+02	-4.585708e-03
1.587085e+02	-4.638806e-03
1.596252e+02	-4.692519e-03
1.605472e+02	-4.746853e-03
1.614745e+02	-4.801816e-03
1.624072e+02	-4.857416e-03
1.633453e+02	-4.913658e-03
1.642887e+02	-4.970551e-03
1.652377e+02	-5.028103e-03
1.661921e+02	-5.086321e-03
1.671520e+02	-5.145212e-03
1.681175e+02	-5.204785e-03
1.690885e+02	-5.265047e-03
1.700651e+02	-5.326007e-03
1.710474e+02	-5.387671e-03
1.720354e+02	-5.450050e-03
1.730291e+02	-5.513150e-03
1.740285e+02	-5.576980e-03
1.750337e+02	-5.641549e-03
1.760446e+02	-5.706864e-03
1.770615e+02	-5.772936e-03
1.780842e+02	-5.839772e-03
1.791128e+02	-5.907381e-03
1.801473e+02	-5.975772e-03
1.811878e+02	-6.044955e-03
1.822344e+02	-6.114938e-03
1.832870e+02	-6.185730e-03
1.843456e+02	-6.257342e-03
1.854104e+02	-6.329782e-03
1.864813e+02	-6.403060e-03
1.875584e+02	-6.477185e-03
1.886418e+02	-6.552168e-03
1.897313e+02	-6.628019e-03
1.908272e+02	-6.704747e-03
1.919294e+02	-6.782362e-03
1.930380e+02	-6.860875e-03
1.941530e+02	-6.940296e-03
1.952744e+02	-7.020636e-03
1.964023e+02	-7.101906e-03
1.975367e+02	-7.184115e-03
1.986777e+02	-7.267275e-03
1.998252e+02	-7.351397e-03
2.009794e+02	-7.436491e-03
2.021403e+02	-7.522570e-03
2.033078e+02	-7.609644e-03
2.044821e+02	-7.697726e-03
2.056632e+02	-7.786826e-03
2.068511e+02	-7.876956e-03
2.080459e+02	-7.968129e-03
2.092475e+02	-8.060355e-03
2.104561e+02	-8.153649e-03
2.116717e+02	-8.248021e-03
2.128943e+02	-8.343484e-03
2.141240e+02	-8.440051e-03
2.153608e+02	-8.537735e-03
2.166047e+02	-8.636548e-03
2.178558e+02	-8.736504e-03
2.191141e+02	-8.837615e-03
2.203797e+02	-8.939896e-03
2.216526e+02	-9.043359e-03
2.229329e+02	-9.148017e-03
2.242205e+02	-9.253886e-03
2.255156e+02	-9.360979e-03
2.268182e+02	-9.469310e-03
2.281283e+02	-9.578893e-03
2.294459e+02	-9.689742e-03
2.307712e+02	-9.801874e-03
2.321041e+02	-9.915301e-03
2.334447e+02	-1.003004e-02
2.347931e+02	-1.014610e-02
2.361493e+02	-1.026351e-02
2.375133e+02	-1.038227e-02
2.388851e+02	-1.050241e-02
2.402649e+02	-1.062393e-02
2.416527e+02	-1.074686e-02
2.430484e+02	-1.087121e-02
2.444523e+02	-1.099699e-02
2.458642e+02	-1.112423e-02
2.472843e+02	-1.125294e-02
2.487126e+02	-1.138314e-02
2.501492e+02	-1.151484e-02
2.515940e+02	-1.164806e-02
2.530472e+02	-1.178283e-02
2.545088e+02	-1.191914e-02
2.559789e+02	-1.205704e-02
2.574574e+02	-1.219653e-02
2.589444e+02	-1.233762e-02
2.604401e+02	-1.248035e-02
2.619444e+02	-1.262473e-02
2.634574e+02	-1.277077e-02
2.649791e+02	-1.291851e-02
2.665096e+02	-1.306794e-02
2.680489e+02	-1.321911e-02
2.695972e+02	-1.337202e-02
2.711544e+02	-1.352670e-02
2.727205e+02	-1.368316e-02
2.742958e+02	-1.384143e-02
2.758801e+02	-1.400152e-02
2.774736e+02	-1.416347e-02
2.790762e+02	-1.432729e-02
2.806882e+02	-1.449299e-02
2.823094e+02	-1.466061e-02
2.839400e+02	-1.483017e-02
2.855800e+02	-1.500168e-02
2.872295e+02	-1.517518e-02
2.888886e+02	-1.535067e-02
2.905572e+02	-1.552820e-02
2.922354e+02	-1.570777e-02
2.939234e+02	-1.588941e-02
2.956211e+02	-1.607315e-02
2.973286e+02	-1.625902e-02
2.990459e+02	-1.644702e-02
3.007732e+02	-1.663720e-02
3.025104e+02	-1.682957e-02
3.042577e+02	-1.702416e-02
3.060151e+02	-1.722100e-02
3.077826e+02	-1.742011e-02
3.095604e+02	-1.762151e-02
3.113484e+02	-1.782524e-02
3.131467e+02	-1.803132e-02
3.149554e+02	-1.823978e-02
3.167746e+02	-1.845064e-02
3.186043e+02	-1.866394e-02
3.204445e+02	-1.887969e-02
3.222954e+02	-1.909793e-02
3.241570e+02	-1.931869e-02
3.260293e+02	-1.954200e-02
3.279124e+02	-1.976788e-02
3.298064e+02	-1.999637e-02
3.317114e+02	-2.022749e-02
3.336273e+02	-2.046128e-02
3.355544e+02	-2.069776e-02
3.374925e+02	-2.093697e-02
3.394418e+02	-2.117894e-02
3.414024e+02	-2.142369e-02
3.433744e+02	-2.167127e-02
3.453577e+02	-2.192170e-02
3.473525e+02	-2.217502e-02
3.493588e+02	-2.243126e-02
3.513766e+02	-2.269045e-02
3.534062e+02	-2.295263e-02
3.554474e+02	-2.321782e-02
3.575005e+02	-2.348608e-02
3.595654e+02	-2.375742e-02
3.616422e+02	-2.403190e-02
3.637311e+02	-2.430953e-02
3.658320e+02	-2.459036e-02
3.679450e+02	-2.487443e-02
3.700702e+02	-2.516177e-02
3.722077e+02	-2.545242e-02
3.743576e+02	-2.574641e-02
3.765199e+02	-2.604380e-02
3.786946e+02	-2.634460e-02
3.808820e+02	-2.664887e-02
3.830819e+02	-2.695664e-02
3.852946e+02	-2.726796e-02
3.875200e+02	-2.758286e-02
3.897583e+02	-2.790138e-02
3.920096e+02	-2.822358e-02
3.942738e+02	-2.854948e-02
3.965511e+02	-2.887913e-02
3.988416e+02	-2.921257e-02
4.011452e+02	-2.954985e-02
4.034622e+02	-2.989101e-02
4.057926e+02	-3.023610e-02
4.081365e+02	-3.058515e-02
4.104938e+02	-3.093822e-02
4.128648e+02	-3.129535e-02
4.152495e+02	-3.165659e-02
4.176480e+02	-3.202199e-02
4.200603e+02	-3.239158e-02
4.224866e+02	-3.276543e-02
4.249268e+02	-3.314357e-02
4.273812e+02	-3.352606e-02
4.298497e+02	-3.391295e-02
4.323325e+02	-3.430428e-02
4.348297e+02	-3.470012e-02
4.373412e+02	-3.510050e-02
4.398673e+02	-3.550548e-02
4.424079e+02	-3.591511e-02
4.449633e+02	-3.632945e-02
4.475334e+02	-3.674856e-02
4.501183e+02	-3.717247e-02
4.527182e+02	-3.760125e-02
4.553330e+02	-3.803496e-02
4.579630e+02	-3.847365e-02
4.606082e+02	-3.891737e-02
4.632687e+02	-3.936619e-02
4.659445e+02	-3.982017e-02
4.686358e+02	-4.027935e-02
4.713426e+02	-4.074380e-02
4.740650e+02	-4.121358e-02
4.768032e+02	-4.168876e-02
4.795572e+02	-4.216938e-02
4.823271e+02	-4.265552e-02
4.851130e+02	-4.314724e-02
4.879150e+02	-4.364459e-02
4.907332e+02	-4.414765e-02
4.935676e+02	-4.465648e-02
4.964185e+02	-4.517114e-02
4.992858e+02	-4.569170e-02
5.021696e+02	-4.621822e-02
5.050701e+02	-4.675079e-02
5.079874e+02	-4.728945e-02
5.109215e+02	-4.783429e-02
5.138726e+02	-4.838537e-02
5.168407e+02	-4.894276e-02
5.198259e+02	-4.950654e-02
5.228284e+02	-5.007677e-02
5.258482e+02	-5.065354e-02
5.288855e+02	-5.123690e-02
5.319403e+02	-5.182695e-02
5.350128e+02	-5.242375e-02
5.381030e+02	-5.302738e-02
5.412111e+02	-5.363791e-02
5.443371e+02	-5.425544e-02
5.474812e+02	-5.488002e-02
5.506434e+02	-5.551175e-02
5.538239e+02	-5.615071e-02
5.570228e+02	-5.679697e-02
5.602401e+02	-5.745062e-02
5.634760e+02	-5.811174e-02
5.667306e+02	-5.878042e-02
5.700040e+02	-5.945674e-02
5.732964e+02	-6.014079e-02
5.766077e+02	-6.083265e-02
5.799382e+02	-6.153241e-02
5.832879e+02	-6.224017e-02
5.866569e+02	-6.295601e-02
5.900454e+02	-6.368002e-02
5.934535e+02	-6.441229e-02
5.968813e+02	-6.515293e-02
6.003288e+02	-6.590201e-02
6.037963e+02	-6.665964e-02
6.072838e+02	-6.742591e-02
6.107914e+02	-6.820092e-02
6.143194e+02	-6.898477e-02
6.178676e+02	-6.977755e-02
6.214364e+02	-7.057937e-02
6.250258e+02	-7.139033e-02
6.286359e+02	-7.221053e-02
6.322669e+02	-7.304007e-02
6.359189e+02	-7.387906e-02
6.395919e+02	-7.472761e-02
6.432862e+02	-7.558581e-02
6.470017e+02	-7.645379e-02
6.507388e+02	-7.733164e-02
6.544974e+02	-7.821948e-02
6.582778e+02	-7.911742e-02
6.620800e+02	-8.002558e-02
6.659041e+02	-8.094406e-02
6.697504e+02	-8.187298e-02
6.736188e+02	-8.281246e-02
6.775096e+02	-8.376262e-02
6.814229e+02	-8.472358e-02
6.853587e+02	-8.569544e-02
6.893173e+02	-8.667835e-02
6.932988e+02	-8.767242e-02
6.973033e+02	-8.867776e-02
7.013309e+02	-8.969452e-02
