Frequency(Hz)	Magnitude(dB)
1.000000e+01	-1.678149e-05
1.005776e+01	-1.697591e-05
1.011585e+01	-1.717258e-05
1.017428e+01	-1.737153e-05
1.023305e+01	-1.757278e-05
1.029215e+01	-1.777637e-05
1.035160e+01	-1.798231e-05
1.041139e+01	-1.819064e-05
1.047153e+01	-1.840138e-05
1.053201e+01	-1.861457e-05
1.059284e+01	-1.883022e-05
1.065403e+01	-1.904838e-05
1.071556e+01	-1.926906e-05
1.077746e+01	-1.949229e-05
1.083971e+01	-1.971812e-05
1.090232e+01	-1.994655e-05
1.096529e+01	-2.017764e-05
1.102862e+01	-2.041140e-05
1.109232e+01	-2.064787e-05
1.115639e+01	-2.088709e-05
1.122083e+01	-2.112907e-05
1.128564e+01	-2.137385e-05
1.135083e+01	-2.162148e-05
1.141639e+01	-2.187197e-05
1.148233e+01	-2.212536e-05
1.154865e+01	-2.238169e-05
1.161536e+01	-2.264098e-05
1.168245e+01	-2.290328e-05
1.174992e+01	-2.316862e-05
1.181779e+01	-2.343704e-05
1.188605e+01	-2.370856e-05
1.195470e+01	-2.398323e-05
1.202375e+01	-2.426108e-05
1.209320e+01	-2.454215e-05
1.216305e+01	-2.482648e-05
1.223330e+01	-2.511410e-05
1.230396e+01	-2.540506e-05
1.237503e+01	-2.569938e-05
1.244651e+01	-2.599711e-05
1.251840e+01	-2.629830e-05
1.259070e+01	-2.660297e-05
1.266343e+01	-2.691117e-05
1.273657e+01	-2.722294e-05
1.281014e+01	-2.753833e-05
1.288413e+01	-2.785736e-05
1.295855e+01	-2.818010e-05
1.303339e+01	-2.850657e-05
1.310867e+01	-2.883683e-05
1.318439e+01	-2.917091e-05
1.326054e+01	-2.950886e-05
1.333713e+01	-2.985073e-05
1.341417e+01	-3.019656e-05
1.349165e+01	-3.054639e-05
1.356958e+01	-3.090028e-05
1.364795e+01	-3.125827e-05
1.372678e+01	-3.162040e-05
1.380607e+01	-3.198673e-05
1.388581e+01	-3.235730e-05
1.396602e+01	-3.273217e-05
1.404668e+01	-3.311138e-05
1.412782e+01	-3.349498e-05
1.420942e+01	-3.388303e-05
1.429149e+01	-3.427557e-05
1.437404e+01	-3.467266e-05
1.445706e+01	-3.507436e-05
1.454057e+01	-3.548070e-05
1.462455e+01	-3.589175e-05
1.470902e+01	-3.630757e-05
1.479398e+01	-3.672820e-05
1.487943e+01	-3.715370e-05
1.496537e+01	-3.758414e-05
1.505181e+01	-3.801956e-05
1.513875e+01	-3.846002e-05
1.522619e+01	-3.890559e-05
1.531414e+01	-3.935632e-05
1.540259e+01	-3.981227e-05
1.549156e+01	-4.027351e-05
1.558103e+01	-4.074008e-05
1.567103e+01	-4.121207e-05
1.576155e+01	-4.168952e-05
1.585258e+01	-4.217250e-05
1.594415e+01	-4.266108e-05
1.603624e+01	-4.315532e-05
1.612886e+01	-4.365528e-05
1.622202e+01	-4.416104e-05
1.631572e+01	-4.467265e-05
1.640996e+01	-4.519019e-05
1.650474e+01	-4.571373e-05
1.660008e+01	-4.624334e-05
1.669596e+01	-4.677908e-05
1.679239e+01	-4.732102e-05
1.688938e+01	-4.786925e-05
1.698694e+01	-4.842382e-05
1.708505e+01	-4.898482e-05
1.718373e+01	-4.955232e-05
1.728299e+01	-5.012640e-05
1.738281e+01	-5.070712e-05
1.748322e+01	-5.129457e-05
1.758420e+01	-5.188883e-05
1.768576e+01	-5.248997e-05
1.778792e+01	-5.309808e-05
1.789066e+01	-5.371323e-05
1.799399e+01	-5.433551e-05
1.809793e+01	-5.496500e-05
1.820246e+01	-5.560178e-05
1.830760e+01	-5.624594e-05
1.841334e+01	-5.689756e-05
1.851969e+01	-5.755673e-05
1.862666e+01	-5.822354e-05
1.873425e+01	-5.889807e-05
1.884246e+01	-5.958041e-05
1.895129e+01	-6.027067e-05
1.906075e+01	-6.096891e-05
1.917085e+01	-6.167525e-05
1.928158e+01	-6.238977e-05
1.939295e+01	-6.311257e-05
1.950496e+01	-6.384374e-05
1.961762e+01	-6.458338e-05
1.973093e+01	-6.533159e-05
1.984490e+01	-6.608847e-05
1.995952e+01	-6.685412e-05
2.007480e+01	-6.762864e-05
2.019076e+01	-6.841213e-05
2.030738e+01	-6.920469e-05
2.042467e+01	-7.000644e-05
2.054264e+01	-7.081748e-05
2.066130e+01	-7.163791e-05
2.078064e+01	-7.246785e-05
2.090066e+01	-7.330741e-05
2.102139e+01	-7.415669e-05
2.114280e+01	-7.501580e-05
2.126492e+01	-7.588488e-05
2.138775e+01	-7.676402e-05
2.151128e+01	-7.765334e-05
2.163553e+01	-7.855297e-05
2.176050e+01	-7.946302e-05
2.188619e+01	-8.038361e-05
2.201260e+01	-8.131487e-05
2.213974e+01	-8.225691e-05
2.226762e+01	-8.320987e-05
2.239624e+01	-8.417388e-05
2.252560e+01	-8.514904e-05
2.265571e+01	-8.613551e-05
2.278656e+01	-8.713340e-05
2.291818e+01	-8.814286e-05
2.305055e+01	-8.916401e-05
2.318369e+01	-9.019699e-05
2.331760e+01	-9.124193e-05
2.345228e+01	-9.229898e-05
2.358774e+01	-9.336828e-05
2.372398e+01	-9.444997e-05
2.386101e+01	-9.554419e-05
2.399883e+01	-9.665108e-05
2.413745e+01	-9.777080e-05
2.427686e+01	-9.890349e-05
2.441709e+01	-1.000493e-04
2.455812e+01	-1.012084e-04
2.469997e+01	-1.023809e-04
2.484263e+01	-1.035670e-04
2.498612e+01	-1.047668e-04
2.513044e+01	-1.059806e-04
2.527559e+01	-1.072084e-04
2.542158e+01	-1.084504e-04
2.556842e+01	-1.097068e-04
2.571610e+01	-1.109778e-04
2.586463e+01	-1.122635e-04
2.601403e+01	-1.135641e-04
2.616428e+01	-1.148797e-04
2.631541e+01	-1.162106e-04
2.646740e+01	-1.175569e-04
2.662028e+01	-1.189188e-04
2.677404e+01	-1.202965e-04
2.692868e+01	-1.216902e-04
2.708422e+01	-1.231000e-04
2.724066e+01	-1.245261e-04
2.739800e+01	-1.259687e-04
2.755625e+01	-1.274281e-04
2.771541e+01	-1.289044e-04
2.787550e+01	-1.303977e-04
2.803650e+01	-1.319084e-04
2.819844e+01	-1.334366e-04
2.836131e+01	-1.349825e-04
2.852513e+01	-1.365462e-04
2.868989e+01	-1.381281e-04
2.885560e+01	-1.397284e-04
2.902227e+01	-1.413471e-04
2.918990e+01	-1.429847e-04
2.935850e+01	-1.446411e-04
2.952807e+01	-1.463168e-04
2.969863e+01	-1.480119e-04
2.987016e+01	-1.497266e-04
3.004269e+01	-1.514612e-04
3.021622e+01	-1.532159e-04
3.039075e+01	-1.549909e-04
3.056628e+01	-1.567865e-04
3.074283e+01	-1.586029e-04
3.092040e+01	-1.604403e-04
3.109900e+01	-1.622990e-04
3.127862e+01	-1.641793e-04
3.145929e+01	-1.660813e-04
3.164099e+01	-1.680054e-04
3.182375e+01	-1.699517e-04
3.200756e+01	-1.719206e-04
3.219244e+01	-1.739123e-04
3.237838e+01	-1.759271e-04
3.256540e+01	-1.779652e-04
3.275349e+01	-1.800270e-04
3.294268e+01	-1.821126e-04
3.313295e+01	-1.842224e-04
3.332433e+01	-1.863566e-04
3.351681e+01	-1.885155e-04
3.371040e+01	-1.906995e-04
3.390511e+01	-1.929088e-04
3.410094e+01	-1.951436e-04
3.429791e+01	-1.974044e-04
3.449601e+01	-1.996913e-04
3.469526e+01	-2.020047e-04
3.489566e+01	-2.043449e-04
3.509721e+01	-2.067123e-04
3.529993e+01	-2.091070e-04
3.550382e+01	-2.115295e-04
3.570889e+01	-2.139801e-04
3.591515e+01	-2.164591e-04
3.612259e+01	-2.189667e-04
3.633123e+01	-2.215035e-04
3.654108e+01	-2.240696e-04
3.675214e+01	-2.266654e-04
3.696442e+01	-2.292913e-04
3.717792e+01	-2.319477e-04
3.739266e+01	-2.346348e-04
3.760864e+01	-2.373530e-04
3.782587e+01	-2.401027e-04
3.804435e+01	-2.428843e-04
3.826409e+01	-2.456981e-04
3.848510e+01	-2.485445e-04
3.870739e+01	-2.514239e-04
3.893096e+01	-2.543366e-04
3.915583e+01	-2.572831e-04
3.938199e+01	-2.602637e-04
3.960946e+01	-2.632788e-04
3.983824e+01	-2.663289e-04
4.006834e+01	-2.694143e-04
4.029978e+01	-2.725354e-04
4.053255e+01	-2.756927e-04
4.076666e+01	-2.788866e-04
4.100213e+01	-2.821175e-04
4.123896e+01	-2.853858e-04
4.147715e+01	-2.886919e-04
4.171672e+01	-2.920364e-04
4.195767e+01	-2.954196e-04
4.220002e+01	-2.988420e-04
4.244377e+01	-3.023041e-04
4.268892e+01	-3.058062e-04
4.293549e+01	-3.093489e-04
4.318348e+01	-3.129327e-04
4.343291e+01	-3.165580e-04
4.368377e+01	-3.202253e-04
4.393609e+01	-3.239350e-04
4.418986e+01	-3.276878e-04
4.444510e+01	-3.314840e-04
4.470182e+01	-3.353242e-04
4.496001e+01	-3.392088e-04
4.521970e+01	-3.431385e-04
4.548089e+01	-3.471137e-04
4.574358e+01	-3.511349e-04
4.600779e+01	-3.552028e-04
4.627353e+01	-3.593177e-04
4.654081e+01	-3.634803e-04
4.680963e+01	-3.676912e-04
4.708000e+01	-3.719508e-04
4.735193e+01	-3.762598e-04
4.762543e+01	-3.806187e-04
4.790051e+01	-3.850280e-04
4.817719e+01	-3.894885e-04
4.845545e+01	-3.940006e-04
4.873533e+01	-3.985650e-04
4.901682e+01	-4.031823e-04
4.929994e+01	-4.078530e-04
4.958470e+01	-4.125779e-04
4.987110e+01	-4.173575e-04
5.015915e+01	-4.221925e-04
5.044887e+01	-4.270835e-04
5.074026e+01	-4.320311e-04
5.103333e+01	-4.370360e-04
5.132810e+01	-4.420990e-04
5.162457e+01	-4.472205e-04
5.192275e+01	-4.524014e-04
5.222265e+01	-4.576424e-04
5.252429e+01	-4.629440e-04
5.282767e+01	-4.683070e-04
5.313280e+01	-4.737322e-04
5.343969e+01	-4.792202e-04
5.374836e+01	-4.847718e-04
5.405880e+01	-4.903877e-04
5.437105e+01	-4.960687e-04
5.468509e+01	-5.018154e-04
5.500095e+01	-5.076288e-04
5.531863e+01	-5.135094e-04
5.563815e+01	-5.194582e-04
5.595951e+01	-5.254759e-04
5.628273e+01	-5.315633e-04
5.660782e+01	-5.377213e-04
5.693479e+01	-5.439505e-04
5.726364e+01	-5.502519e-04
5.759439e+01	-5.566264e-04
5.792705e+01	-5.630746e-04
5.826164e+01	-5.695976e-04
5.859815e+01	-5.761961e-04
5.893662e+01	-5.828710e-04
5.927703e+01	-5.896233e-04
5.961941e+01	-5.964537e-04
5.996377e+01	-6.033633e-04
6.031012e+01	-6.103530e-04
6.065847e+01	-6.174236e-04
6.100883e+01	-6.245761e-04
6.136121e+01	-6.318115e-04
6.171563e+01	-6.391306e-04
6.207210e+01	-6.465346e-04
6.243063e+01	-6.540243e-04
6.279122e+01	-6.616008e-04
6.315390e+01	-6.692650e-04
6.351868e+01	-6.770180e-04
6.388556e+01	-6.848608e-04
6.425456e+01	-6.927945e-04
6.462569e+01	-7.008201e-04
6.499897e+01	-7.089386e-04
6.537440e+01	-7.171512e-04
6.575200e+01	-7.254589e-04
6.613178e+01	-7.338628e-04
6.651375e+01	-7.423641e-04
6.689793e+01	-7.509638e-04
6.728433e+01	-7.596632e-04
6.767297e+01	-7.684633e-04
6.806384e+01	-7.773654e-04
6.845698e+01	-7.863706e-04
6.885238e+01	-7.954800e-04
6.925007e+01	-8.046950e-04
6.965005e+01	-8.140168e-04
7.005235e+01	-8.234465e-04
7.045697e+01	-8.329854e-04
7.086393e+01	-8.426349e-04
7.127323e+01	-8.523961e-04
7.168490e+01	-8.622703e-04
7.209895e+01	-8.722590e-04
7.251539e+01	-8.823633e-04
7.293424e+01	-8.925847e-04
7.335551e+01	-9.029244e-04
7.377920e+01	-9.133839e-04
7.420535e+01	-9.239646e-04
7.463396e+01	-9.346679e-04
7.506504e+01	-9.454951e-04
7.549861e+01	-9.564477e-04
7.593469e+01	-9.675271e-04
7.637328e+01	-9.787349e-04
7.681441e+01	-9.900726e-04
7.725809e+01	-1.001542e-03
7.770433e+01	-1.013143e-03
7.815315e+01	-1.024879e-03
7.860456e+01	-1.036752e-03
7.905857e+01	-1.048761e-03
7.951521e+01	-1.060910e-03
7.997449e+01	-1.073199e-03
8.043642e+01	-1.085631e-03
8.090102e+01	-1.098207e-03
8.136830e+01	-1.110928e-03
8.183828e+01	-1.123797e-03
8.231097e+01	-1.136815e-03
8.278640e+01	-1.149983e-03
8.326457e+01	-1.163304e-03
8.374550e+01	-1.176780e-03
8.422921e+01	-1.190411e-03
8.471572e+01	-1.204200e-03
8.520503e+01	-1.218149e-03
8.569717e+01	-1.232260e-03
8.619215e+01	-1.246534e-03
8.669000e+01	-1.260973e-03
8.719071e+01	-1.275580e-03
8.769432e+01	-1.290356e-03
8.820084e+01	-1.305303e-03
8.871029e+01	-1.320423e-03
8.922267e+01	-1.335718e-03
8.973802e+01	-1.351190e-03
9.025634e+01	-1.366841e-03
9.077766e+01	-1.382674e-03
9.130199e+01	-1.398690e-03
9.182935e+01	-1.414892e-03
9.235975e+01	-1.431281e-03
9.289321e+01	-1.447860e-03
9.342976e+01	-1.464631e-03
9.396941e+01	-1.481596e-03
9.451217e+01	-1.498758e-03
9.505807e+01	-1.516118e-03
9.560712e+01	-1.533680e-03
9.615934e+01	-1.551445e-03
9.671476e+01	-1.569415e-03
9.727338e+01	-1.587594e-03
9.783522e+01	-1.605984e-03
9.840032e+01	-1.624586e-03
9.896867e+01	-1.643404e-03
9.954031e+01	-1.662439e-03
1.001153e+02	-1.681695e-03
1.006935e+02	-1.701174e-03
1.012751e+02	-1.720879e-03
1.018601e+02	-1.740812e-03
1.024484e+02	-1.760975e-03
1.030402e+02	-1.781373e-03
1.036353e+02	-1.802006e-03
1.042339e+02	-1.822878e-03
1.048360e+02	-1.843992e-03
1.054415e+02	-1.865351e-03
1.060505e+02	-1.886957e-03
1.066631e+02	-1.908813e-03
1.072791e+02	-1.930922e-03
1.078988e+02	-1.953287e-03
1.085220e+02	-1.975912e-03
1.091488e+02	-1.998798e-03
1.097793e+02	-2.021949e-03
1.104133e+02	-2.045368e-03
1.110511e+02	-2.069059e-03
1.116925e+02	-2.093024e-03
1.123376e+02	-2.117266e-03
1.129865e+02	-2.141789e-03
1.136391e+02	-2.166596e-03
1.142955e+02	-2.191690e-03
1.149556e+02	-2.217075e-03
1.156196e+02	-2.242754e-03
1.162874e+02	-2.268730e-03
1.169591e+02	-2.295007e-03
1.176347e+02	-2.321588e-03
1.183141e+02	-2.348477e-03
1.189975e+02	-2.375677e-03
1.196848e+02	-2.403192e-03
1.203761e+02	-2.431026e-03
1.210714e+02	-2.459182e-03
1.217707e+02	-2.487664e-03
1.224740e+02	-2.516476e-03
1.231814e+02	-2.545622e-03
1.238929e+02	-2.575105e-03
1.246085e+02	-2.604929e-03
1.253283e+02	-2.635099e-03
1.260522e+02	-2.665618e-03
1.267802e+02	-2.696490e-03
1.275125e+02	-2.727720e-03
1.282490e+02	-2.759311e-03
1.289898e+02	-2.791268e-03
1.297348e+02	-2.823595e-03
1.304842e+02	-2.856296e-03
1.312378e+02	-2.889376e-03
1.319959e+02	-2.922839e-03
1.327583e+02	-2.956690e-03
1.335251e+02	-2.990932e-03
1.342963e+02	-3.025570e-03
1.350720e+02	-3.060610e-03
1.358522e+02	-3.096055e-03
1.366368e+02	-3.131911e-03
1.374260e+02	-3.168182e-03
1.382198e+02	-3.204872e-03
1.390182e+02	-3.241988e-03
1.398211e+02	-3.279533e-03
1.406287e+02	-3.317513e-03
1.414410e+02	-3.355932e-03
1.422579e+02	-3.394796e-03
1.430796e+02	-3.434110e-03
1.439060e+02	-3.473879e-03
1.447372e+02	-3.514109e-03
1.455732e+02	-3.554804e-03
1.464141e+02	-3.595970e-03
1.472597e+02	-3.637613e-03
1.481103e+02	-3.679738e-03
1.489658e+02	-3.722350e-03
1.498262e+02	-3.765456e-03
1.506916e+02	-3.809061e-03
1.515620e+02	-3.853170e-03
1.524374e+02	-3.897790e-03
1.533179e+02	-3.942926e-03
1.542034e+02	-3.988585e-03
1.550941e+02	-4.034772e-03
1.559899e+02	-4.081494e-03
1.568909e+02	-4.128757e-03
1.577971e+02	-4.176566e-03
1.587085e+02	-4.224930e-03
1.596252e+02	-4.273852e-03
1.605472e+02	-4.323341e-03
1.614745e+02	-4.373403e-03
1.624072e+02	-4.424044e-03
1.633453e+02	-4.475271e-03
1.642887e+02	-4.527092e-03
1.652377e+02	-4.579511e-03
1.661921e+02	-4.632538e-03
1.671520e+02	-4.686178e-03
1.681175e+02	-4.740439e-03
1.690885e+02	-4.795328e-03
1.700651e+02	-4.850852e-03
1.710474e+02	-4.907018e-03
1.720354e+02	-4.963835e-03
1.730291e+02	-5.021309e-03
1.740285e+02	-5.079448e-03
1.750337e+02	-5.138260e-03
1.760446e+02	-5.197752e-03
1.770615e+02	-5.257933e-03
1.780842e+02	-5.318810e-03
1.791128e+02	-5.380391e-03
1.801473e+02	-5.442685e-03
1.811878e+02	-5.505700e-03
1.822344e+02	-5.569444e-03
1.832870e+02	-5.633926e-03
1.843456e+02	-5.699153e-03
1.854104e+02	-5.765136e-03
1.864813e+02	-5.831881e-03
1.875584e+02	-5.899399e-03
1.886418e+02	-5.967698e-03
1.897313e+02	-6.036787e-03
1.908272e+02	-6.106676e-03
1.919294e+02	-6.177372e-03
1.930380e+02	-6.248887e-03
1.941530e+02	-6.321229e-03
1.952744e+02	-6.394408e-03
1.964023e+02	-6.468434e-03
1.975367e+02	-6.543316e-03
1.986777e+02	-6.619064e-03
1.998252e+02	-6.695688e-03
2.009794e+02	-6.773199e-03
2.021403e+02	-6.851606e-03
2.033078e+02	-6.930920e-03
2.044821e+02	-7.011152e-03
2.056632e+02	-7.092311e-03
2.068511e+02	-7.174409e-03
2.080459e+02	-7.257457e-03
2.092475e+02	-7.341465e-03
2.104561e+02	-7.426445e-03
2.116717e+02	-7.512408e-03
2.128943e+02	-7.599364e-03
2.141240e+02	-7.687327e-03
2.153608e+02	-7.776307e-03
2.166047e+02	-7.866315e-03
2.178558e+02	-7.957365e-03
2.191141e+02	-8.049467e-03
2.203797e+02	-8.142635e-03
2.216526e+02	-8.236879e-03
2.229329e+02	-8.332214e-03
2.242205e+02	-8.428651e-03
2.255156e+02	-8.526203e-03
2.268182e+02	-8.624883e-03
2.281283e+02	-8.724703e-03
2.294459e+02	-8.825678e-03
2.307712e+02	-8.927821e-03
2.321041e+02	-9.031144e-03
2.334447e+02	-9.135661e-03
2.347931e+02	-9.241387e-03
2.361493e+02	-9.348336e-03
2.375133e+02	-9.456520e-03
2.388851e+02	-9.565955e-03
2.402649e+02	-9.676656e-03
2.416527e+02	-9.788635e-03
2.430484e+02	-9.901909e-03
2.444523e+02	-1.001649e-02
2.458642e+02	-1.013240e-02
2.472843e+02	-1.024965e-02
2.487126e+02	-1.036825e-02
2.501492e+02	-1.048822e-02
2.515940e+02	-1.060958e-02
2.530472e+02	-1.073235e-02
2.545088e+02	-1.085653e-02
2.559789e+02	-1.098214e-02
2.574574e+02	-1.110921e-02
2.589444e+02	-1.123775e-02
2.604401e+02	-1.136777e-02
2.619444e+02	-1.149929e-02
2.634574e+02	-1.163233e-02
2.649791e+02	-1.176692e-02
2.665096e+02	-1.190305e-02
2.680489e+02	-1.204076e-02
2.695972e+02	-1.218006e-02
2.711544e+02	-1.232097e-02
2.727205e+02	-1.246350e-02
2.742958e+02	-1.260768e-02
2.758801e+02	-1.275353e-02
2.774736e+02	-1.290107e-02
2.790762e+02	-1.305030e-02
2.806882e+02	-1.320126e-02
2.823094e+02	-1.335397e-02
2.839400e+02	-1.350843e-02
2.855800e+02	-1.366469e-02
2.872295e+02	-1.382274e-02
2.888886e+02	-1.398262e-02
2.905572e+02	-1.414435e-02
2.922354e+02	-1.430795e-02
2.939234e+02	-1.447343e-02
2.956211e+02	-1.464082e-02
2.973286e+02	-1.481015e-02
2.990459e+02	-1.498143e-02
3.007732e+02	-1.515469e-02
3.025104e+02	-1.532995e-02
3.042577e+02	-1.550724e-02
3.060151e+02	-1.568657e-02
3.077826e+02	-1.586797e-02
3.095604e+02	-1.605146e-02
3.113484e+02	-1.623707e-02
3.131467e+02	-1.642483e-02
3.149554e+02	-1.661475e-02
3.167746e+02	-1.680686e-02
3.186043e+02	-1.700119e-02
3.204445e+02	-1.719776e-02
3.222954e+02	-1.739660e-02
3.241570e+02	-1.759773e-02
3.260293e+02	-1.780119e-02
3.279124e+02	-1.800699e-02
3.298064e+02	-1.821517e-02
3.317114e+02	-1.842575e-02
3.336273e+02	-1.863875e-02
3.355544e+02	-1.885422e-02
3.374925e+02	-1.907217e-02
3.394418e+02	-1.929263e-02
3.414024e+02	-1.951564e-02
3.433744e+02	-1.974121e-02
3.453577e+02	-1.996939e-02
3.473525e+02	-2.020020e-02
3.493588e+02	-2.043368e-02
3.513766e+02	-2.066984e-02
3.534062e+02	-2.090873e-02
3.554474e+02	-2.115037e-02
3.575005e+02	-2.139480e-02
3.595654e+02	-2.164204e-02
3.616422e+02	-2.189213e-02
3.637311e+02	-2.214511e-02
3.658320e+02	-2.240100e-02
3.679450e+02	-2.265985e-02
3.700702e+02	-2.292167e-02
3.722077e+02	-2.318651e-02
3.743576e+02	-2.345441e-02
3.765199e+02	-2.372539e-02
3.786946e+02	-2.399949e-02
3.808820e+02	-2.427675e-02
3.830819e+02	-2.455721e-02
3.852946e+02	-2.484089e-02
3.875200e+02	-2.512784e-02
3.897583e+02	-2.541810e-02
3.920096e+02	-2.571170e-02
3.942738e+02	-2.600868e-02
3.965511e+02	-2.630909e-02
3.988416e+02	-2.661295e-02
4.011452e+02	-2.692031e-02
4.034622e+02	-2.723120e-02
4.057926e+02	-2.754568e-02
4.081365e+02	-2.786378e-02
4.104938e+02	-2.818554e-02
4.128648e+02	-2.851100e-02
4.152495e+02	-2.884020e-02
4.176480e+02	-2.917320e-02
4.200603e+02	-2.951003e-02
4.224866e+02	-2.985073e-02
4.249268e+02	-3.019535e-02
4.273812e+02	-3.054394e-02
4.298497e+02	-3.089654e-02
4.323325e+02	-3.125319e-02
4.348297e+02	-3.161394e-02
4.373412e+02	-3.197885e-02
4.398673e+02	-3.234795e-02
4.424079e+02	-3.272129e-02
4.449633e+02	-3.309892e-02
4.475334e+02	-3.348090e-02
4.501183e+02	-3.386727e-02
4.527182e+02	-3.425808e-02
4.553330e+02	-3.465338e-02
4.579630e+02	-3.505322e-02
4.606082e+02	-3.545766e-02
4.632687e+02	-3.586675e-02
4.659445e+02	-3.628053e-02
4.686358e+02	-3.669907e-02
4.713426e+02	-3.712242e-02
4.740650e+02	-3.755063e-02
4.768032e+02	-3.798375e-02
4.795572e+02	-3.842185e-02
4.823271e+02	-3.886498e-02
4.851130e+02	-3.931320e-02
4.879150e+02	-3.976656e-02
4.907332e+02	-4.022513e-02
4.935676e+02	-4.068896e-02
4.964185e+02	-4.115811e-02
4.992858e+02	-4.163265e-02
5.021696e+02	-4.211263e-02
5.050701e+02	-4.259812e-02
5.079874e+02	-4.308918e-02
5.109215e+02	-4.358586e-02
5.138726e+02	-4.408825e-02
5.168407e+02	-4.459640e-02
5.198259e+02	-4.511037e-02
5.228284e+02	-4.563023e-02
5.258482e+02	-4.615605e-02
5.288855e+02	-4.668790e-02
5.319403e+02	-4.722585e-02
5.350128e+02	-4.776996e-02
5.381030e+02	-4.832030e-02
5.412111e+02	-4.887695e-02
5.443371e+02	-4.943997e-02
5.474812e+02	-5.000944e-02
5.506434e+02	-5.058543e-02
5.538239e+02	-5.116802e-02
5.570228e+02	-5.175728e-02
5.602401e+02	-5.235328e-02
5.634760e+02	-5.295610e-02
5.667306e+02	-5.356582e-02
5.700040e+02	-5.418252e-02
5.732964e+02	-5.480627e-02
5.766077e+02	-5.543716e-02
5.799382e+02	-5.607526e-02
5.832879e+02	-5.672066e-02
5.866569e+02	-5.737344e-02
5.900454e+02	-5.803368e-02
5.934535e+02	-5.870146e-02
5.968813e+02	-5.937688e-02
6.003288e+02	-6.006001e-02
6.037963e+02	-6.075095e-02
6.072838e+02	-6.144978e-02
6.107914e+02	-6.215660e-02
6.143194e+02	-6.287148e-02
6.178676e+02	-6.359452e-02
6.214364e+02	-6.432582e-02
6.250258e+02	-6.506547e-02
6.286359e+02	-6.581355e-02
6.322669e+02	-6.657017e-02
6.359189e+02	-6.733542e-02
6.395919e+02	-6.810940e-02
6.432862e+02	-6.889221e-02
6.470017e+02	-6.968393e-02
6.507388e+02	-7.048469e-02
6.544974e+02	-7.129457e-02
6.582778e+02	-7.211367e-02
6.620800e+02	-7.294211e-02
6.659041e+02	-7.377999e-02
6.697504e+02	-7.462740e-02
6.736188e+02	-7.548447e-02
6.775096e+02	-7.635129e-02
6.814229e+02	-7.722797e-02
6.853587e+02	-7.811463e-02
6.893173e+02	-7.901138e-02
6.932988e+02	-7.991833e-02
6.973033e+02	-8.083559e-02
7.013309e+02	-8.176328e-02
