Frequency(Hz)	Magnitude(dB)
1.000000e+01	-2.125048e+00
1.005776e+01	-2.144106e+00
1.011585e+01	-2.163912e+00
1.017428e+01	-2.183432e+00
1.023305e+01	-2.203316e+00
1.029215e+01	-2.223607e+00
1.035160e+01	-2.243480e+00
1.041139e+01	-2.263850e+00
1.047153e+01	-2.284088e+00
1.053201e+01	-2.304834e+00
1.059284e+01	-2.325497e+00
1.065403e+01	-2.346100e+00
1.071556e+01	-2.367054e+00
1.077746e+01	-2.388214e+00
1.083971e+01	-2.409393e+00
1.090232e+01	-2.430989e+00
1.096529e+01	-2.452259e+00
1.102862e+01	-2.474133e+00
1.109232e+01	-2.495507e+00
1.115639e+01	-2.517640e+00
1.122083e+01	-2.539679e+00
1.128564e+01	-2.561968e+00
1.135083e+01	-2.584483e+00
1.141639e+01	-2.607270e+00
1.148233e+01	-2.629638e+00
1.154865e+01	-2.652236e+00
1.161536e+01	-2.675403e+00
1.168245e+01	-2.698502e+00
1.174992e+01	-2.721371e+00
1.181779e+01	-2.744982e+00
1.188605e+01	-2.768531e+00
1.195470e+01	-2.792046e+00
1.202375e+01	-2.815913e+00
1.209320e+01	-2.839638e+00
1.216305e+01	-2.863885e+00
1.223330e+01	-2.888101e+00
1.230396e+01	-2.912580e+00
1.237503e+01	-2.937013e+00
1.244651e+01	-2.961558e+00
1.251840e+01	-2.986620e+00
1.259070e+01	-3.011410e+00
1.266343e+01	-3.036331e+00
1.273657e+01	-3.061584e+00
1.281014e+01	-3.087069e+00
1.288413e+01	-3.112734e+00
1.295855e+01	-3.138199e+00
1.303339e+01	-3.164078e+00
1.310867e+01	-3.190110e+00
1.318439e+01	-3.216247e+00
1.326054e+01	-3.242540e+00
1.333713e+01	-3.269046e+00
1.341417e+01	-3.295382e+00
1.349165e+01	-3.322126e+00
1.356958e+01	-3.348885e+00
1.364795e+01	-3.375863e+00
1.372678e+01	-3.402761e+00
1.380607e+01	-3.430127e+00
1.388581e+01	-3.457622e+00
1.396602e+01	-3.484983e+00
1.404668e+01	-3.512826e+00
1.412782e+01	-3.540570e+00
1.420942e+01	-3.568577e+00
1.429149e+01	-3.596387e+00
1.437404e+01	-3.624888e+00
1.445706e+01	-3.653229e+00
1.454057e+01	-3.681948e+00
1.462455e+01	-3.710354e+00
1.470902e+01	-3.739336e+00
1.479398e+01	-3.768134e+00
1.487943e+01	-3.797312e+00
1.496537e+01	-3.826470e+00
1.505181e+01	-3.855739e+00
1.513875e+01	-3.885289e+00
1.522619e+01	-3.915044e+00
1.531414e+01	-3.944760e+00
1.540259e+01	-3.974698e+00
1.549156e+01	-4.004908e+00
1.558103e+01	-4.035033e+00
1.567103e+01	-4.065462e+00
1.576155e+01	-4.096070e+00
1.585258e+01	-4.126411e+00
1.594415e+01	-4.157390e+00
1.603624e+01	-4.187866e+00
1.612886e+01	-4.218794e+00
1.622202e+01	-4.250169e+00
1.631572e+01	-4.281624e+00
1.640996e+01	-4.312981e+00
1.650474e+01	-4.344443e+00
1.660008e+01	-4.375899e+00
1.669596e+01	-4.408142e+00
1.679239e+01	-4.440031e+00
1.688938e+01	-4.471891e+00
1.698694e+01	-4.504311e+00
1.708505e+01	-4.536830e+00
1.718373e+01	-4.569310e+00
1.728299e+01	-4.601817e+00
1.738281e+01	-4.634793e+00
1.748322e+01	-4.667556e+00
1.758420e+01	-4.700395e+00
1.768576e+01	-4.733638e+00
1.778792e+01	-4.766721e+00
1.789066e+01	-4.800681e+00
1.799399e+01	-4.833752e+00
1.809793e+01	-4.867652e+00
1.820246e+01	-4.901355e+00
1.830760e+01	-4.935231e+00
1.841334e+01	-4.969033e+00
1.851969e+01	-5.003484e+00
1.862666e+01	-5.037505e+00
1.873425e+01	-5.071990e+00
1.884246e+01	-5.106523e+00
1.895129e+01	-5.141115e+00
1.906075e+01	-5.175897e+00
1.917085e+01	-5.210931e+00
1.928158e+01	-5.245980e+00
1.939295e+01	-5.281027e+00
1.950496e+01	-5.316535e+00
1.961762e+01	-5.351693e+00
1.973093e+01	-5.387204e+00
1.984490e+01	-5.422604e+00
1.995952e+01	-5.458558e+00
2.007480e+01	-5.494445e+00
2.019076e+01	-5.530297e+00
2.030738e+01	-5.566529e+00
2.042467e+01	-5.602552e+00
2.054264e+01	-5.638924e+00
2.066130e+01	-5.675508e+00
2.078064e+01	-5.711792e+00
2.090066e+01	-5.748441e+00
2.102139e+01	-5.785148e+00
2.114280e+01	-5.822081e+00
2.126492e+01	-5.859303e+00
2.138775e+01	-5.896181e+00
2.151128e+01	-5.933482e+00
2.163553e+01	-5.970991e+00
2.176050e+01	-6.008179e+00
2.188619e+01	-6.045745e+00
2.201260e+01	-6.083123e+00
2.213974e+01	-6.121002e+00
2.226762e+01	-6.159154e+00
2.239624e+01	-6.196947e+00
2.252560e+01	-6.234955e+00
2.265571e+01	-6.273389e+00
2.278656e+01	-6.311434e+00
2.291818e+01	-6.350060e+00
2.305055e+01	-6.388049e+00
2.318369e+01	-6.427143e+00
2.331760e+01	-6.465605e+00
2.345228e+01	-6.504548e+00
2.358774e+01	-6.543312e+00
2.372398e+01	-6.582022e+00
2.386101e+01	-6.621290e+00
2.399883e+01	-6.660452e+00
2.413745e+01	-6.700292e+00
2.427686e+01	-6.739142e+00
2.441709e+01	-6.778691e+00
2.455812e+01	-6.818253e+00
2.469997e+01	-6.857752e+00
2.484263e+01	-6.897927e+00
2.498612e+01	-6.937616e+00
2.513044e+01	-6.977860e+00
2.527559e+01	-7.017760e+00
2.542158e+01	-7.057494e+00
2.556842e+01	-7.097865e+00
2.571610e+01	-7.138320e+00
2.586463e+01	-7.178270e+00
2.601403e+01	-7.219040e+00
2.616428e+01	-7.259720e+00
2.631541e+01	-7.300044e+00
2.646740e+01	-7.341138e+00
2.662028e+01	-7.382090e+00
2.677404e+01	-7.423109e+00
2.692868e+01	-7.464070e+00
2.708422e+01	-7.504880e+00
2.724066e+01	-7.545860e+00
2.739800e+01	-7.587431e+00
2.755625e+01	-7.629169e+00
2.771541e+01	-7.670292e+00
2.787550e+01	-7.711477e+00
2.803650e+01	-7.753022e+00
2.819844e+01	-7.794983e+00
2.836131e+01	-7.836519e+00
2.852513e+01	-7.878572e+00
2.868989e+01	-7.920390e+00
2.885560e+01	-7.962464e+00
2.902227e+01	-8.004820e+00
2.918990e+01	-8.046608e+00
2.935850e+01	-8.088999e+00
2.952807e+01	-8.131206e+00
2.969863e+01	-8.173533e+00
2.987016e+01	-8.215589e+00
3.004269e+01	-8.258411e+00
3.021622e+01	-8.301211e+00
3.039075e+01	-8.343431e+00
3.056628e+01	-8.386342e+00
3.074283e+01	-8.429035e+00
3.092040e+01	-8.472515e+00
3.109900e+01	-8.514914e+00
3.127862e+01	-8.558068e+00
3.145929e+01	-8.600794e+00
3.164099e+01	-8.643956e+00
3.182375e+01	-8.687827e+00
3.200756e+01	-8.731188e+00
3.219244e+01	-8.774306e+00
3.237838e+01	-8.817594e+00
3.256540e+01	-8.861200e+00
3.275349e+01	-8.904845e+00
3.294268e+01	-8.948554e+00
3.313295e+01	-8.992074e+00
3.332433e+01	-9.035465e+00
3.351681e+01	-9.079699e+00
3.371040e+01	-9.123330e+00
3.390511e+01	-9.167618e+00
3.410094e+01	-9.211441e+00
3.429791e+01	-9.254980e+00
3.449601e+01	-9.299183e+00
3.469526e+01	-9.343232e+00
3.489566e+01	-9.387784e+00
3.509721e+01	-9.432332e+00
3.529993e+01	-9.476412e+00
3.550382e+01	-9.521192e+00
3.570889e+01	-9.565833e+00
3.591515e+01	-9.610090e+00
3.612259e+01	-9.654624e+00
3.633123e+01	-9.699031e+00
3.654108e+01	-9.744160e+00
3.675214e+01	-9.788404e+00
3.696442e+01	-9.833237e+00
3.717792e+01	-9.878600e+00
3.739266e+01	-9.923476e+00
3.760864e+01	-9.967557e+00
3.782587e+01	-1.001354e+01
3.804435e+01	-1.005806e+01
3.826409e+01	-1.010327e+01
3.848510e+01	-1.014848e+01
3.870739e+01	-1.019376e+01
3.893096e+01	-1.023855e+01
3.915583e+01	-1.028468e+01
3.938199e+01	-1.032906e+01
3.960946e+01	-1.037544e+01
3.983824e+01	-1.042074e+01
4.006834e+01	-1.046645e+01
4.029978e+01	-1.051258e+01
4.053255e+01	-1.055624e+01
4.076666e+01	-1.060359e+01
4.100213e+01	-1.064881e+01
4.123896e+01	-1.069496e+01
4.147715e+01	-1.074004e+01
4.171672e+01	-1.078577e+01
4.195767e+01	-1.083200e+01
4.220002e+01	-1.087814e+01
4.244377e+01	-1.092353e+01
4.268892e+01	-1.097014e+01
4.293549e+01	-1.101570e+01
4.318348e+01	-1.106210e+01
4.343291e+01	-1.110808e+01
4.368377e+01	-1.115392e+01
4.393609e+01	-1.120007e+01
4.418986e+01	-1.124680e+01
4.444510e+01	-1.129315e+01
4.470182e+01	-1.133920e+01
4.496001e+01	-1.138526e+01
4.521970e+01	-1.143210e+01
4.548089e+01	-1.147823e+01
4.574358e+01	-1.152494e+01
4.600779e+01	-1.157115e+01
4.627353e+01	-1.161813e+01
4.654081e+01	-1.166438e+01
4.680963e+01	-1.171141e+01
4.708000e+01	-1.175819e+01
4.735193e+01	-1.180513e+01
4.762543e+01	-1.185154e+01
4.790051e+01	-1.189818e+01
4.817719e+01	-1.194550e+01
4.845545e+01	-1.199233e+01
4.873533e+01	-1.203845e+01
4.901682e+01	-1.208591e+01
4.929994e+01	-1.213262e+01
4.958470e+01	-1.217986e+01
4.987110e+01	-1.222623e+01
5.015915e+01	-1.227387e+01
5.044887e+01	-1.232020e+01
5.074026e+01	-1.236773e+01
5.103333e+01	-1.241536e+01
5.132810e+01	-1.246215e+01
5.162457e+01	-1.250929e+01
5.192275e+01	-1.255742e+01
5.222265e+01	-1.260396e+01
5.252429e+01	-1.265099e+01
5.282767e+01	-1.269808e+01
5.313280e+01	-1.274594e+01
5.343969e+01	-1.279278e+01
5.374836e+01	-1.284114e+01
5.405880e+01	-1.288840e+01
5.437105e+01	-1.293525e+01
5.468509e+01	-1.298274e+01
5.500095e+01	-1.303088e+01
5.531863e+01	-1.307818e+01
5.563815e+01	-1.312604e+01
5.595951e+01	-1.317337e+01
5.628273e+01	-1.322165e+01
5.660782e+01	-1.326850e+01
5.693479e+01	-1.331638e+01
5.726364e+01	-1.336407e+01
5.759439e+01	-1.341171e+01
5.792705e+01	-1.345950e+01
5.826164e+01	-1.350632e+01
5.859815e+01	-1.355558e+01
5.893662e+01	-1.360234e+01
5.927703e+01	-1.365015e+01
5.961941e+01	-1.369922e+01
5.996377e+01	-1.374724e+01
6.031012e+01	-1.379484e+01
6.065847e+01	-1.384275e+01
6.100883e+01	-1.389090e+01
6.136121e+01	-1.393823e+01
6.171563e+01	-1.398611e+01
6.207210e+01	-1.403460e+01
6.243063e+01	-1.408208e+01
6.279122e+01	-1.413121e+01
6.315390e+01	-1.417904e+01
6.351868e+01	-1.422703e+01
6.388556e+01	-1.427521e+01
6.425456e+01	-1.432333e+01
6.462569e+01	-1.437177e+01
6.499897e+01	-1.441932e+01
6.537440e+01	-1.446782e+01
6.575200e+01	-1.451554e+01
6.613178e+01	-1.456460e+01
6.651375e+01	-1.461278e+01
6.689793e+01	-1.466108e+01
6.728433e+01	-1.470903e+01
6.767297e+01	-1.475734e+01
6.806384e+01	-1.480624e+01
6.845698e+01	-1.485428e+01
6.885238e+01	-1.490275e+01
6.925007e+01	-1.495162e+01
6.965005e+01	-1.499987e+01
7.005235e+01	-1.504780e+01
7.045697e+01	-1.509705e+01
7.086393e+01	-1.514568e+01
7.127323e+01	-1.519317e+01
7.168490e+01	-1.524205e+01
7.209895e+01	-1.528985e+01
7.251539e+01	-1.533891e+01
7.293424e+01	-1.538772e+01
7.335551e+01	-1.543512e+01
7.377920e+01	-1.548568e+01
7.420535e+01	-1.553356e+01
7.463396e+01	-1.558169e+01
7.506504e+01	-1.563128e+01
7.549861e+01	-1.567966e+01
7.593469e+01	-1.572793e+01
7.637328e+01	-1.577674e+01
7.681441e+01	-1.582610e+01
7.725809e+01	-1.587358e+01
7.770433e+01	-1.592277e+01
7.815315e+01	-1.597211e+01
7.860456e+01	-1.602065e+01
7.905857e+01	-1.606861e+01
7.951521e+01	-1.611821e+01
7.997449e+01	-1.616661e+01
8.043642e+01	-1.621538e+01
8.090102e+01	-1.626432e+01
8.136830e+01	-1.631343e+01
8.183828e+01	-1.636257e+01
8.231097e+01	-1.641063e+01
8.278640e+01	-1.646049e+01
8.326457e+01	-1.650932e+01
8.374550e+01	-1.655740e+01
8.422921e+01	-1.660713e+01
8.471572e+01	-1.665619e+01
8.520503e+01	-1.670450e+01
8.569717e+01	-1.675379e+01
8.619215e+01	-1.680230e+01
8.669000e+01	-1.685157e+01
8.719071e+01	-1.690168e+01
8.769432e+01	-1.695037e+01
8.820084e+01	-1.699835e+01
8.871029e+01	-1.704718e+01
8.922267e+01	-1.709588e+01
8.973802e+01	-1.714584e+01
9.025634e+01	-1.719499e+01
9.077766e+01	-1.724332e+01
9.130199e+01	-1.729381e+01
9.182935e+01	-1.734197e+01
9.235975e+01	-1.739062e+01
9.289321e+01	-1.744053e+01
9.342976e+01	-1.748917e+01
9.396941e+01	-1.753835e+01
9.451217e+01	-1.758739e+01
9.505807e+01	-1.763672e+01
9.560712e+01	-1.768634e+01
9.615934e+01	-1.773557e+01
9.671476e+01	-1.778557e+01
9.727338e+01	-1.783268e+01
9.783522e+01	-1.788219e+01
9.840032e+01	-1.793296e+01
9.896867e+01	-1.798097e+01
9.954031e+01	-1.803016e+01
1.001153e+02	-1.807942e+01
1.006935e+02	-1.812884e+01
1.012751e+02	-1.818004e+01
1.018601e+02	-1.822769e+01
1.024484e+02	-1.827738e+01
1.030402e+02	-1.832770e+01
1.036353e+02	-1.837599e+01
1.042339e+02	-1.842494e+01
1.048360e+02	-1.847417e+01
1.054415e+02	-1.852388e+01
1.060505e+02	-1.857395e+01
1.066631e+02	-1.862298e+01
1.072791e+02	-1.867157e+01
1.078988e+02	-1.872177e+01
1.085220e+02	-1.876863e+01
1.091488e+02	-1.881978e+01
1.097793e+02	-1.886886e+01
1.104133e+02	-1.891831e+01
1.110511e+02	-1.896947e+01
1.116925e+02	-1.901828e+01
1.123376e+02	-1.906634e+01
1.129865e+02	-1.911608e+01
1.136391e+02	-1.916548e+01
1.142955e+02	-1.921456e+01
1.149556e+02	-1.926387e+01
1.156196e+02	-1.931331e+01
1.162874e+02	-1.936350e+01
1.169591e+02	-1.941335e+01
1.176347e+02	-1.946141e+01
1.183141e+02	-1.951071e+01
1.189975e+02	-1.956106e+01
1.196848e+02	-1.961202e+01
1.203761e+02	-1.965815e+01
1.210714e+02	-1.970903e+01
1.217707e+02	-1.975881e+01
1.224740e+02	-1.980850e+01
1.231814e+02	-1.985762e+01
1.238929e+02	-1.990854e+01
1.246085e+02	-1.995514e+01
1.253283e+02	-2.000754e+01
1.260522e+02	-2.005569e+01
1.267802e+02	-2.010528e+01
1.275125e+02	-2.015715e+01
1.282490e+02	-2.020521e+01
1.289898e+02	-2.025410e+01
1.297348e+02	-2.030470e+01
1.304842e+02	-2.035337e+01
1.312378e+02	-2.040368e+01
1.319959e+02	-2.045251e+01
1.327583e+02	-2.050224e+01
1.335251e+02	-2.055274e+01
1.342963e+02	-2.060246e+01
1.350720e+02	-2.065128e+01
1.358522e+02	-2.070057e+01
1.366368e+02	-2.075226e+01
1.374260e+02	-2.080047e+01
1.382198e+02	-2.084956e+01
1.390182e+02	-2.089991e+01
1.398211e+02	-2.094776e+01
1.406287e+02	-2.099828e+01
1.414410e+02	-2.104791e+01
1.422579e+02	-2.109999e+01
1.430796e+02	-2.114702e+01
1.439060e+02	-2.119697e+01
1.447372e+02	-2.124593e+01
1.455732e+02	-2.129626e+01
1.464141e+02	-2.134694e+01
1.472597e+02	-2.139439e+01
1.481103e+02	-2.144701e+01
1.489658e+02	-2.149542e+01
1.498262e+02	-2.154532e+01
1.506916e+02	-2.159435e+01
1.515620e+02	-2.164451e+01
1.524374e+02	-2.169499e+01
1.533179e+02	-2.174276e+01
1.542034e+02	-2.179287e+01
1.550941e+02	-2.184499e+01
1.559899e+02	-2.189100e+01
1.568909e+02	-2.194481e+01
1.577971e+02	-2.199335e+01
1.587085e+02	-2.204134e+01
1.596252e+02	-2.209128e+01
1.605472e+02	-2.214090e+01
1.614745e+02	-2.219082e+01
1.624072e+02	-2.224035e+01
1.633453e+02	-2.229182e+01
1.642887e+02	-2.233982e+01
1.652377e+02	-2.238791e+01
1.661921e+02	-2.244013e+01
1.671520e+02	-2.249051e+01
1.681175e+02	-2.254030e+01
1.690885e+02	-2.258890e+01
1.700651e+02	-2.263826e+01
1.710474e+02	-2.268779e+01
1.720354e+02	-2.273872e+01
1.730291e+02	-2.278787e+01
1.740285e+02	-2.283897e+01
1.750337e+02	-2.288728e+01
1.760446e+02	-2.293747e+01
1.770615e+02	-2.298894e+01
1.780842e+02	-2.303680e+01
1.791128e+02	-2.308700e+01
1.801473e+02	-2.313897e+01
1.811878e+02	-2.319039e+01
1.822344e+02	-2.323662e+01
1.832870e+02	-2.328538e+01
1.843456e+02	-2.333646e+01
1.854104e+02	-2.338708e+01
1.864813e+02	-2.343422e+01
1.875584e+02	-2.348570e+01
1.886418e+02	-2.353646e+01
1.897313e+02	-2.358503e+01
1.908272e+02	-2.363513e+01
1.919294e+02	-2.368415e+01
1.930380e+02	-2.373554e+01
1.941530e+02	-2.378485e+01
1.952744e+02	-2.383477e+01
1.964023e+02	-2.388245e+01
1.975367e+02	-2.393494e+01
1.986777e+02	-2.398356e+01
1.998252e+02	-2.403462e+01
2.009794e+02	-2.408359e+01
2.021403e+02	-2.413256e+01
2.033078e+02	-2.418337e+01
2.044821e+02	-2.423288e+01
2.056632e+02	-2.428254e+01
2.068511e+02	-2.433247e+01
2.080459e+02	-2.438351e+01
2.092475e+02	-2.443269e+01
2.104561e+02	-2.448190e+01
2.116717e+02	-2.452855e+01
2.128943e+02	-2.458528e+01
2.141240e+02	-2.463153e+01
2.153608e+02	-2.468066e+01
2.166047e+02	-2.473467e+01
2.178558e+02	-2.477999e+01
2.191141e+02	-2.482992e+01
2.203797e+02	-2.487968e+01
2.216526e+02	-2.493296e+01
2.229329e+02	-2.498199e+01
2.242205e+02	-2.503137e+01
2.255156e+02	-2.507875e+01
2.268182e+02	-2.512925e+01
2.281283e+02	-2.518123e+01
2.294459e+02	-2.522751e+01
2.307712e+02	-2.528017e+01
2.321041e+02	-2.533294e+01
2.334447e+02	-2.537967e+01
2.347931e+02	-2.543370e+01
2.361493e+02	-2.548462e+01
2.375133e+02	-2.552975e+01
2.388851e+02	-2.557783e+01
2.402649e+02	-2.563238e+01
2.416527e+02	-2.567745e+01
2.430484e+02	-2.572828e+01
2.444523e+02	-2.578202e+01
2.458642e+02	-2.582786e+01
2.472843e+02	-2.588108e+01
2.487126e+02	-2.593135e+01
2.501492e+02	-2.598025e+01
2.515940e+02	-2.603115e+01
2.530472e+02	-2.607723e+01
2.545088e+02	-2.612873e+01
2.559789e+02	-2.617764e+01
2.574574e+02	-2.622877e+01
2.589444e+02	-2.628121e+01
2.604401e+02	-2.633173e+01
2.619444e+02	-2.637934e+01
2.634574e+02	-2.642844e+01
2.649791e+02	-2.648080e+01
2.665096e+02	-2.652880e+01
2.680489e+02	-2.658036e+01
2.695972e+02	-2.663001e+01
2.711544e+02	-2.668092e+01
2.727205e+02	-2.673060e+01
2.742958e+02	-2.677749e+01
2.758801e+02	-2.683160e+01
2.774736e+02	-2.688012e+01
2.790762e+02	-2.692965e+01
2.806882e+02	-2.697837e+01
2.823094e+02	-2.702943e+01
2.839400e+02	-2.707884e+01
2.855800e+02	-2.712884e+01
2.872295e+02	-2.717874e+01
2.888886e+02	-2.723144e+01
2.905572e+02	-2.727603e+01
2.922354e+02	-2.733273e+01
2.939234e+02	-2.737920e+01
2.956211e+02	-2.743297e+01
2.973286e+02	-2.748171e+01
2.990459e+02	-2.752528e+01
3.007732e+02	-2.758222e+01
3.025104e+02	-2.763046e+01
3.042577e+02	-2.767800e+01
3.060151e+02	-2.772499e+01
3.077826e+02	-2.778218e+01
3.095604e+02	-2.783037e+01
3.113484e+02	-2.787751e+01
3.131467e+02	-2.792929e+01
3.149554e+02	-2.797858e+01
3.167746e+02	-2.803076e+01
3.186043e+02	-2.808238e+01
3.204445e+02	-2.812984e+01
3.222954e+02	-2.817720e+01
3.241570e+02	-2.823208e+01
3.260293e+02	-2.828018e+01
3.279124e+02	-2.833330e+01
3.298064e+02	-2.837985e+01
3.317114e+02	-2.842810e+01
3.336273e+02	-2.847780e+01
3.355544e+02	-2.853210e+01
3.374925e+02	-2.858012e+01
3.394418e+02	-2.862759e+01
3.414024e+02	-2.867755e+01
3.433744e+02	-2.873201e+01
3.453577e+02	-2.878105e+01
3.473525e+02	-2.883356e+01
3.493588e+02	-2.887673e+01
3.513766e+02	-2.892703e+01
3.534062e+02	-2.897643e+01
3.554474e+02	-2.902511e+01
3.575005e+02	-2.908229e+01
3.595654e+02	-2.912913e+01
3.616422e+02	-2.918069e+01
3.637311e+02	-2.923122e+01
3.658320e+02	-2.928308e+01
3.679450e+02	-2.932962e+01
3.700702e+02	-2.937950e+01
3.722077e+02	-2.942948e+01
3.743576e+02	-2.947679e+01
3.765199e+02	-2.952697e+01
3.786946e+02	-2.958473e+01
3.808820e+02	-2.963492e+01
3.830819e+02	-2.967748e+01
3.852946e+02	-2.972595e+01
3.875200e+02	-2.978403e+01
3.897583e+02	-2.983111e+01
3.920096e+02	-2.988209e+01
3.942738e+02	-2.993301e+01
3.965511e+02	-2.997664e+01
3.988416e+02	-3.003613e+01
4.011452e+02	-3.008386e+01
4.034622e+02	-3.013134e+01
4.057926e+02	-3.018150e+01
4.081365e+02	-3.023052e+01
4.104938e+02	-3.027993e+01
4.128648e+02	-3.033311e+01
4.152495e+02	-3.038457e+01
4.176480e+02	-3.043559e+01
4.200603e+02	-3.048075e+01
4.224866e+02	-3.053357e+01
4.249268e+02	-3.058384e+01
4.273812e+02	-3.063134e+01
4.298497e+02	-3.068822e+01
4.323325e+02	-3.073289e+01
4.348297e+02	-3.078482e+01
4.373412e+02	-3.083828e+01
4.398673e+02	-3.087832e+01
4.424079e+02	-3.093834e+01
4.449633e+02	-3.098506e+01
4.475334e+02	-3.103476e+01
4.501183e+02	-3.107572e+01
4.527182e+02	-3.113828e+01
4.553330e+02	-3.117926e+01
4.579630e+02	-3.123549e+01
4.606082e+02	-3.128090e+01
4.632687e+02	-3.133231e+01
4.659445e+02	-3.138536e+01
4.686358e+02	-3.143920e+01
4.713426e+02	-3.148329e+01
4.740650e+02	-3.153349e+01
4.768032e+02	-3.158658e+01
4.795572e+02	-3.163374e+01
4.823271e+02	-3.168068e+01
4.851130e+02	-3.173546e+01
4.879150e+02	-3.178980e+01
4.907332e+02	-3.183651e+01
4.935676e+02	-3.188365e+01
4.964185e+02	-3.193129e+01
4.992858e+02	-3.198656e+01
5.021696e+02	-3.203561e+01
5.050701e+02	-3.208660e+01
5.079874e+02	-3.213848e+01
5.109215e+02	-3.218961e+01
5.138726e+02	-3.223825e+01
5.168407e+02	-3.229202e+01
5.198259e+02	-3.233560e+01
5.228284e+02	-3.238540e+01
5.258482e+02	-3.243691e+01
5.288855e+02	-3.248932e+01
5.319403e+02	-3.254064e+01
5.350128e+02	-3.259415e+01
5.381030e+02	-3.263902e+01
5.412111e+02	-3.269124e+01
5.443371e+02	-3.274184e+01
5.474812e+02	-3.279037e+01
5.506434e+02	-3.284009e+01
5.538239e+02	-3.289212e+01
5.570228e+02	-3.293736e+01
5.602401e+02	-3.299396e+01
5.634760e+02	-3.304905e+01
5.667306e+02	-3.309527e+01
5.700040e+02	-3.314340e+01
5.732964e+02	-3.319522e+01
5.766077e+02	-3.324378e+01
5.799382e+02	-3.329196e+01
5.832879e+02	-3.334516e+01
5.866569e+02	-3.339979e+01
5.900454e+02	-3.345404e+01
5.934535e+02	-3.349357e+01
5.968813e+02	-3.353062e+01
6.003288e+02	-3.359528e+01
6.037963e+02	-3.364845e+01
6.072838e+02	-3.369031e+01
6.107914e+02	-3.374051e+01
6.143194e+02	-3.379352e+01
6.178676e+02	-3.384343e+01
6.214364e+02	-3.389354e+01
6.250258e+02	-3.394717e+01
6.286359e+02	-3.400308e+01
6.322669e+02	-3.404770e+01
6.359189e+02	-3.410298e+01
6.395919e+02	-3.414413e+01
6.432862e+02	-3.419973e+01
6.470017e+02	-3.424792e+01
6.507388e+02	-3.429437e+01
6.544974e+02	-3.435145e+01
6.582778e+02	-3.440209e+01
6.620800e+02	-3.445230e+01
6.659041e+02	-3.450088e+01
6.697504e+02	-3.455781e+01
6.736188e+02	-3.459778e+01
6.775096e+02	-3.465371e+01
6.814229e+02	-3.469968e+01
6.853587e+02	-3.475087e+01
6.893173e+02	-3.480461e+01
6.932988e+02	-3.484952e+01
6.973033e+02	-3.488813e+01
7.013309e+02	-3.495698e+01
