Frequency(Hz)	Magnitude(dB)
1.000000e+01	-2.236657e+00
1.005776e+01	-2.256931e+00
1.011585e+01	-2.277078e+00
1.017428e+01	-2.297670e+00
1.023305e+01	-2.318289e+00
1.029215e+01	-2.338931e+00
1.035160e+01	-2.359887e+00
1.041139e+01	-2.381028e+00
1.047153e+01	-2.401989e+00
1.053201e+01	-2.423412e+00
1.059284e+01	-2.444915e+00
1.065403e+01	-2.466460e+00
1.071556e+01	-2.488358e+00
1.077746e+01	-2.510087e+00
1.083971e+01	-2.532226e+00
1.090232e+01	-2.554528e+00
1.096529e+01	-2.576608e+00
1.102862e+01	-2.599015e+00
1.109232e+01	-2.621688e+00
1.115639e+01	-2.644480e+00
1.122083e+01	-2.667385e+00
1.128564e+01	-2.690403e+00
1.135083e+01	-2.713455e+00
1.141639e+01	-2.736859e+00
1.148233e+01	-2.760434e+00
1.154865e+01	-2.784005e+00
1.161536e+01	-2.807885e+00
1.168245e+01	-2.831545e+00
1.174992e+01	-2.855491e+00
1.181779e+01	-2.879699e+00
1.188605e+01	-2.904350e+00
1.195470e+01	-2.928601e+00
1.202375e+01	-2.953008e+00
1.209320e+01	-2.977842e+00
1.216305e+01	-3.002793e+00
1.223330e+01	-3.027788e+00
1.230396e+01	-3.053042e+00
1.237503e+01	-3.078469e+00
1.244651e+01	-3.103786e+00
1.251840e+01	-3.129308e+00
1.259070e+01	-3.155245e+00
1.266343e+01	-3.181182e+00
1.273657e+01	-3.207201e+00
1.281014e+01	-3.233370e+00
1.288413e+01	-3.259825e+00
1.295855e+01	-3.286071e+00
1.303339e+01	-3.312805e+00
1.310867e+01	-3.339516e+00
1.318439e+01	-3.366391e+00
1.326054e+01	-3.393631e+00
1.333713e+01	-3.420587e+00
1.341417e+01	-3.448076e+00
1.349165e+01	-3.475583e+00
1.356958e+01	-3.503252e+00
1.364795e+01	-3.531214e+00
1.372678e+01	-3.558802e+00
1.380607e+01	-3.586829e+00
1.388581e+01	-3.615106e+00
1.396602e+01	-3.643420e+00
1.404668e+01	-3.671692e+00
1.412782e+01	-3.700711e+00
1.420942e+01	-3.729648e+00
1.429149e+01	-3.758136e+00
1.437404e+01	-3.786980e+00
1.445706e+01	-3.816547e+00
1.454057e+01	-3.845558e+00
1.462455e+01	-3.875295e+00
1.470902e+01	-3.905023e+00
1.479398e+01	-3.934519e+00
1.487943e+01	-3.964403e+00
1.496537e+01	-3.994448e+00
1.505181e+01	-4.024634e+00
1.513875e+01	-4.054778e+00
1.522619e+01	-4.085392e+00
1.531414e+01	-4.115569e+00
1.540259e+01	-4.146437e+00
1.549156e+01	-4.177466e+00
1.558103e+01	-4.208597e+00
1.567103e+01	-4.239342e+00
1.576155e+01	-4.270718e+00
1.585258e+01	-4.302207e+00
1.594415e+01	-4.333787e+00
1.603624e+01	-4.365210e+00
1.612886e+01	-4.396833e+00
1.622202e+01	-4.428949e+00
1.631572e+01	-4.461084e+00
1.640996e+01	-4.493044e+00
1.650474e+01	-4.525526e+00
1.660008e+01	-4.558125e+00
1.669596e+01	-4.590346e+00
1.679239e+01	-4.623465e+00
1.688938e+01	-4.656190e+00
1.698694e+01	-4.689139e+00
1.708505e+01	-4.722489e+00
1.718373e+01	-4.755378e+00
1.728299e+01	-4.788845e+00
1.738281e+01	-4.822684e+00
1.748322e+01	-4.855929e+00
1.758420e+01	-4.889845e+00
1.768576e+01	-4.923459e+00
1.778792e+01	-4.957384e+00
1.789066e+01	-4.991550e+00
1.799399e+01	-5.025818e+00
1.809793e+01	-5.060180e+00
1.820246e+01	-5.094781e+00
1.830760e+01	-5.129424e+00
1.841334e+01	-5.163931e+00
1.851969e+01	-5.198692e+00
1.862666e+01	-5.233624e+00
1.873425e+01	-5.268737e+00
1.884246e+01	-5.303984e+00
1.895129e+01	-5.339684e+00
1.906075e+01	-5.374915e+00
1.917085e+01	-5.410573e+00
1.928158e+01	-5.446150e+00
1.939295e+01	-5.482135e+00
1.950496e+01	-5.518031e+00
1.961762e+01	-5.553646e+00
1.973093e+01	-5.590179e+00
1.984490e+01	-5.626249e+00
1.995952e+01	-5.662907e+00
2.007480e+01	-5.699347e+00
2.019076e+01	-5.735932e+00
2.030738e+01	-5.772705e+00
2.042467e+01	-5.809638e+00
2.054264e+01	-5.846441e+00
2.066130e+01	-5.883575e+00
2.078064e+01	-5.920623e+00
2.090066e+01	-5.957789e+00
2.102139e+01	-5.995371e+00
2.114280e+01	-6.032794e+00
2.126492e+01	-6.070468e+00
2.138775e+01	-6.108234e+00
2.151128e+01	-6.146065e+00
2.163553e+01	-6.183845e+00
2.176050e+01	-6.222201e+00
2.188619e+01	-6.260154e+00
2.201260e+01	-6.298390e+00
2.213974e+01	-6.336613e+00
2.226762e+01	-6.375025e+00
2.239624e+01	-6.413929e+00
2.252560e+01	-6.452478e+00
2.265571e+01	-6.490975e+00
2.278656e+01	-6.529780e+00
2.291818e+01	-6.569106e+00
2.305055e+01	-6.607901e+00
2.318369e+01	-6.646992e+00
2.331760e+01	-6.686333e+00
2.345228e+01	-6.725684e+00
2.358774e+01	-6.765209e+00
2.372398e+01	-6.804819e+00
2.386101e+01	-6.843979e+00
2.399883e+01	-6.883583e+00
2.413745e+01	-6.923790e+00
2.427686e+01	-6.963743e+00
2.441709e+01	-7.003759e+00
2.455812e+01	-7.043983e+00
2.469997e+01	-7.083887e+00
2.484263e+01	-7.124032e+00
2.498612e+01	-7.164914e+00
2.513044e+01	-7.205136e+00
2.527559e+01	-7.245583e+00
2.542158e+01	-7.285805e+00
2.556842e+01	-7.327250e+00
2.571610e+01	-7.368203e+00
2.586463e+01	-7.408375e+00
2.601403e+01	-7.449662e+00
2.616428e+01	-7.490809e+00
2.631541e+01	-7.531899e+00
2.646740e+01	-7.572874e+00
2.662028e+01	-7.614304e+00
2.677404e+01	-7.655621e+00
2.692868e+01	-7.697608e+00
2.708422e+01	-7.739086e+00
2.724066e+01	-7.780393e+00
2.739800e+01	-7.822365e+00
2.755625e+01	-7.864089e+00
2.771541e+01	-7.905909e+00
2.787550e+01	-7.947909e+00
2.803650e+01	-7.990158e+00
2.819844e+01	-8.031522e+00
2.836131e+01	-8.074145e+00
2.852513e+01	-8.116947e+00
2.868989e+01	-8.159103e+00
2.885560e+01	-8.201669e+00
2.902227e+01	-8.243701e+00
2.918990e+01	-8.286531e+00
2.935850e+01	-8.328956e+00
2.952807e+01	-8.371655e+00
2.969863e+01	-8.414558e+00
2.987016e+01	-8.457420e+00
3.004269e+01	-8.499826e+00
3.021622e+01	-8.543410e+00
3.039075e+01	-8.586009e+00
3.056628e+01	-8.629495e+00
3.074283e+01	-8.672568e+00
3.092040e+01	-8.715888e+00
3.109900e+01	-8.759457e+00
3.127862e+01	-8.802807e+00
3.145929e+01	-8.846255e+00
3.164099e+01	-8.889606e+00
3.182375e+01	-8.933449e+00
3.200756e+01	-8.976460e+00
3.219244e+01	-9.020287e+00
3.237838e+01	-9.063961e+00
3.256540e+01	-9.108404e+00
3.275349e+01	-9.152129e+00
3.294268e+01	-9.196375e+00
3.313295e+01	-9.240262e+00
3.332433e+01	-9.284308e+00
3.351681e+01	-9.328616e+00
3.371040e+01	-9.372635e+00
3.390511e+01	-9.416769e+00
3.410094e+01	-9.461255e+00
3.429791e+01	-9.505689e+00
3.449601e+01	-9.550171e+00
3.469526e+01	-9.594999e+00
3.489566e+01	-9.639265e+00
3.509721e+01	-9.683454e+00
3.529993e+01	-9.729109e+00
3.550382e+01	-9.773286e+00
3.570889e+01	-9.818282e+00
3.591515e+01	-9.863229e+00
3.612259e+01	-9.907623e+00
3.633123e+01	-9.953650e+00
3.654108e+01	-9.997901e+00
3.675214e+01	-1.004310e+01
3.696442e+01	-1.008776e+01
3.717792e+01	-1.013288e+01
3.739266e+01	-1.017846e+01
3.760864e+01	-1.022358e+01
3.782587e+01	-1.026853e+01
3.804435e+01	-1.031454e+01
3.826409e+01	-1.035939e+01
3.848510e+01	-1.040519e+01
3.870739e+01	-1.045051e+01
3.893096e+01	-1.049630e+01
3.915583e+01	-1.054136e+01
3.938199e+01	-1.058725e+01
3.960946e+01	-1.063260e+01
3.983824e+01	-1.067845e+01
4.006834e+01	-1.072457e+01
4.029978e+01	-1.076983e+01
4.053255e+01	-1.081649e+01
4.076666e+01	-1.086270e+01
4.100213e+01	-1.090783e+01
4.123896e+01	-1.095352e+01
4.147715e+01	-1.099976e+01
4.171672e+01	-1.104646e+01
4.195767e+01	-1.109241e+01
4.220002e+01	-1.113797e+01
4.244377e+01	-1.118513e+01
4.268892e+01	-1.123054e+01
4.293549e+01	-1.127732e+01
4.318348e+01	-1.132272e+01
4.343291e+01	-1.136886e+01
4.368377e+01	-1.141607e+01
4.393609e+01	-1.146234e+01
4.418986e+01	-1.150920e+01
4.444510e+01	-1.155564e+01
4.470182e+01	-1.160223e+01
4.496001e+01	-1.164753e+01
4.521970e+01	-1.169563e+01
4.548089e+01	-1.174187e+01
4.574358e+01	-1.178852e+01
4.600779e+01	-1.183572e+01
4.627353e+01	-1.188185e+01
4.654081e+01	-1.192891e+01
4.680963e+01	-1.197552e+01
4.708000e+01	-1.202255e+01
4.735193e+01	-1.206944e+01
4.762543e+01	-1.211593e+01
4.790051e+01	-1.216354e+01
4.817719e+01	-1.221026e+01
4.845545e+01	-1.225714e+01
4.873533e+01	-1.230416e+01
4.901682e+01	-1.235152e+01
4.929994e+01	-1.239892e+01
4.958470e+01	-1.244562e+01
4.987110e+01	-1.249361e+01
5.015915e+01	-1.254098e+01
5.044887e+01	-1.258703e+01
5.074026e+01	-1.263494e+01
5.103333e+01	-1.268206e+01
5.132810e+01	-1.272961e+01
5.162457e+01	-1.277735e+01
5.192275e+01	-1.282433e+01
5.222265e+01	-1.287196e+01
5.252429e+01	-1.291877e+01
5.282767e+01	-1.296659e+01
5.313280e+01	-1.301504e+01
5.343969e+01	-1.306179e+01
5.374836e+01	-1.311027e+01
5.405880e+01	-1.315701e+01
5.437105e+01	-1.320406e+01
5.468509e+01	-1.325237e+01
5.500095e+01	-1.329939e+01
5.531863e+01	-1.334804e+01
5.563815e+01	-1.339560e+01
5.595951e+01	-1.344309e+01
5.628273e+01	-1.349081e+01
5.660782e+01	-1.353781e+01
5.693479e+01	-1.358616e+01
5.726364e+01	-1.363467e+01
5.759439e+01	-1.368153e+01
5.792705e+01	-1.373011e+01
5.826164e+01	-1.377783e+01
5.859815e+01	-1.382584e+01
5.893662e+01	-1.387352e+01
5.927703e+01	-1.392144e+01
5.961941e+01	-1.396984e+01
5.996377e+01	-1.401772e+01
6.031012e+01	-1.406508e+01
6.065847e+01	-1.411344e+01
6.100883e+01	-1.416255e+01
6.136121e+01	-1.421086e+01
6.171563e+01	-1.425817e+01
6.207210e+01	-1.430676e+01
6.243063e+01	-1.435477e+01
6.279122e+01	-1.440357e+01
6.315390e+01	-1.445110e+01
6.351868e+01	-1.449932e+01
6.388556e+01	-1.454781e+01
6.425456e+01	-1.459612e+01
6.462569e+01	-1.464450e+01
6.499897e+01	-1.469341e+01
6.537440e+01	-1.474123e+01
6.575200e+01	-1.478978e+01
6.613178e+01	-1.483793e+01
6.651375e+01	-1.488590e+01
6.689793e+01	-1.493533e+01
6.728433e+01	-1.498297e+01
6.767297e+01	-1.503085e+01
6.806384e+01	-1.507980e+01
6.845698e+01	-1.512849e+01
6.885238e+01	-1.517660e+01
6.925007e+01	-1.522600e+01
6.965005e+01	-1.527361e+01
7.005235e+01	-1.532251e+01
7.045697e+01	-1.537126e+01
7.086393e+01	-1.542014e+01
7.127323e+01	-1.546898e+01
7.168490e+01	-1.551635e+01
7.209895e+01	-1.556544e+01
7.251539e+01	-1.561324e+01
7.293424e+01	-1.566305e+01
7.335551e+01	-1.571125e+01
7.377920e+01	-1.575913e+01
7.420535e+01	-1.580936e+01
7.463396e+01	-1.585765e+01
7.506504e+01	-1.590665e+01
7.549861e+01	-1.595493e+01
7.593469e+01	-1.600250e+01
7.637328e+01	-1.605281e+01
7.681441e+01	-1.610090e+01
7.725809e+01	-1.615028e+01
7.770433e+01	-1.619875e+01
7.815315e+01	-1.624783e+01
7.860456e+01	-1.629684e+01
7.905857e+01	-1.634532e+01
7.951521e+01	-1.639575e+01
7.997449e+01	-1.644333e+01
8.043642e+01	-1.649118e+01
8.090102e+01	-1.654088e+01
8.136830e+01	-1.658970e+01
8.183828e+01	-1.663866e+01
8.231097e+01	-1.668755e+01
8.278640e+01	-1.673736e+01
8.326457e+01	-1.678492e+01
8.374550e+01	-1.683526e+01
8.422921e+01	-1.688349e+01
8.471572e+01	-1.693226e+01
8.520503e+01	-1.698145e+01
8.569717e+01	-1.703092e+01
8.619215e+01	-1.708053e+01
8.669000e+01	-1.712973e+01
8.719071e+01	-1.717725e+01
8.769432e+01	-1.722714e+01
8.820084e+01	-1.727471e+01
8.871029e+01	-1.732569e+01
8.922267e+01	-1.737532e+01
8.973802e+01	-1.742415e+01
9.025634e+01	-1.747300e+01
9.077766e+01	-1.752171e+01
9.130199e+01	-1.757080e+01
9.182935e+01	-1.761973e+01
9.235975e+01	-1.766997e+01
9.289321e+01	-1.771836e+01
9.342976e+01	-1.776774e+01
9.396941e+01	-1.781649e+01
9.451217e+01	-1.786617e+01
9.505807e+01	-1.791467e+01
9.560712e+01	-1.796390e+01
9.615934e+01	-1.801448e+01
9.671476e+01	-1.806266e+01
9.727338e+01	-1.811203e+01
9.783522e+01	-1.816226e+01
9.840032e+01	-1.821081e+01
9.896867e+01	-1.826135e+01
9.954031e+01	-1.831095e+01
1.001153e+02	-1.835796e+01
1.006935e+02	-1.840852e+01
1.012751e+02	-1.845681e+01
1.018601e+02	-1.850742e+01
1.024484e+02	-1.855741e+01
1.030402e+02	-1.860560e+01
1.036353e+02	-1.865499e+01
1.042339e+02	-1.870394e+01
1.048360e+02	-1.875478e+01
1.054415e+02	-1.880293e+01
1.060505e+02	-1.885238e+01
1.066631e+02	-1.890195e+01
1.072791e+02	-1.895165e+01
1.078988e+02	-1.899987e+01
1.085220e+02	-1.904984e+01
1.091488e+02	-1.909977e+01
1.097793e+02	-1.914802e+01
1.104133e+02	-1.919815e+01
1.110511e+02	-1.924764e+01
1.116925e+02	-1.929709e+01
1.123376e+02	-1.934653e+01
1.129865e+02	-1.939652e+01
1.136391e+02	-1.944451e+01
1.142955e+02	-1.949483e+01
1.149556e+02	-1.954529e+01
1.156196e+02	-1.959222e+01
1.162874e+02	-1.964197e+01
1.169591e+02	-1.969298e+01
1.176347e+02	-1.974337e+01
1.183141e+02	-1.979123e+01
1.189975e+02	-1.984166e+01
1.196848e+02	-1.989158e+01
1.203761e+02	-1.994032e+01
1.210714e+02	-1.998905e+01
1.217707e+02	-2.004017e+01
1.224740e+02	-2.008845e+01
1.231814e+02	-2.013933e+01
1.238929e+02	-2.018920e+01
1.246085e+02	-2.023634e+01
1.253283e+02	-2.028652e+01
1.260522e+02	-2.033733e+01
1.267802e+02	-2.038613e+01
1.275125e+02	-2.043644e+01
1.282490e+02	-2.048479e+01
1.289898e+02	-2.053533e+01
1.297348e+02	-2.058316e+01
1.304842e+02	-2.063407e+01
1.312378e+02	-2.068381e+01
1.319959e+02	-2.073483e+01
1.327583e+02	-2.078269e+01
1.335251e+02	-2.083388e+01
1.342963e+02	-2.088334e+01
1.350720e+02	-2.093201e+01
1.358522e+02	-2.098171e+01
1.366368e+02	-2.103172e+01
1.374260e+02	-2.108080e+01
1.382198e+02	-2.113055e+01
1.390182e+02	-2.118053e+01
1.398211e+02	-2.122917e+01
1.406287e+02	-2.128015e+01
1.414410e+02	-2.132844e+01
1.422579e+02	-2.137847e+01
1.430796e+02	-2.142848e+01
1.439060e+02	-2.147970e+01
1.447372e+02	-2.152915e+01
1.455732e+02	-2.157783e+01
1.464141e+02	-2.162712e+01
1.472597e+02	-2.167783e+01
1.481103e+02	-2.172911e+01
1.489658e+02	-2.177603e+01
1.498262e+02	-2.182556e+01
1.506916e+02	-2.187496e+01
1.515620e+02	-2.192682e+01
1.524374e+02	-2.197416e+01
1.533179e+02	-2.202629e+01
1.542034e+02	-2.207403e+01
1.550941e+02	-2.212297e+01
1.559899e+02	-2.217442e+01
1.568909e+02	-2.222447e+01
1.577971e+02	-2.227433e+01
1.587085e+02	-2.232202e+01
1.596252e+02	-2.237326e+01
1.605472e+02	-2.242582e+01
1.614745e+02	-2.247502e+01
1.624072e+02	-2.252250e+01
1.633453e+02	-2.257103e+01
1.642887e+02	-2.262171e+01
1.652377e+02	-2.267065e+01
1.661921e+02	-2.272232e+01
1.671520e+02	-2.276963e+01
1.681175e+02	-2.281982e+01
1.690885e+02	-2.286959e+01
1.700651e+02	-2.292165e+01
1.710474e+02	-2.297035e+01
1.720354e+02	-2.302078e+01
1.730291e+02	-2.307051e+01
1.740285e+02	-2.312001e+01
1.750337e+02	-2.317102e+01
1.760446e+02	-2.321986e+01
1.770615e+02	-2.326938e+01
1.780842e+02	-2.331900e+01
1.791128e+02	-2.336762e+01
1.801473e+02	-2.341767e+01
1.811878e+02	-2.347072e+01
1.822344e+02	-2.351859e+01
1.832870e+02	-2.357007e+01
1.843456e+02	-2.362318e+01
1.854104e+02	-2.366733e+01
1.864813e+02	-2.371663e+01
1.875584e+02	-2.376831e+01
1.886418e+02	-2.381864e+01
1.897313e+02	-2.386773e+01
1.908272e+02	-2.391505e+01
1.919294e+02	-2.396593e+01
1.930380e+02	-2.401734e+01
1.941530e+02	-2.406831e+01
1.952744e+02	-2.411857e+01
1.964023e+02	-2.416961e+01
1.975367e+02	-2.421831e+01
1.986777e+02	-2.426273e+01
1.998252e+02	-2.431635e+01
2.009794e+02	-2.436209e+01
2.021403e+02	-2.441689e+01
2.033078e+02	-2.446534e+01
2.044821e+02	-2.451607e+01
2.056632e+02	-2.456412e+01
2.068511e+02	-2.461775e+01
2.080459e+02	-2.466404e+01
2.092475e+02	-2.471489e+01
2.104561e+02	-2.476406e+01
2.116717e+02	-2.481531e+01
2.128943e+02	-2.486497e+01
2.141240e+02	-2.491263e+01
2.153608e+02	-2.496568e+01
2.166047e+02	-2.501215e+01
2.178558e+02	-2.506434e+01
2.191141e+02	-2.511346e+01
2.203797e+02	-2.516594e+01
2.216526e+02	-2.521521e+01
2.229329e+02	-2.526551e+01
2.242205e+02	-2.531421e+01
2.255156e+02	-2.536276e+01
2.268182e+02	-2.541538e+01
2.281283e+02	-2.546549e+01
2.294459e+02	-2.551238e+01
2.307712e+02	-2.556539e+01
2.321041e+02	-2.561707e+01
2.334447e+02	-2.566678e+01
2.347931e+02	-2.571464e+01
2.361493e+02	-2.576375e+01
2.375133e+02	-2.581354e+01
2.388851e+02	-2.586367e+01
2.402649e+02	-2.591319e+01
2.416527e+02	-2.596286e+01
2.430484e+02	-2.601664e+01
2.444523e+02	-2.606479e+01
2.458642e+02	-2.611419e+01
2.472843e+02	-2.616216e+01
2.487126e+02	-2.621371e+01
2.501492e+02	-2.626043e+01
2.515940e+02	-2.631223e+01
2.530472e+02	-2.636430e+01
2.545088e+02	-2.641201e+01
2.559789e+02	-2.646702e+01
2.574574e+02	-2.651588e+01
2.589444e+02	-2.656175e+01
2.604401e+02	-2.661250e+01
2.619444e+02	-2.666513e+01
2.634574e+02	-2.671502e+01
2.649791e+02	-2.676162e+01
2.665096e+02	-2.681490e+01
2.680489e+02	-2.686133e+01
2.695972e+02	-2.691592e+01
2.711544e+02	-2.696488e+01
2.727205e+02	-2.701139e+01
2.742958e+02	-2.706267e+01
2.758801e+02	-2.711249e+01
2.774736e+02	-2.716062e+01
2.790762e+02	-2.721404e+01
2.806882e+02	-2.726298e+01
2.823094e+02	-2.731173e+01
2.839400e+02	-2.736392e+01
2.855800e+02	-2.741523e+01
2.872295e+02	-2.746114e+01
2.888886e+02	-2.751152e+01
2.905572e+02	-2.756602e+01
2.922354e+02	-2.761592e+01
2.939234e+02	-2.766175e+01
2.956211e+02	-2.770928e+01
2.973286e+02	-2.776073e+01
2.990459e+02	-2.781486e+01
3.007732e+02	-2.786394e+01
3.025104e+02	-2.791254e+01
3.042577e+02	-2.796248e+01
3.060151e+02	-2.801114e+01
3.077826e+02	-2.806135e+01
3.095604e+02	-2.811509e+01
3.113484e+02	-2.816711e+01
3.131467e+02	-2.821352e+01
3.149554e+02	-2.826479e+01
3.167746e+02	-2.831250e+01
3.186043e+02	-2.836572e+01
3.204445e+02	-2.841585e+01
3.222954e+02	-2.846412e+01
3.241570e+02	-2.851235e+01
3.260293e+02	-2.856392e+01
3.279124e+02	-2.861050e+01
3.298064e+02	-2.866541e+01
3.317114e+02	-2.871339e+01
3.336273e+02	-2.876554e+01
3.355544e+02	-2.880960e+01
3.374925e+02	-2.886308e+01
3.394418e+02	-2.891608e+01
3.414024e+02	-2.896477e+01
3.433744e+02	-2.901310e+01
3.453577e+02	-2.906555e+01
3.473525e+02	-2.911515e+01
3.493588e+02	-2.916209e+01
3.513766e+02	-2.921392e+01
3.534062e+02	-2.926168e+01
3.554474e+02	-2.931387e+01
3.575005e+02	-2.936143e+01
3.595654e+02	-2.941424e+01
3.616422e+02	-2.946530e+01
3.637311e+02	-2.951914e+01
3.658320e+02	-2.956635e+01
3.679450e+02	-2.961123e+01
3.700702e+02	-2.966953e+01
3.722077e+02	-2.971361e+01
3.743576e+02	-2.976532e+01
3.765199e+02	-2.981519e+01
3.786946e+02	-2.986416e+01
3.808820e+02	-2.991668e+01
3.830819e+02	-2.996245e+01
3.852946e+02	-3.001506e+01
3.875200e+02	-3.006541e+01
3.897583e+02	-3.011116e+01
3.920096e+02	-3.016471e+01
3.942738e+02	-3.021484e+01
3.965511e+02	-3.026695e+01
3.988416e+02	-3.031775e+01
4.011452e+02	-3.036706e+01
4.034622e+02	-3.041837e+01
4.057926e+02	-3.046219e+01
4.081365e+02	-3.051982e+01
4.104938e+02	-3.056466e+01
4.128648e+02	-3.061663e+01
4.152495e+02	-3.066684e+01
4.176480e+02	-3.071387e+01
4.200603e+02	-3.076935e+01
4.224866e+02	-3.081370e+01
4.249268e+02	-3.086609e+01
4.273812e+02	-3.091373e+01
4.298497e+02	-3.097120e+01
4.323325e+02	-3.101428e+01
4.348297e+02	-3.107058e+01
4.373412e+02	-3.111566e+01
4.398673e+02	-3.117347e+01
4.424079e+02	-3.122400e+01
4.449633e+02	-3.127350e+01
4.475334e+02	-3.132373e+01
4.501183e+02	-3.136724e+01
4.527182e+02	-3.141616e+01
4.553330e+02	-3.146725e+01
4.579630e+02	-3.151694e+01
4.606082e+02	-3.157196e+01
4.632687e+02	-3.161752e+01
4.659445e+02	-3.167342e+01
4.686358e+02	-3.171999e+01
4.713426e+02	-3.177135e+01
4.740650e+02	-3.182319e+01
4.768032e+02	-3.186938e+01
4.795572e+02	-3.191612e+01
4.823271e+02	-3.197236e+01
4.851130e+02	-3.202537e+01
4.879150e+02	-3.207425e+01
4.907332e+02	-3.212150e+01
4.935676e+02	-3.217567e+01
4.964185e+02	-3.222994e+01
4.992858e+02	-3.227172e+01
5.021696e+02	-3.232442e+01
5.050701e+02	-3.237319e+01
5.079874e+02	-3.242423e+01
5.109215e+02	-3.247424e+01
5.138726e+02	-3.251968e+01
5.168407e+02	-3.256822e+01
5.198259e+02	-3.262769e+01
5.228284e+02	-3.267580e+01
5.258482e+02	-3.272430e+01
5.288855e+02	-3.278067e+01
5.319403e+02	-3.282647e+01
5.350128e+02	-3.287361e+01
5.381030e+02	-3.292480e+01
5.412111e+02	-3.297536e+01
5.443371e+02	-3.302393e+01
5.474812e+02	-3.307952e+01
5.506434e+02	-3.313038e+01
5.538239e+02	-3.317913e+01
5.570228e+02	-3.322474e+01
5.602401e+02	-3.327969e+01
5.634760e+02	-3.333056e+01
5.667306e+02	-3.337957e+01
5.700040e+02	-3.343477e+01
5.732964e+02	-3.348234e+01
5.766077e+02	-3.353157e+01
5.799382e+02	-3.357987e+01
5.832879e+02	-3.362186e+01
5.866569e+02	-3.368596e+01
5.900454e+02	-3.373101e+01
5.934535e+02	-3.378790e+01
5.968813e+02	-3.382963e+01
6.003288e+02	-3.388133e+01
6.037963e+02	-3.394406e+01
6.072838e+02	-3.397885e+01
6.107914e+02	-3.403177e+01
6.143194e+02	-3.408270e+01
6.178676e+02	-3.413147e+01
6.214364e+02	-3.418808e+01
6.250258e+02	-3.422985e+01
6.286359e+02	-3.428630e+01
6.322669e+02	-3.433304e+01
6.359189e+02	-3.438778e+01
6.395919e+02	-3.444540e+01
6.432862e+02	-3.448810e+01
6.470017e+02	-3.453457e+01
6.507388e+02	-3.459080e+01
6.544974e+02	-3.463525e+01
6.582778e+02	-3.468790e+01
6.620800e+02	-3.473435e+01
6.659041e+02	-3.478753e+01
6.697504e+02	-3.483716e+01
6.736188e+02	-3.488996e+01
6.775096e+02	-3.494111e+01
6.814229e+02	-3.498630e+01
6.853587e+02	-3.504520e+01
6.893173e+02	-3.508101e+01
6.932988e+02	-3.514476e+01
6.973033e+02	-3.518887e+01
7.013309e+02	-3.523840e+01
