Frequency(Hz)	Magnitude(dB)
1.000000e+01	-2.200135e+00
1.005776e+01	-2.220093e+00
1.011585e+01	-2.240262e+00
1.017428e+01	-2.260294e+00
1.023305e+01	-2.280646e+00
1.029215e+01	-2.301183e+00
1.035160e+01	-2.321899e+00
1.041139e+01	-2.342619e+00
1.047153e+01	-2.363513e+00
1.053201e+01	-2.384690e+00
1.059284e+01	-2.405862e+00
1.065403e+01	-2.427250e+00
1.071556e+01	-2.448687e+00
1.077746e+01	-2.470334e+00
1.083971e+01	-2.492076e+00
1.090232e+01	-2.514108e+00
1.096529e+01	-2.536287e+00
1.102862e+01	-2.558268e+00
1.109232e+01	-2.580703e+00
1.115639e+01	-2.602998e+00
1.122083e+01	-2.625829e+00
1.128564e+01	-2.648402e+00
1.135083e+01	-2.671292e+00
1.141639e+01	-2.694618e+00
1.148233e+01	-2.717877e+00
1.154865e+01	-2.740871e+00
1.161536e+01	-2.764415e+00
1.168245e+01	-2.788101e+00
1.174992e+01	-2.812058e+00
1.181779e+01	-2.835889e+00
1.188605e+01	-2.859835e+00
1.195470e+01	-2.884102e+00
1.202375e+01	-2.908413e+00
1.209320e+01	-2.933025e+00
1.216305e+01	-2.957530e+00
1.223330e+01	-2.982407e+00
1.230396e+01	-3.007287e+00
1.237503e+01	-3.032374e+00
1.244651e+01	-3.057521e+00
1.251840e+01	-3.082840e+00
1.259070e+01	-3.108336e+00
1.266343e+01	-3.133895e+00
1.273657e+01	-3.159859e+00
1.281014e+01	-3.185852e+00
1.288413e+01	-3.212020e+00
1.295855e+01	-3.238282e+00
1.303339e+01	-3.264610e+00
1.310867e+01	-3.291088e+00
1.318439e+01	-3.317596e+00
1.326054e+01	-3.344377e+00
1.333713e+01	-3.371433e+00
1.341417e+01	-3.398455e+00
1.349165e+01	-3.425520e+00
1.356958e+01	-3.452978e+00
1.364795e+01	-3.480639e+00
1.372678e+01	-3.508095e+00
1.380607e+01	-3.536097e+00
1.388581e+01	-3.563774e+00
1.396602e+01	-3.592093e+00
1.404668e+01	-3.620278e+00
1.412782e+01	-3.648577e+00
1.420942e+01	-3.676975e+00
1.429149e+01	-3.705767e+00
1.437404e+01	-3.734479e+00
1.445706e+01	-3.763276e+00
1.454057e+01	-3.792272e+00
1.462455e+01	-3.821797e+00
1.470902e+01	-3.851083e+00
1.479398e+01	-3.880459e+00
1.487943e+01	-3.910022e+00
1.496537e+01	-3.939701e+00
1.505181e+01	-3.969504e+00
1.513875e+01	-3.999592e+00
1.522619e+01	-4.029956e+00
1.531414e+01	-4.060202e+00
1.540259e+01	-4.090553e+00
1.549156e+01	-4.121299e+00
1.558103e+01	-4.152004e+00
1.567103e+01	-4.183159e+00
1.576155e+01	-4.213881e+00
1.585258e+01	-4.245044e+00
1.594415e+01	-4.276363e+00
1.603624e+01	-4.307814e+00
1.612886e+01	-4.339301e+00
1.622202e+01	-4.371184e+00
1.631572e+01	-4.402592e+00
1.640996e+01	-4.434667e+00
1.650474e+01	-4.466481e+00
1.660008e+01	-4.498889e+00
1.669596e+01	-4.531226e+00
1.679239e+01	-4.563748e+00
1.688938e+01	-4.596458e+00
1.698694e+01	-4.629090e+00
1.708505e+01	-4.661662e+00
1.718373e+01	-4.694815e+00
1.728299e+01	-4.728192e+00
1.738281e+01	-4.761340e+00
1.748322e+01	-4.794734e+00
1.758420e+01	-4.828151e+00
1.768576e+01	-4.862013e+00
1.778792e+01	-4.895566e+00
1.789066e+01	-4.929695e+00
1.799399e+01	-4.963271e+00
1.809793e+01	-4.997457e+00
1.820246e+01	-5.032118e+00
1.830760e+01	-5.066069e+00
1.841334e+01	-5.100572e+00
1.851969e+01	-5.135251e+00
1.862666e+01	-5.170253e+00
1.873425e+01	-5.205074e+00
1.884246e+01	-5.239859e+00
1.895129e+01	-5.275261e+00
1.906075e+01	-5.310280e+00
1.917085e+01	-5.345901e+00
1.928158e+01	-5.381016e+00
1.939295e+01	-5.416674e+00
1.950496e+01	-5.452538e+00
1.961762e+01	-5.488562e+00
1.973093e+01	-5.524026e+00
1.984490e+01	-5.560225e+00
1.995952e+01	-5.596746e+00
2.007480e+01	-5.632605e+00
2.019076e+01	-5.669201e+00
2.030738e+01	-5.705606e+00
2.042467e+01	-5.742715e+00
2.054264e+01	-5.779115e+00
2.066130e+01	-5.816251e+00
2.078064e+01	-5.852956e+00
2.090066e+01	-5.890085e+00
2.102139e+01	-5.927278e+00
2.114280e+01	-5.964671e+00
2.126492e+01	-6.002383e+00
2.138775e+01	-6.039630e+00
2.151128e+01	-6.077043e+00
2.163553e+01	-6.114691e+00
2.176050e+01	-6.152695e+00
2.188619e+01	-6.190221e+00
2.201260e+01	-6.228617e+00
2.213974e+01	-6.266880e+00
2.226762e+01	-6.305132e+00
2.239624e+01	-6.343380e+00
2.252560e+01	-6.381951e+00
2.265571e+01	-6.420583e+00
2.278656e+01	-6.459167e+00
2.291818e+01	-6.498086e+00
2.305055e+01	-6.536704e+00
2.318369e+01	-6.575871e+00
2.331760e+01	-6.614808e+00
2.345228e+01	-6.654315e+00
2.358774e+01	-6.693335e+00
2.372398e+01	-6.732522e+00
2.386101e+01	-6.772136e+00
2.399883e+01	-6.811740e+00
2.413745e+01	-6.851091e+00
2.427686e+01	-6.890975e+00
2.441709e+01	-6.931184e+00
2.455812e+01	-6.970740e+00
2.469997e+01	-7.010737e+00
2.484263e+01	-7.050751e+00
2.498612e+01	-7.090875e+00
2.513044e+01	-7.131354e+00
2.527559e+01	-7.171827e+00
2.542158e+01	-7.212640e+00
2.556842e+01	-7.252681e+00
2.571610e+01	-7.293591e+00
2.586463e+01	-7.334354e+00
2.601403e+01	-7.374989e+00
2.616428e+01	-7.416189e+00
2.631541e+01	-7.456690e+00
2.646740e+01	-7.498141e+00
2.662028e+01	-7.539153e+00
2.677404e+01	-7.580721e+00
2.692868e+01	-7.621915e+00
2.708422e+01	-7.663298e+00
2.724066e+01	-7.704934e+00
2.739800e+01	-7.746388e+00
2.755625e+01	-7.788247e+00
2.771541e+01	-7.830005e+00
2.787550e+01	-7.871494e+00
2.803650e+01	-7.913337e+00
2.819844e+01	-7.955179e+00
2.836131e+01	-7.997529e+00
2.852513e+01	-8.039529e+00
2.868989e+01	-8.081837e+00
2.885560e+01	-8.124369e+00
2.902227e+01	-8.166556e+00
2.918990e+01	-8.208760e+00
2.935850e+01	-8.251639e+00
2.952807e+01	-8.293886e+00
2.969863e+01	-8.336821e+00
2.987016e+01	-8.379174e+00
3.004269e+01	-8.421820e+00
3.021622e+01	-8.465116e+00
3.039075e+01	-8.507758e+00
3.056628e+01	-8.550696e+00
3.074283e+01	-8.594346e+00
3.092040e+01	-8.637338e+00
3.109900e+01	-8.680448e+00
3.127862e+01	-8.723884e+00
3.145929e+01	-8.766830e+00
3.164099e+01	-8.810529e+00
3.182375e+01	-8.853698e+00
3.200756e+01	-8.897586e+00
3.219244e+01	-8.940960e+00
3.237838e+01	-8.984333e+00
3.256540e+01	-9.028694e+00
3.275349e+01	-9.071995e+00
3.294268e+01	-9.116184e+00
3.313295e+01	-9.160303e+00
3.332433e+01	-9.204069e+00
3.351681e+01	-9.248088e+00
3.371040e+01	-9.291839e+00
3.390511e+01	-9.336117e+00
3.410094e+01	-9.380925e+00
3.429791e+01	-9.425046e+00
3.449601e+01	-9.469139e+00
3.469526e+01	-9.513505e+00
3.489566e+01	-9.557917e+00
3.509721e+01	-9.602604e+00
3.529993e+01	-9.648119e+00
3.550382e+01	-9.691429e+00
3.570889e+01	-9.736416e+00
3.591515e+01	-9.781145e+00
3.612259e+01	-9.826837e+00
3.633123e+01	-9.870536e+00
3.654108e+01	-9.915425e+00
3.675214e+01	-9.960500e+00
3.696442e+01	-1.000554e+01
3.717792e+01	-1.005142e+01
3.739266e+01	-1.009572e+01
3.760864e+01	-1.014148e+01
3.782587e+01	-1.018623e+01
3.804435e+01	-1.023140e+01
3.826409e+01	-1.027687e+01
3.848510e+01	-1.032224e+01
3.870739e+01	-1.036767e+01
3.893096e+01	-1.041253e+01
3.915583e+01	-1.045840e+01
3.938199e+01	-1.050427e+01
3.960946e+01	-1.054927e+01
3.983824e+01	-1.059521e+01
4.006834e+01	-1.064094e+01
4.029978e+01	-1.068691e+01
4.053255e+01	-1.073230e+01
4.076666e+01	-1.077863e+01
4.100213e+01	-1.082392e+01
4.123896e+01	-1.087017e+01
4.147715e+01	-1.091612e+01
4.171672e+01	-1.096168e+01
4.195767e+01	-1.100788e+01
4.220002e+01	-1.105403e+01
4.244377e+01	-1.110000e+01
4.268892e+01	-1.114624e+01
4.293549e+01	-1.119247e+01
4.318348e+01	-1.123944e+01
4.343291e+01	-1.128515e+01
4.368377e+01	-1.133192e+01
4.393609e+01	-1.137786e+01
4.418986e+01	-1.142480e+01
4.444510e+01	-1.147075e+01
4.470182e+01	-1.151701e+01
4.496001e+01	-1.156362e+01
4.521970e+01	-1.160989e+01
4.548089e+01	-1.165679e+01
4.574358e+01	-1.170317e+01
4.600779e+01	-1.175020e+01
4.627353e+01	-1.179684e+01
4.654081e+01	-1.184317e+01
4.680963e+01	-1.189061e+01
4.708000e+01	-1.193679e+01
4.735193e+01	-1.198407e+01
4.762543e+01	-1.203014e+01
4.790051e+01	-1.207794e+01
4.817719e+01	-1.212438e+01
4.845545e+01	-1.217217e+01
4.873533e+01	-1.221854e+01
4.901682e+01	-1.226571e+01
4.929994e+01	-1.231296e+01
4.958470e+01	-1.236017e+01
4.987110e+01	-1.240690e+01
5.015915e+01	-1.245435e+01
5.044887e+01	-1.250151e+01
5.074026e+01	-1.254870e+01
5.103333e+01	-1.259602e+01
5.132810e+01	-1.264301e+01
5.162457e+01	-1.269103e+01
5.192275e+01	-1.273697e+01
5.222265e+01	-1.278554e+01
5.252429e+01	-1.283288e+01
5.282767e+01	-1.288010e+01
5.313280e+01	-1.292794e+01
5.343969e+01	-1.297589e+01
5.374836e+01	-1.302230e+01
5.405880e+01	-1.307080e+01
5.437105e+01	-1.311818e+01
5.468509e+01	-1.316471e+01
5.500095e+01	-1.321306e+01
5.531863e+01	-1.326047e+01
5.563815e+01	-1.330752e+01
5.595951e+01	-1.335614e+01
5.628273e+01	-1.340322e+01
5.660782e+01	-1.345169e+01
5.693479e+01	-1.349871e+01
5.726364e+01	-1.354792e+01
5.759439e+01	-1.359527e+01
5.792705e+01	-1.364240e+01
5.826164e+01	-1.369043e+01
5.859815e+01	-1.373855e+01
5.893662e+01	-1.378657e+01
5.927703e+01	-1.383500e+01
5.961941e+01	-1.388267e+01
5.996377e+01	-1.393041e+01
6.031012e+01	-1.397859e+01
6.065847e+01	-1.402674e+01
6.100883e+01	-1.407386e+01
6.136121e+01	-1.412250e+01
6.171563e+01	-1.417091e+01
6.207210e+01	-1.421863e+01
6.243063e+01	-1.426636e+01
6.279122e+01	-1.431446e+01
6.315390e+01	-1.436270e+01
6.351868e+01	-1.441139e+01
6.388556e+01	-1.445968e+01
6.425456e+01	-1.450657e+01
6.462569e+01	-1.455659e+01
6.499897e+01	-1.460393e+01
6.537440e+01	-1.465344e+01
6.575200e+01	-1.470118e+01
6.613178e+01	-1.474842e+01
6.651375e+01	-1.479737e+01
6.689793e+01	-1.484638e+01
6.728433e+01	-1.489484e+01
6.767297e+01	-1.494270e+01
6.806384e+01	-1.499065e+01
6.845698e+01	-1.504043e+01
6.885238e+01	-1.508817e+01
6.925007e+01	-1.513734e+01
6.965005e+01	-1.518569e+01
7.005235e+01	-1.523519e+01
7.045697e+01	-1.528312e+01
7.086393e+01	-1.533171e+01
7.127323e+01	-1.537880e+01
7.168490e+01	-1.542809e+01
7.209895e+01	-1.547733e+01
7.251539e+01	-1.552502e+01
7.293424e+01	-1.557471e+01
7.335551e+01	-1.562360e+01
7.377920e+01	-1.567187e+01
7.420535e+01	-1.572023e+01
7.463396e+01	-1.576886e+01
7.506504e+01	-1.581696e+01
7.549861e+01	-1.586489e+01
7.593469e+01	-1.591499e+01
7.637328e+01	-1.596294e+01
7.681441e+01	-1.601203e+01
7.725809e+01	-1.606196e+01
7.770433e+01	-1.611009e+01
7.815315e+01	-1.615884e+01
7.860456e+01	-1.620788e+01
7.905857e+01	-1.625651e+01
7.951521e+01	-1.630608e+01
7.997449e+01	-1.635382e+01
8.043642e+01	-1.640255e+01
8.090102e+01	-1.645203e+01
8.136830e+01	-1.650108e+01
8.183828e+01	-1.655006e+01
8.231097e+01	-1.659788e+01
8.278640e+01	-1.664734e+01
8.326457e+01	-1.669631e+01
8.374550e+01	-1.674561e+01
8.422921e+01	-1.679506e+01
8.471572e+01	-1.684373e+01
8.520503e+01	-1.689280e+01
8.569717e+01	-1.694069e+01
8.619215e+01	-1.699104e+01
8.669000e+01	-1.703933e+01
8.719071e+01	-1.708876e+01
8.769432e+01	-1.713871e+01
8.820084e+01	-1.718706e+01
8.871029e+01	-1.723619e+01
8.922267e+01	-1.728505e+01
8.973802e+01	-1.733435e+01
9.025634e+01	-1.738302e+01
9.077766e+01	-1.743264e+01
9.130199e+01	-1.748145e+01
9.182935e+01	-1.753201e+01
9.235975e+01	-1.757975e+01
9.289321e+01	-1.762797e+01
9.342976e+01	-1.767792e+01
9.396941e+01	-1.772796e+01
9.451217e+01	-1.777762e+01
9.505807e+01	-1.782587e+01
9.560712e+01	-1.787583e+01
9.615934e+01	-1.792328e+01
9.671476e+01	-1.797404e+01
9.727338e+01	-1.802274e+01
9.783522e+01	-1.807177e+01
9.840032e+01	-1.812153e+01
9.896867e+01	-1.817028e+01
9.954031e+01	-1.821932e+01
1.001153e+02	-1.826863e+01
1.006935e+02	-1.831892e+01
1.012751e+02	-1.836734e+01
1.018601e+02	-1.841579e+01
1.024484e+02	-1.846563e+01
1.030402e+02	-1.851421e+01
1.036353e+02	-1.856463e+01
1.042339e+02	-1.861381e+01
1.048360e+02	-1.866289e+01
1.054415e+02	-1.871234e+01
1.060505e+02	-1.876092e+01
1.066631e+02	-1.881110e+01
1.072791e+02	-1.886181e+01
1.078988e+02	-1.891086e+01
1.085220e+02	-1.896001e+01
1.091488e+02	-1.901023e+01
1.097793e+02	-1.905939e+01
1.104133e+02	-1.910941e+01
1.110511e+02	-1.915805e+01
1.116925e+02	-1.920697e+01
1.123376e+02	-1.925524e+01
1.129865e+02	-1.930515e+01
1.136391e+02	-1.935502e+01
1.142955e+02	-1.940457e+01
1.149556e+02	-1.945416e+01
1.156196e+02	-1.950154e+01
1.162874e+02	-1.955199e+01
1.169591e+02	-1.960114e+01
1.176347e+02	-1.965261e+01
1.183141e+02	-1.970237e+01
1.189975e+02	-1.975046e+01
1.196848e+02	-1.980017e+01
1.203761e+02	-1.984947e+01
1.210714e+02	-1.989969e+01
1.217707e+02	-1.994815e+01
1.224740e+02	-1.999829e+01
1.231814e+02	-2.004866e+01
1.238929e+02	-2.009821e+01
1.246085e+02	-2.014679e+01
1.253283e+02	-2.019604e+01
1.260522e+02	-2.024645e+01
1.267802e+02	-2.029669e+01
1.275125e+02	-2.034602e+01
1.282490e+02	-2.039614e+01
1.289898e+02	-2.044424e+01
1.297348e+02	-2.049491e+01
1.304842e+02	-2.054409e+01
1.312378e+02	-2.059390e+01
1.319959e+02	-2.064230e+01
1.327583e+02	-2.069219e+01
1.335251e+02	-2.074200e+01
1.342963e+02	-2.079248e+01
1.350720e+02	-2.084127e+01
1.358522e+02	-2.089047e+01
1.366368e+02	-2.093902e+01
1.374260e+02	-2.098839e+01
1.382198e+02	-2.103913e+01
1.390182e+02	-2.108951e+01
1.398211e+02	-2.113917e+01
1.406287e+02	-2.118952e+01
1.414410e+02	-2.123965e+01
1.422579e+02	-2.128830e+01
1.430796e+02	-2.133960e+01
1.439060e+02	-2.138537e+01
1.447372e+02	-2.143787e+01
1.455732e+02	-2.148571e+01
1.464141e+02	-2.153779e+01
1.472597e+02	-2.158434e+01
1.481103e+02	-2.163523e+01
1.489658e+02	-2.168582e+01
1.498262e+02	-2.173435e+01
1.506916e+02	-2.178468e+01
1.515620e+02	-2.183594e+01
1.524374e+02	-2.188500e+01
1.533179e+02	-2.193390e+01
1.542034e+02	-2.198473e+01
1.550941e+02	-2.203472e+01
1.559899e+02	-2.208378e+01
1.568909e+02	-2.213300e+01
1.577971e+02	-2.218215e+01
1.587085e+02	-2.223380e+01
1.596252e+02	-2.228105e+01
1.605472e+02	-2.233101e+01
1.614745e+02	-2.238386e+01
1.624072e+02	-2.243016e+01
1.633453e+02	-2.248132e+01
1.642887e+02	-2.252932e+01
1.652377e+02	-2.258170e+01
1.661921e+02	-2.263137e+01
1.671520e+02	-2.268297e+01
1.681175e+02	-2.272869e+01
1.690885e+02	-2.278201e+01
1.700651e+02	-2.283013e+01
1.710474e+02	-2.287851e+01
1.720354e+02	-2.292923e+01
1.730291e+02	-2.298016e+01
1.740285e+02	-2.303052e+01
1.750337e+02	-2.307927e+01
1.760446e+02	-2.312937e+01
1.770615e+02	-2.317556e+01
1.780842e+02	-2.322851e+01
1.791128e+02	-2.327860e+01
1.801473e+02	-2.332786e+01
1.811878e+02	-2.337680e+01
1.822344e+02	-2.342938e+01
1.832870e+02	-2.347549e+01
1.843456e+02	-2.352568e+01
1.854104e+02	-2.357774e+01
1.864813e+02	-2.362667e+01
1.875584e+02	-2.367632e+01
1.886418e+02	-2.372523e+01
1.897313e+02	-2.377631e+01
1.908272e+02	-2.382486e+01
1.919294e+02	-2.387835e+01
1.930380e+02	-2.392590e+01
1.941530e+02	-2.397524e+01
1.952744e+02	-2.402874e+01
1.964023e+02	-2.407521e+01
1.975367e+02	-2.412653e+01
1.986777e+02	-2.417263e+01
1.998252e+02	-2.422552e+01
2.009794e+02	-2.427479e+01
2.021403e+02	-2.432416e+01
2.033078e+02	-2.437356e+01
2.044821e+02	-2.442534e+01
2.056632e+02	-2.447518e+01
2.068511e+02	-2.452358e+01
2.080459e+02	-2.457350e+01
2.092475e+02	-2.462380e+01
2.104561e+02	-2.467329e+01
2.116717e+02	-2.472706e+01
2.128943e+02	-2.477508e+01
2.141240e+02	-2.482362e+01
2.153608e+02	-2.487249e+01
2.166047e+02	-2.492165e+01
2.178558e+02	-2.497296e+01
2.191141e+02	-2.502375e+01
2.203797e+02	-2.507555e+01
2.216526e+02	-2.512140e+01
2.229329e+02	-2.517526e+01
2.242205e+02	-2.522333e+01
2.255156e+02	-2.527413e+01
2.268182e+02	-2.532226e+01
2.281283e+02	-2.537121e+01
2.294459e+02	-2.542010e+01
2.307712e+02	-2.547184e+01
2.321041e+02	-2.552394e+01
2.334447e+02	-2.557225e+01
2.347931e+02	-2.562306e+01
2.361493e+02	-2.566990e+01
2.375133e+02	-2.572131e+01
2.388851e+02	-2.577164e+01
2.402649e+02	-2.581892e+01
2.416527e+02	-2.587126e+01
2.430484e+02	-2.592200e+01
2.444523e+02	-2.597368e+01
2.458642e+02	-2.602216e+01
2.472843e+02	-2.607175e+01
2.487126e+02	-2.611898e+01
2.501492e+02	-2.617319e+01
2.515940e+02	-2.622314e+01
2.530472e+02	-2.627209e+01
2.545088e+02	-2.632194e+01
2.559789e+02	-2.636912e+01
2.574574e+02	-2.642101e+01
2.589444e+02	-2.647229e+01
2.604401e+02	-2.651906e+01
2.619444e+02	-2.657414e+01
2.634574e+02	-2.661905e+01
2.649791e+02	-2.666875e+01
2.665096e+02	-2.672043e+01
2.680489e+02	-2.677458e+01
2.695972e+02	-2.681810e+01
2.711544e+02	-2.687259e+01
2.727205e+02	-2.692045e+01
2.742958e+02	-2.697252e+01
2.758801e+02	-2.702210e+01
2.774736e+02	-2.706942e+01
2.790762e+02	-2.712186e+01
2.806882e+02	-2.717226e+01
2.823094e+02	-2.722357e+01
2.839400e+02	-2.727049e+01
2.855800e+02	-2.732073e+01
2.872295e+02	-2.737034e+01
2.888886e+02	-2.742190e+01
2.905572e+02	-2.747132e+01
2.922354e+02	-2.752216e+01
2.939234e+02	-2.757675e+01
2.956211e+02	-2.762197e+01
2.973286e+02	-2.767113e+01
2.990459e+02	-2.772020e+01
3.007732e+02	-2.777074e+01
3.025104e+02	-2.782295e+01
3.042577e+02	-2.786805e+01
3.060151e+02	-2.791955e+01
3.077826e+02	-2.797216e+01
3.095604e+02	-2.802406e+01
3.113484e+02	-2.806838e+01
3.131467e+02	-2.812485e+01
3.149554e+02	-2.817038e+01
3.167746e+02	-2.822261e+01
3.186043e+02	-2.827438e+01
3.204445e+02	-2.831931e+01
3.222954e+02	-2.837363e+01
3.241570e+02	-2.842051e+01
3.260293e+02	-2.847101e+01
3.279124e+02	-2.852503e+01
3.298064e+02	-2.856924e+01
3.317114e+02	-2.861817e+01
3.336273e+02	-2.867168e+01
3.355544e+02	-2.872205e+01
3.374925e+02	-2.877471e+01
3.394418e+02	-2.882367e+01
3.414024e+02	-2.886987e+01
3.433744e+02	-2.891940e+01
3.453577e+02	-2.897366e+01
3.473525e+02	-2.902277e+01
3.493588e+02	-2.907250e+01
3.513766e+02	-2.911763e+01
3.534062e+02	-2.917147e+01
3.554474e+02	-2.921868e+01
3.575005e+02	-2.927028e+01
3.595654e+02	-2.931694e+01
3.616422e+02	-2.937001e+01
3.637311e+02	-2.942101e+01
3.658320e+02	-2.947351e+01
3.679450e+02	-2.952345e+01
3.700702e+02	-2.957419e+01
3.722077e+02	-2.962215e+01
3.743576e+02	-2.967155e+01
3.765199e+02	-2.972329e+01
3.786946e+02	-2.977178e+01
3.808820e+02	-2.982275e+01
3.830819e+02	-2.987353e+01
3.852946e+02	-2.992691e+01
3.875200e+02	-2.997194e+01
3.897583e+02	-3.002228e+01
3.920096e+02	-3.007136e+01
3.942738e+02	-3.012363e+01
3.965511e+02	-3.017313e+01
3.988416e+02	-3.022342e+01
4.011452e+02	-3.027335e+01
4.034622e+02	-3.032016e+01
4.057926e+02	-3.037150e+01
4.081365e+02	-3.041981e+01
4.104938e+02	-3.047076e+01
4.128648e+02	-3.052249e+01
4.152495e+02	-3.057483e+01
4.176480e+02	-3.061812e+01
4.200603e+02	-3.067347e+01
4.224866e+02	-3.072588e+01
4.249268e+02	-3.077633e+01
4.273812e+02	-3.082271e+01
4.298497e+02	-3.087597e+01
4.323325e+02	-3.092400e+01
4.348297e+02	-3.097551e+01
4.373412e+02	-3.102511e+01
4.398673e+02	-3.107191e+01
4.424079e+02	-3.112490e+01
4.449633e+02	-3.117814e+01
4.475334e+02	-3.122642e+01
4.501183e+02	-3.128311e+01
4.527182e+02	-3.132571e+01
4.553330e+02	-3.137185e+01
4.579630e+02	-3.143316e+01
4.606082e+02	-3.147686e+01
4.632687e+02	-3.152986e+01
4.659445e+02	-3.157500e+01
4.686358e+02	-3.162305e+01
4.713426e+02	-3.167513e+01
4.740650e+02	-3.172611e+01
4.768032e+02	-3.177644e+01
4.795572e+02	-3.182675e+01
4.823271e+02	-3.187315e+01
4.851130e+02	-3.192370e+01
4.879150e+02	-3.196908e+01
4.907332e+02	-3.203241e+01
4.935676e+02	-3.208231e+01
4.964185e+02	-3.213105e+01
4.992858e+02	-3.217369e+01
5.021696e+02	-3.222603e+01
5.050701e+02	-3.227734e+01
5.079874e+02	-3.233065e+01
5.109215e+02	-3.237601e+01
5.138726e+02	-3.242733e+01
5.168407e+02	-3.247744e+01
5.198259e+02	-3.252343e+01
5.228284e+02	-3.258154e+01
5.258482e+02	-3.262836e+01
5.288855e+02	-3.267673e+01
5.319403e+02	-3.272725e+01
5.350128e+02	-3.277678e+01
5.381030e+02	-3.284010e+01
5.412111e+02	-3.287804e+01
5.443371e+02	-3.293624e+01
5.474812e+02	-3.297650e+01
5.506434e+02	-3.303160e+01
5.538239e+02	-3.308191e+01
5.570228e+02	-3.312730e+01
5.602401e+02	-3.318128e+01
5.634760e+02	-3.322875e+01
5.667306e+02	-3.328778e+01
5.700040e+02	-3.334241e+01
5.732964e+02	-3.338094e+01
5.766077e+02	-3.343220e+01
5.799382e+02	-3.348266e+01
5.832879e+02	-3.353814e+01
5.866569e+02	-3.358087e+01
5.900454e+02	-3.363409e+01
5.934535e+02	-3.368283e+01
5.968813e+02	-3.372505e+01
6.003288e+02	-3.378054e+01
6.037963e+02	-3.383390e+01
6.072838e+02	-3.388984e+01
6.107914e+02	-3.393006e+01
6.143194e+02	-3.398218e+01
6.178676e+02	-3.404201e+01
6.214364e+02	-3.408205e+01
6.250258e+02	-3.414318e+01
6.286359e+02	-3.419394e+01
6.322669e+02	-3.423385e+01
6.359189e+02	-3.428546e+01
6.395919e+02	-3.433398e+01
6.432862e+02	-3.439261e+01
6.470017e+02	-3.443346e+01
6.507388e+02	-3.449110e+01
6.544974e+02	-3.453517e+01
6.582778e+02	-3.459377e+01
6.620800e+02	-3.462888e+01
6.659041e+02	-3.468613e+01
6.697504e+02	-3.473236e+01
6.736188e+02	-3.478574e+01
6.775096e+02	-3.484224e+01
6.814229e+02	-3.489646e+01
6.853587e+02	-3.494654e+01
6.893173e+02	-3.499823e+01
6.932988e+02	-3.504124e+01
6.973033e+02	-3.509726e+01
7.013309e+02	-3.514816e+01
