Frequency(Hz)	Magnitude(dB)
1.000000e+01	-1.505822e-05
1.005776e+01	-1.523268e-05
1.011585e+01	-1.540915e-05
1.017428e+01	-1.558767e-05
1.023305e+01	-1.576826e-05
1.029215e+01	-1.595094e-05
1.035160e+01	-1.613573e-05
1.041139e+01	-1.632267e-05
1.047153e+01	-1.651177e-05
1.053201e+01	-1.670306e-05
1.059284e+01	-1.689657e-05
1.065403e+01	-1.709232e-05
1.071556e+01	-1.729034e-05
1.077746e+01	-1.749066e-05
1.083971e+01	-1.769329e-05
1.090232e+01	-1.789827e-05
1.096529e+01	-1.810563e-05
1.102862e+01	-1.831539e-05
1.109232e+01	-1.852757e-05
1.115639e+01	-1.874222e-05
1.122083e+01	-1.895935e-05
1.128564e+01	-1.917900e-05
1.135083e+01	-1.940120e-05
1.141639e+01	-1.962596e-05
1.148233e+01	-1.985334e-05
1.154865e+01	-2.008334e-05
1.161536e+01	-2.031601e-05
1.168245e+01	-2.055138e-05
1.174992e+01	-2.078947e-05
1.181779e+01	-2.103032e-05
1.188605e+01	-2.127396e-05
1.195470e+01	-2.152043e-05
1.202375e+01	-2.176975e-05
1.209320e+01	-2.202196e-05
1.216305e+01	-2.227709e-05
1.223330e+01	-2.253517e-05
1.230396e+01	-2.279625e-05
1.237503e+01	-2.306035e-05
1.244651e+01	-2.332751e-05
1.251840e+01	-2.359776e-05
1.259070e+01	-2.387115e-05
1.266343e+01	-2.414770e-05
1.273657e+01	-2.442746e-05
1.281014e+01	-2.471046e-05
1.288413e+01	-2.499673e-05
1.295855e+01	-2.528633e-05
1.303339e+01	-2.557927e-05
1.310867e+01	-2.587562e-05
1.318439e+01	-2.617539e-05
1.326054e+01	-2.647864e-05
1.333713e+01	-2.678540e-05
1.341417e+01	-2.709572e-05
1.349165e+01	-2.740963e-05
1.356958e+01	-2.772718e-05
1.364795e+01	-2.804840e-05
1.372678e+01	-2.837335e-05
1.380607e+01	-2.870206e-05
1.388581e+01	-2.903458e-05
1.396602e+01	-2.937095e-05
1.404668e+01	-2.971122e-05
1.412782e+01	-3.005544e-05
1.420942e+01	-3.040363e-05
1.429149e+01	-3.075587e-05
1.437404e+01	-3.111218e-05
1.445706e+01	-3.147262e-05
1.454057e+01	-3.183724e-05
1.462455e+01	-3.220608e-05
1.470902e+01	-3.257920e-05
1.479398e+01	-3.295664e-05
1.487943e+01	-3.333845e-05
1.496537e+01	-3.372468e-05
1.505181e+01	-3.411539e-05
1.513875e+01	-3.451062e-05
1.522619e+01	-3.491044e-05
1.531414e+01	-3.531488e-05
1.540259e+01	-3.572401e-05
1.549156e+01	-3.613789e-05
1.558103e+01	-3.655655e-05
1.567103e+01	-3.698007e-05
1.576155e+01	-3.740849e-05
1.585258e+01	-3.784188e-05
1.594415e+01	-3.828028e-05
1.603624e+01	-3.872377e-05
1.612886e+01	-3.917239e-05
1.622202e+01	-3.962621e-05
1.631572e+01	-4.008529e-05
1.640996e+01	-4.054969e-05
1.650474e+01	-4.101947e-05
1.660008e+01	-4.149469e-05
1.669596e+01	-4.197541e-05
1.679239e+01	-4.246171e-05
1.688938e+01	-4.295363e-05
1.698694e+01	-4.345126e-05
1.708505e+01	-4.395465e-05
1.718373e+01	-4.446388e-05
1.728299e+01	-4.497900e-05
1.738281e+01	-4.550009e-05
1.748322e+01	-4.602722e-05
1.758420e+01	-4.656046e-05
1.768576e+01	-4.709987e-05
1.778792e+01	-4.764553e-05
1.789066e+01	-4.819752e-05
1.799399e+01	-4.875590e-05
1.809793e+01	-4.932074e-05
1.820246e+01	-4.989213e-05
1.830760e+01	-5.047014e-05
1.841334e+01	-5.105485e-05
1.851969e+01	-5.164633e-05
1.862666e+01	-5.224467e-05
1.873425e+01	-5.284993e-05
1.884246e+01	-5.346221e-05
1.895129e+01	-5.408158e-05
1.906075e+01	-5.470813e-05
1.917085e+01	-5.534193e-05
1.928158e+01	-5.598308e-05
1.939295e+01	-5.663165e-05
1.950496e+01	-5.728774e-05
1.961762e+01	-5.795143e-05
1.973093e+01	-5.862281e-05
1.984490e+01	-5.930197e-05
1.995952e+01	-5.998900e-05
2.007480e+01	-6.068398e-05
2.019076e+01	-6.138702e-05
2.030738e+01	-6.209820e-05
2.042467e+01	-6.281762e-05
2.054264e+01	-6.354537e-05
2.066130e+01	-6.428156e-05
2.078064e+01	-6.502627e-05
2.090066e+01	-6.577961e-05
2.102139e+01	-6.654168e-05
2.114280e+01	-6.731258e-05
2.126492e+01	-6.809241e-05
2.138775e+01	-6.888127e-05
2.151128e+01	-6.967927e-05
2.163553e+01	-7.048652e-05
2.176050e+01	-7.130312e-05
2.188619e+01	-7.212918e-05
2.201260e+01	-7.296481e-05
2.213974e+01	-7.381012e-05
2.226762e+01	-7.466522e-05
2.239624e+01	-7.553023e-05
2.252560e+01	-7.640527e-05
2.265571e+01	-7.729043e-05
2.278656e+01	-7.818586e-05
2.291818e+01	-7.909165e-05
2.305055e+01	-8.000794e-05
2.318369e+01	-8.093485e-05
2.331760e+01	-8.187249e-05
2.345228e+01	-8.282100e-05
2.358774e+01	-8.378050e-05
2.372398e+01	-8.475111e-05
2.386101e+01	-8.573296e-05
2.399883e+01	-8.672619e-05
2.413745e+01	-8.773093e-05
2.427686e+01	-8.874731e-05
2.441709e+01	-8.977546e-05
2.455812e+01	-9.081552e-05
2.469997e+01	-9.186763e-05
2.484263e+01	-9.293193e-05
2.498612e+01	-9.400857e-05
2.513044e+01	-9.509767e-05
2.527559e+01	-9.619939e-05
2.542158e+01	-9.731387e-05
2.556842e+01	-9.844127e-05
2.571610e+01	-9.958173e-05
2.586463e+01	-1.007354e-04
2.601403e+01	-1.019024e-04
2.616428e+01	-1.030830e-04
2.631541e+01	-1.042772e-04
2.646740e+01	-1.054853e-04
2.662028e+01	-1.067073e-04
2.677404e+01	-1.079436e-04
2.692868e+01	-1.091941e-04
2.708422e+01	-1.104591e-04
2.724066e+01	-1.117388e-04
2.739800e+01	-1.130333e-04
2.755625e+01	-1.143428e-04
2.771541e+01	-1.156675e-04
2.787550e+01	-1.170075e-04
2.803650e+01	-1.183631e-04
2.819844e+01	-1.197343e-04
2.836131e+01	-1.211215e-04
2.852513e+01	-1.225247e-04
2.868989e+01	-1.239441e-04
2.885560e+01	-1.253800e-04
2.902227e+01	-1.268326e-04
2.918990e+01	-1.283019e-04
2.935850e+01	-1.297883e-04
2.952807e+01	-1.312919e-04
2.969863e+01	-1.328130e-04
2.987016e+01	-1.343516e-04
3.004269e+01	-1.359081e-04
3.021622e+01	-1.374826e-04
3.039075e+01	-1.390754e-04
3.056628e+01	-1.406866e-04
3.074283e+01	-1.423164e-04
3.092040e+01	-1.439652e-04
3.109900e+01	-1.456330e-04
3.127862e+01	-1.473202e-04
3.145929e+01	-1.490269e-04
3.164099e+01	-1.507534e-04
3.182375e+01	-1.524999e-04
3.200756e+01	-1.542666e-04
3.219244e+01	-1.560538e-04
3.237838e+01	-1.578617e-04
3.256540e+01	-1.596905e-04
3.275349e+01	-1.615406e-04
3.294268e+01	-1.634120e-04
3.313295e+01	-1.653052e-04
3.332433e+01	-1.672202e-04
3.351681e+01	-1.691575e-04
3.371040e+01	-1.711172e-04
3.390511e+01	-1.730996e-04
3.410094e+01	-1.751049e-04
3.429791e+01	-1.771335e-04
3.449601e+01	-1.791856e-04
3.469526e+01	-1.812615e-04
3.489566e+01	-1.833614e-04
3.509721e+01	-1.854857e-04
3.529993e+01	-1.876345e-04
3.550382e+01	-1.898083e-04
3.570889e+01	-1.920072e-04
3.591515e+01	-1.942316e-04
3.612259e+01	-1.964818e-04
3.633123e+01	-1.987581e-04
3.654108e+01	-2.010607e-04
3.675214e+01	-2.033900e-04
3.696442e+01	-2.057462e-04
3.717792e+01	-2.081298e-04
3.739266e+01	-2.105410e-04
3.760864e+01	-2.129801e-04
3.782587e+01	-2.154475e-04
3.804435e+01	-2.179434e-04
3.826409e+01	-2.204683e-04
3.848510e+01	-2.230224e-04
3.870739e+01	-2.256061e-04
3.893096e+01	-2.282198e-04
3.915583e+01	-2.308637e-04
3.938199e+01	-2.335382e-04
3.960946e+01	-2.362438e-04
3.983824e+01	-2.389806e-04
4.006834e+01	-2.417492e-04
4.029978e+01	-2.445499e-04
4.053255e+01	-2.473830e-04
4.076666e+01	-2.502489e-04
4.100213e+01	-2.531480e-04
4.123896e+01	-2.560807e-04
4.147715e+01	-2.590474e-04
4.171672e+01	-2.620484e-04
4.195767e+01	-2.650843e-04
4.220002e+01	-2.681552e-04
4.244377e+01	-2.712618e-04
4.268892e+01	-2.744043e-04
4.293549e+01	-2.775833e-04
4.318348e+01	-2.807991e-04
4.343291e+01	-2.840521e-04
4.368377e+01	-2.873428e-04
4.393609e+01	-2.906716e-04
4.418986e+01	-2.940390e-04
4.444510e+01	-2.974454e-04
4.470182e+01	-3.008913e-04
4.496001e+01	-3.043771e-04
4.521970e+01	-3.079033e-04
4.548089e+01	-3.114703e-04
4.574358e+01	-3.150786e-04
4.600779e+01	-3.187288e-04
4.627353e+01	-3.224212e-04
4.654081e+01	-3.261564e-04
4.680963e+01	-3.299348e-04
4.708000e+01	-3.337571e-04
4.735193e+01	-3.376236e-04
4.762543e+01	-3.415349e-04
4.790051e+01	-3.454915e-04
4.817719e+01	-3.494940e-04
4.845545e+01	-3.535428e-04
4.873533e+01	-3.576385e-04
4.901682e+01	-3.617817e-04
4.929994e+01	-3.659729e-04
4.958470e+01	-3.702126e-04
4.987110e+01	-3.745014e-04
5.015915e+01	-3.788399e-04
5.044887e+01	-3.832287e-04
5.074026e+01	-3.876683e-04
5.103333e+01	-3.921594e-04
5.132810e+01	-3.967024e-04
5.162457e+01	-4.012981e-04
5.192275e+01	-4.059470e-04
5.222265e+01	-4.106498e-04
5.252429e+01	-4.154071e-04
5.282767e+01	-4.202195e-04
5.313280e+01	-4.250876e-04
5.343969e+01	-4.300121e-04
5.374836e+01	-4.349937e-04
5.405880e+01	-4.400329e-04
5.437105e+01	-4.451306e-04
5.468509e+01	-4.502873e-04
5.500095e+01	-4.555037e-04
5.531863e+01	-4.607806e-04
5.563815e+01	-4.661185e-04
5.595951e+01	-4.715184e-04
5.628273e+01	-4.769807e-04
5.660782e+01	-4.825064e-04
5.693479e+01	-4.880960e-04
5.726364e+01	-4.937504e-04
5.759439e+01	-4.994703e-04
5.792705e+01	-5.052565e-04
5.826164e+01	-5.111097e-04
5.859815e+01	-5.170307e-04
5.893662e+01	-5.230203e-04
5.927703e+01	-5.290792e-04
5.961941e+01	-5.352084e-04
5.996377e+01	-5.414085e-04
6.031012e+01	-5.476805e-04
6.065847e+01	-5.540251e-04
6.100883e+01	-5.604433e-04
6.136121e+01	-5.669357e-04
6.171563e+01	-5.735034e-04
6.207210e+01	-5.801471e-04
6.243063e+01	-5.868679e-04
6.279122e+01	-5.936664e-04
6.315390e+01	-6.005437e-04
6.351868e+01	-6.075007e-04
6.388556e+01	-6.145383e-04
6.425456e+01	-6.216574e-04
6.462569e+01	-6.288589e-04
6.499897e+01	-6.361439e-04
6.537440e+01	-6.435132e-04
6.575200e+01	-6.509679e-04
6.613178e+01	-6.585090e-04
6.651375e+01	-6.661374e-04
6.689793e+01	-6.738542e-04
6.728433e+01	-6.816604e-04
6.767297e+01	-6.895570e-04
6.806384e+01	-6.975451e-04
6.845698e+01	-7.056257e-04
6.885238e+01	-7.137999e-04
6.925007e+01	-7.220687e-04
6.965005e+01	-7.304334e-04
7.005235e+01	-7.388949e-04
7.045697e+01	-7.474545e-04
7.086393e+01	-7.561132e-04
7.127323e+01	-7.648722e-04
7.168490e+01	-7.737327e-04
7.209895e+01	-7.826958e-04
7.251539e+01	-7.917627e-04
7.293424e+01	-8.009346e-04
7.335551e+01	-8.102128e-04
7.377920e+01	-8.195985e-04
7.420535e+01	-8.290928e-04
7.463396e+01	-8.386972e-04
7.506504e+01	-8.484128e-04
7.549861e+01	-8.582409e-04
7.593469e+01	-8.681829e-04
7.637328e+01	-8.782400e-04
7.681441e+01	-8.884136e-04
7.725809e+01	-8.987050e-04
7.770433e+01	-9.091157e-04
7.815315e+01	-9.196469e-04
7.860456e+01	-9.303001e-04
7.905857e+01	-9.410768e-04
7.951521e+01	-9.519782e-04
7.997449e+01	-9.630059e-04
8.043642e+01	-9.741613e-04
8.090102e+01	-9.854460e-04
8.136830e+01	-9.968613e-04
8.183828e+01	-1.008409e-03
8.231097e+01	-1.020090e-03
8.278640e+01	-1.031907e-03
8.326457e+01	-1.043860e-03
8.374550e+01	-1.055952e-03
8.422921e+01	-1.068184e-03
8.471572e+01	-1.080558e-03
8.520503e+01	-1.093075e-03
8.569717e+01	-1.105737e-03
8.619215e+01	-1.118545e-03
8.669000e+01	-1.131502e-03
8.719071e+01	-1.144609e-03
8.769432e+01	-1.157868e-03
8.820084e+01	-1.171281e-03
8.871029e+01	-1.184848e-03
8.922267e+01	-1.198573e-03
8.973802e+01	-1.212457e-03
9.025634e+01	-1.226502e-03
9.077766e+01	-1.240709e-03
9.130199e+01	-1.255081e-03
9.182935e+01	-1.269619e-03
9.235975e+01	-1.284326e-03
9.289321e+01	-1.299203e-03
9.342976e+01	-1.314252e-03
9.396941e+01	-1.329476e-03
9.451217e+01	-1.344876e-03
9.505807e+01	-1.360454e-03
9.560712e+01	-1.376213e-03
9.615934e+01	-1.392154e-03
9.671476e+01	-1.408280e-03
9.727338e+01	-1.424593e-03
9.783522e+01	-1.441094e-03
9.840032e+01	-1.457787e-03
9.896867e+01	-1.474673e-03
9.954031e+01	-1.491755e-03
1.001153e+02	-1.509034e-03
1.006935e+02	-1.526513e-03
1.012751e+02	-1.544195e-03
1.018601e+02	-1.562082e-03
1.024484e+02	-1.580176e-03
1.030402e+02	-1.598479e-03
1.036353e+02	-1.616995e-03
1.042339e+02	-1.635724e-03
1.048360e+02	-1.654671e-03
1.054415e+02	-1.673837e-03
1.060505e+02	-1.693225e-03
1.066631e+02	-1.712838e-03
1.072791e+02	-1.732678e-03
1.078988e+02	-1.752747e-03
1.085220e+02	-1.773049e-03
1.091488e+02	-1.793586e-03
1.097793e+02	-1.814361e-03
1.104133e+02	-1.835376e-03
1.110511e+02	-1.856635e-03
1.116925e+02	-1.878140e-03
1.123376e+02	-1.899894e-03
1.129865e+02	-1.921900e-03
1.136391e+02	-1.944161e-03
1.142955e+02	-1.966679e-03
1.149556e+02	-1.989458e-03
1.156196e+02	-2.012501e-03
1.162874e+02	-2.035811e-03
1.169591e+02	-2.059391e-03
1.176347e+02	-2.083244e-03
1.183141e+02	-2.107373e-03
1.189975e+02	-2.131782e-03
1.196848e+02	-2.156473e-03
1.203761e+02	-2.181450e-03
1.210714e+02	-2.206716e-03
1.217707e+02	-2.232275e-03
1.224740e+02	-2.258130e-03
1.231814e+02	-2.284284e-03
1.238929e+02	-2.310741e-03
1.246085e+02	-2.337504e-03
1.253283e+02	-2.364577e-03
1.260522e+02	-2.391964e-03
1.267802e+02	-2.419668e-03
1.275125e+02	-2.447692e-03
1.282490e+02	-2.476041e-03
1.289898e+02	-2.504719e-03
1.297348e+02	-2.533728e-03
1.304842e+02	-2.563073e-03
1.312378e+02	-2.592758e-03
1.319959e+02	-2.622787e-03
1.327583e+02	-2.653163e-03
1.335251e+02	-2.683891e-03
1.342963e+02	-2.714975e-03
1.350720e+02	-2.746419e-03
1.358522e+02	-2.778227e-03
1.366368e+02	-2.810403e-03
1.374260e+02	-2.842951e-03
1.382198e+02	-2.875877e-03
1.390182e+02	-2.909183e-03
1.398211e+02	-2.942876e-03
1.406287e+02	-2.976958e-03
1.414410e+02	-3.011435e-03
1.422579e+02	-3.046311e-03
1.430796e+02	-3.081591e-03
1.439060e+02	-3.117279e-03
1.447372e+02	-3.153380e-03
1.455732e+02	-3.189899e-03
1.464141e+02	-3.226841e-03
1.472597e+02	-3.264211e-03
1.481103e+02	-3.302014e-03
1.489658e+02	-3.340253e-03
1.498262e+02	-3.378936e-03
1.506916e+02	-3.418067e-03
1.515620e+02	-3.457650e-03
1.524374e+02	-3.497692e-03
1.533179e+02	-3.538197e-03
1.542034e+02	-3.579171e-03
1.550941e+02	-3.620619e-03
1.559899e+02	-3.662547e-03
1.568909e+02	-3.704960e-03
1.577971e+02	-3.747865e-03
1.587085e+02	-3.791266e-03
1.596252e+02	-3.835169e-03
1.605472e+02	-3.879581e-03
1.614745e+02	-3.924506e-03
1.624072e+02	-3.969952e-03
1.633453e+02	-4.015924e-03
1.642887e+02	-4.062427e-03
1.652377e+02	-4.109469e-03
1.661921e+02	-4.157056e-03
1.671520e+02	-4.205193e-03
1.681175e+02	-4.253887e-03
1.690885e+02	-4.303145e-03
1.700651e+02	-4.352973e-03
1.710474e+02	-4.403378e-03
1.720354e+02	-4.454366e-03
1.730291e+02	-4.505944e-03
1.740285e+02	-4.558119e-03
1.750337e+02	-4.610898e-03
1.760446e+02	-4.664288e-03
1.770615e+02	-4.718295e-03
1.780842e+02	-4.772928e-03
1.791128e+02	-4.828192e-03
1.801473e+02	-4.884097e-03
1.811878e+02	-4.940648e-03
1.822344e+02	-4.997854e-03
1.832870e+02	-5.055721e-03
1.843456e+02	-5.114259e-03
1.854104e+02	-5.173473e-03
1.864813e+02	-5.233373e-03
1.875584e+02	-5.293966e-03
1.886418e+02	-5.355260e-03
1.897313e+02	-5.417263e-03
1.908272e+02	-5.479984e-03
1.919294e+02	-5.543430e-03
1.930380e+02	-5.607611e-03
1.941530e+02	-5.672534e-03
1.952744e+02	-5.738208e-03
1.964023e+02	-5.804642e-03
1.975367e+02	-5.871845e-03
1.986777e+02	-5.939825e-03
1.998252e+02	-6.008591e-03
2.009794e+02	-6.078154e-03
2.021403e+02	-6.148521e-03
2.033078e+02	-6.219702e-03
2.044821e+02	-6.291706e-03
2.056632e+02	-6.364544e-03
2.068511e+02	-6.438224e-03
2.080459e+02	-6.512756e-03
2.092475e+02	-6.588150e-03
2.104561e+02	-6.664417e-03
2.116717e+02	-6.741566e-03
2.128943e+02	-6.819607e-03
2.141240e+02	-6.898551e-03
2.153608e+02	-6.978408e-03
2.166047e+02	-7.059189e-03
2.178558e+02	-7.140904e-03
2.191141e+02	-7.223564e-03
2.203797e+02	-7.307180e-03
2.216526e+02	-7.391764e-03
2.229329e+02	-7.477325e-03
2.242205e+02	-7.563876e-03
2.255156e+02	-7.651428e-03
2.268182e+02	-7.739993e-03
2.281283e+02	-7.829581e-03
2.294459e+02	-7.920206e-03
2.307712e+02	-8.011879e-03
2.321041e+02	-8.104611e-03
2.334447e+02	-8.198416e-03
2.347931e+02	-8.293306e-03
2.361493e+02	-8.389293e-03
2.375133e+02	-8.486390e-03
2.388851e+02	-8.584609e-03
2.402649e+02	-8.683964e-03
2.416527e+02	-8.784468e-03
2.430484e+02	-8.886134e-03
2.444523e+02	-8.988975e-03
2.458642e+02	-9.093005e-03
2.472843e+02	-9.198238e-03
2.487126e+02	-9.304687e-03
2.501492e+02	-9.412367e-03
2.515940e+02	-9.521292e-03
2.530472e+02	-9.631476e-03
2.545088e+02	-9.742933e-03
2.559789e+02	-9.855679e-03
2.574574e+02	-9.969728e-03
2.589444e+02	-1.008510e-02
2.604401e+02	-1.020180e-02
2.619444e+02	-1.031985e-02
2.634574e+02	-1.043926e-02
2.649791e+02	-1.056005e-02
2.665096e+02	-1.068224e-02
2.680489e+02	-1.080584e-02
2.695972e+02	-1.093088e-02
2.711544e+02	-1.105735e-02
2.727205e+02	-1.118529e-02
2.742958e+02	-1.131470e-02
2.758801e+02	-1.144561e-02
2.774736e+02	-1.157803e-02
2.790762e+02	-1.171199e-02
2.806882e+02	-1.184749e-02
2.823094e+02	-1.198455e-02
2.839400e+02	-1.212320e-02
2.855800e+02	-1.226346e-02
2.872295e+02	-1.240533e-02
2.888886e+02	-1.254884e-02
2.905572e+02	-1.269401e-02
2.922354e+02	-1.284085e-02
2.939234e+02	-1.298939e-02
2.956211e+02	-1.313965e-02
2.973286e+02	-1.329164e-02
2.990459e+02	-1.344539e-02
3.007732e+02	-1.360091e-02
3.025104e+02	-1.375823e-02
3.042577e+02	-1.391737e-02
3.060151e+02	-1.407834e-02
3.077826e+02	-1.424117e-02
3.095604e+02	-1.440589e-02
3.113484e+02	-1.457250e-02
3.131467e+02	-1.474104e-02
3.149554e+02	-1.491152e-02
3.167746e+02	-1.508398e-02
3.186043e+02	-1.525842e-02
3.204445e+02	-1.543488e-02
3.222954e+02	-1.561337e-02
3.241570e+02	-1.579393e-02
3.260293e+02	-1.597656e-02
3.279124e+02	-1.616131e-02
3.298064e+02	-1.634819e-02
3.317114e+02	-1.653723e-02
3.336273e+02	-1.672844e-02
3.355544e+02	-1.692187e-02
3.374925e+02	-1.711752e-02
3.394418e+02	-1.731544e-02
3.414024e+02	-1.751564e-02
3.433744e+02	-1.771814e-02
3.453577e+02	-1.792299e-02
3.473525e+02	-1.813019e-02
3.493588e+02	-1.833979e-02
3.513766e+02	-1.855181e-02
3.534062e+02	-1.876627e-02
3.554474e+02	-1.898320e-02
3.575005e+02	-1.920264e-02
3.595654e+02	-1.942461e-02
3.616422e+02	-1.964914e-02
3.637311e+02	-1.987625e-02
3.658320e+02	-2.010599e-02
3.679450e+02	-2.033837e-02
3.700702e+02	-2.057344e-02
3.722077e+02	-2.081121e-02
3.743576e+02	-2.105173e-02
3.765199e+02	-2.129502e-02
3.786946e+02	-2.154111e-02
3.808820e+02	-2.179005e-02
3.830819e+02	-2.204185e-02
3.852946e+02	-2.229655e-02
3.875200e+02	-2.255419e-02
3.897583e+02	-2.281479e-02
3.920096e+02	-2.307840e-02
3.942738e+02	-2.334505e-02
3.965511e+02	-2.361477e-02
3.988416e+02	-2.388760e-02
4.011452e+02	-2.416357e-02
4.034622e+02	-2.444272e-02
4.057926e+02	-2.472509e-02
4.081365e+02	-2.501070e-02
4.104938e+02	-2.529961e-02
4.128648e+02	-2.559185e-02
4.152495e+02	-2.588745e-02
4.176480e+02	-2.618645e-02
4.200603e+02	-2.648890e-02
4.224866e+02	-2.679483e-02
4.249268e+02	-2.710428e-02
4.273812e+02	-2.741730e-02
4.298497e+02	-2.773392e-02
4.323325e+02	-2.805418e-02
4.348297e+02	-2.837813e-02
4.373412e+02	-2.870581e-02
4.398673e+02	-2.903726e-02
4.424079e+02	-2.937252e-02
4.449633e+02	-2.971164e-02
4.475334e+02	-3.005466e-02
4.501183e+02	-3.040163e-02
4.527182e+02	-3.075259e-02
4.553330e+02	-3.110758e-02
4.579630e+02	-3.146666e-02
4.606082e+02	-3.182987e-02
4.632687e+02	-3.219725e-02
4.659445e+02	-3.256886e-02
4.686358e+02	-3.294475e-02
4.713426e+02	-3.332495e-02
4.740650e+02	-3.370953e-02
4.768032e+02	-3.409852e-02
4.795572e+02	-3.449199e-02
4.823271e+02	-3.488997e-02
4.851130e+02	-3.529254e-02
4.879150e+02	-3.569972e-02
4.907332e+02	-3.611159e-02
4.935676e+02	-3.652818e-02
4.964185e+02	-3.694957e-02
4.992858e+02	-3.737579e-02
5.021696e+02	-3.780691e-02
5.050701e+02	-3.824297e-02
5.079874e+02	-3.868405e-02
5.109215e+02	-3.913019e-02
5.138726e+02	-3.958145e-02
5.168407e+02	-4.003789e-02
5.198259e+02	-4.049957e-02
5.228284e+02	-4.096655e-02
5.258482e+02	-4.143889e-02
5.288855e+02	-4.191664e-02
5.319403e+02	-4.239988e-02
5.350128e+02	-4.288866e-02
5.381030e+02	-4.338305e-02
5.412111e+02	-4.388311e-02
5.443371e+02	-4.438890e-02
5.474812e+02	-4.490049e-02
5.506434e+02	-4.541795e-02
5.538239e+02	-4.594133e-02
5.570228e+02	-4.647072e-02
5.602401e+02	-4.700618e-02
5.634760e+02	-4.754776e-02
5.667306e+02	-4.809556e-02
5.700040e+02	-4.864963e-02
5.732964e+02	-4.921005e-02
5.766077e+02	-4.977688e-02
5.799382e+02	-5.035021e-02
5.832879e+02	-5.093010e-02
5.866569e+02	-5.151663e-02
5.900454e+02	-5.210988e-02
5.934535e+02	-5.270991e-02
5.968813e+02	-5.331681e-02
6.003288e+02	-5.393066e-02
6.037963e+02	-5.455153e-02
6.072838e+02	-5.517950e-02
6.107914e+02	-5.581465e-02
6.143194e+02	-5.645707e-02
6.178676e+02	-5.710683e-02
6.214364e+02	-5.776402e-02
6.250258e+02	-5.842872e-02
6.286359e+02	-5.910102e-02
6.322669e+02	-5.978100e-02
6.359189e+02	-6.046875e-02
6.395919e+02	-6.116435e-02
6.432862e+02	-6.186790e-02
6.470017e+02	-6.257948e-02
6.507388e+02	-6.329919e-02
6.544974e+02	-6.402712e-02
6.582778e+02	-6.476335e-02
6.620800e+02	-6.550798e-02
6.659041e+02	-6.626111e-02
6.697504e+02	-6.702283e-02
6.736188e+02	-6.779324e-02
6.775096e+02	-6.857244e-02
6.814229e+02	-6.936052e-02
6.853587e+02	-7.015758e-02
6.893173e+02	-7.096373e-02
6.932988e+02	-7.177906e-02
6.973033e+02	-7.260368e-02
7.013309e+02	-7.343770e-02
