Frequency(Hz)	Magnitude(dB)
1.000000e+01	-2.146878e+00
1.005776e+01	-2.166377e+00
1.011585e+01	-2.186111e+00
1.017428e+01	-2.206124e+00
1.023305e+01	-2.225851e+00
1.029215e+01	-2.246191e+00
1.035160e+01	-2.266610e+00
1.041139e+01	-2.286843e+00
1.047153e+01	-2.307420e+00
1.053201e+01	-2.327943e+00
1.059284e+01	-2.348718e+00
1.065403e+01	-2.369997e+00
1.071556e+01	-2.390875e+00
1.077746e+01	-2.412135e+00
1.083971e+01	-2.433611e+00
1.090232e+01	-2.455006e+00
1.096529e+01	-2.476712e+00
1.102862e+01	-2.498598e+00
1.109232e+01	-2.520469e+00
1.115639e+01	-2.542748e+00
1.122083e+01	-2.564931e+00
1.128564e+01	-2.587349e+00
1.135083e+01	-2.609686e+00
1.141639e+01	-2.632495e+00
1.148233e+01	-2.655273e+00
1.154865e+01	-2.678119e+00
1.161536e+01	-2.701153e+00
1.168245e+01	-2.724622e+00
1.174992e+01	-2.747879e+00
1.181779e+01	-2.771435e+00
1.188605e+01	-2.795307e+00
1.195470e+01	-2.818868e+00
1.202375e+01	-2.842903e+00
1.209320e+01	-2.867164e+00
1.216305e+01	-2.891173e+00
1.223330e+01	-2.915444e+00
1.230396e+01	-2.940320e+00
1.237503e+01	-2.964752e+00
1.244651e+01	-2.989606e+00
1.251840e+01	-3.014515e+00
1.259070e+01	-3.039895e+00
1.266343e+01	-3.065038e+00
1.273657e+01	-3.090360e+00
1.281014e+01	-3.116044e+00
1.288413e+01	-3.141500e+00
1.295855e+01	-3.167557e+00
1.303339e+01	-3.193478e+00
1.310867e+01	-3.219334e+00
1.318439e+01	-3.246009e+00
1.326054e+01	-3.272280e+00
1.333713e+01	-3.298811e+00
1.341417e+01	-3.325454e+00
1.349165e+01	-3.352424e+00
1.356958e+01	-3.379293e+00
1.364795e+01	-3.406482e+00
1.372678e+01	-3.433721e+00
1.380607e+01	-3.461025e+00
1.388581e+01	-3.488670e+00
1.396602e+01	-3.516263e+00
1.404668e+01	-3.543866e+00
1.412782e+01	-3.572117e+00
1.420942e+01	-3.600287e+00
1.429149e+01	-3.628704e+00
1.437404e+01	-3.657064e+00
1.445706e+01	-3.685546e+00
1.454057e+01	-3.714135e+00
1.462455e+01	-3.742874e+00
1.470902e+01	-3.772004e+00
1.479398e+01	-3.800975e+00
1.487943e+01	-3.830530e+00
1.496537e+01	-3.859518e+00
1.505181e+01	-3.889469e+00
1.513875e+01	-3.918874e+00
1.522619e+01	-3.948651e+00
1.531414e+01	-3.978505e+00
1.540259e+01	-4.008602e+00
1.549156e+01	-4.039013e+00
1.558103e+01	-4.069248e+00
1.567103e+01	-4.099684e+00
1.576155e+01	-4.130267e+00
1.585258e+01	-4.161389e+00
1.594415e+01	-4.192112e+00
1.603624e+01	-4.223203e+00
1.612886e+01	-4.254284e+00
1.622202e+01	-4.285589e+00
1.631572e+01	-4.317085e+00
1.640996e+01	-4.348665e+00
1.650474e+01	-4.380399e+00
1.660008e+01	-4.412258e+00
1.669596e+01	-4.444242e+00
1.679239e+01	-4.476181e+00
1.688938e+01	-4.508639e+00
1.698694e+01	-4.540833e+00
1.708505e+01	-4.573413e+00
1.718373e+01	-4.605952e+00
1.728299e+01	-4.638829e+00
1.738281e+01	-4.671875e+00
1.748322e+01	-4.704581e+00
1.758420e+01	-4.738062e+00
1.768576e+01	-4.771139e+00
1.778792e+01	-4.804556e+00
1.789066e+01	-4.838196e+00
1.799399e+01	-4.871878e+00
1.809793e+01	-4.905482e+00
1.820246e+01	-4.939604e+00
1.830760e+01	-4.973607e+00
1.841334e+01	-5.007801e+00
1.851969e+01	-5.042063e+00
1.862666e+01	-5.076356e+00
1.873425e+01	-5.110916e+00
1.884246e+01	-5.145938e+00
1.895129e+01	-5.180465e+00
1.906075e+01	-5.215408e+00
1.917085e+01	-5.250536e+00
1.928158e+01	-5.285491e+00
1.939295e+01	-5.321088e+00
1.950496e+01	-5.356398e+00
1.961762e+01	-5.391588e+00
1.973093e+01	-5.427358e+00
1.984490e+01	-5.463113e+00
1.995952e+01	-5.499099e+00
2.007480e+01	-5.535042e+00
2.019076e+01	-5.571085e+00
2.030738e+01	-5.607379e+00
2.042467e+01	-5.643789e+00
2.054264e+01	-5.679939e+00
2.066130e+01	-5.716541e+00
2.078064e+01	-5.753520e+00
2.090066e+01	-5.789987e+00
2.102139e+01	-5.826743e+00
2.114280e+01	-5.863833e+00
2.126492e+01	-5.900958e+00
2.138775e+01	-5.938297e+00
2.151128e+01	-5.975638e+00
2.163553e+01	-6.012931e+00
2.176050e+01	-6.050229e+00
2.188619e+01	-6.088100e+00
2.201260e+01	-6.125910e+00
2.213974e+01	-6.163813e+00
2.226762e+01	-6.201849e+00
2.239624e+01	-6.239602e+00
2.252560e+01	-6.278218e+00
2.265571e+01	-6.316008e+00
2.278656e+01	-6.354973e+00
2.291818e+01	-6.393024e+00
2.305055e+01	-6.431743e+00
2.318369e+01	-6.470676e+00
2.331760e+01	-6.509373e+00
2.345228e+01	-6.547921e+00
2.358774e+01	-6.587325e+00
2.372398e+01	-6.626359e+00
2.386101e+01	-6.665526e+00
2.399883e+01	-6.705000e+00
2.413745e+01	-6.744403e+00
2.427686e+01	-6.783604e+00
2.441709e+01	-6.823420e+00
2.455812e+01	-6.862886e+00
2.469997e+01	-6.902934e+00
2.484263e+01	-6.942569e+00
2.498612e+01	-6.982942e+00
2.513044e+01	-7.022705e+00
2.527559e+01	-7.062771e+00
2.542158e+01	-7.102922e+00
2.556842e+01	-7.143382e+00
2.571610e+01	-7.183770e+00
2.586463e+01	-7.224417e+00
2.601403e+01	-7.264717e+00
2.616428e+01	-7.305777e+00
2.631541e+01	-7.346948e+00
2.646740e+01	-7.387043e+00
2.662028e+01	-7.428115e+00
2.677404e+01	-7.469442e+00
2.692868e+01	-7.510220e+00
2.708422e+01	-7.551534e+00
2.724066e+01	-7.592793e+00
2.739800e+01	-7.634048e+00
2.755625e+01	-7.675413e+00
2.771541e+01	-7.717161e+00
2.787550e+01	-7.758716e+00
2.803650e+01	-7.799966e+00
2.819844e+01	-7.841903e+00
2.836131e+01	-7.884007e+00
2.852513e+01	-7.925340e+00
2.868989e+01	-7.967743e+00
2.885560e+01	-8.009783e+00
2.902227e+01	-8.052141e+00
2.918990e+01	-8.094038e+00
2.935850e+01	-8.136702e+00
2.952807e+01	-8.178695e+00
2.969863e+01	-8.221677e+00
2.987016e+01	-8.263906e+00
3.004269e+01	-8.306988e+00
3.021622e+01	-8.348820e+00
3.039075e+01	-8.391933e+00
3.056628e+01	-8.434739e+00
3.074283e+01	-8.477721e+00
3.092040e+01	-8.520795e+00
3.109900e+01	-8.563988e+00
3.127862e+01	-8.606695e+00
3.145929e+01	-8.649619e+00
3.164099e+01	-8.693260e+00
3.182375e+01	-8.736634e+00
3.200756e+01	-8.779955e+00
3.219244e+01	-8.823229e+00
3.237838e+01	-8.866817e+00
3.256540e+01	-8.910757e+00
3.275349e+01	-8.954232e+00
3.294268e+01	-8.997351e+00
3.313295e+01	-9.041310e+00
3.332433e+01	-9.084588e+00
3.351681e+01	-9.128950e+00
3.371040e+01	-9.172869e+00
3.390511e+01	-9.216859e+00
3.410094e+01	-9.261239e+00
3.429791e+01	-9.305266e+00
3.449601e+01	-9.349520e+00
3.469526e+01	-9.394035e+00
3.489566e+01	-9.437745e+00
3.509721e+01	-9.481967e+00
3.529993e+01	-9.526338e+00
3.550382e+01	-9.571254e+00
3.570889e+01	-9.615722e+00
3.591515e+01	-9.660866e+00
3.612259e+01	-9.704891e+00
3.633123e+01	-9.749515e+00
3.654108e+01	-9.794625e+00
3.675214e+01	-9.839506e+00
3.696442e+01	-9.883982e+00
3.717792e+01	-9.929109e+00
3.739266e+01	-9.973743e+00
3.760864e+01	-1.001891e+01
3.782587e+01	-1.006410e+01
3.804435e+01	-1.010970e+01
3.826409e+01	-1.015461e+01
3.848510e+01	-1.019974e+01
3.870739e+01	-1.024488e+01
3.893096e+01	-1.029046e+01
3.915583e+01	-1.033590e+01
3.938199e+01	-1.038145e+01
3.960946e+01	-1.042671e+01
3.983824e+01	-1.047227e+01
4.006834e+01	-1.051732e+01
4.029978e+01	-1.056281e+01
4.053255e+01	-1.060855e+01
4.076666e+01	-1.065458e+01
4.100213e+01	-1.070013e+01
4.123896e+01	-1.074628e+01
4.147715e+01	-1.079135e+01
4.171672e+01	-1.083788e+01
4.195767e+01	-1.088440e+01
4.220002e+01	-1.092938e+01
4.244377e+01	-1.097593e+01
4.268892e+01	-1.102194e+01
4.293549e+01	-1.106781e+01
4.318348e+01	-1.111427e+01
4.343291e+01	-1.115981e+01
4.368377e+01	-1.120669e+01
4.393609e+01	-1.125273e+01
4.418986e+01	-1.129887e+01
4.444510e+01	-1.134503e+01
4.470182e+01	-1.139160e+01
4.496001e+01	-1.143784e+01
4.521970e+01	-1.148447e+01
4.548089e+01	-1.153081e+01
4.574358e+01	-1.157697e+01
4.600779e+01	-1.162416e+01
4.627353e+01	-1.167075e+01
4.654081e+01	-1.171794e+01
4.680963e+01	-1.176405e+01
4.708000e+01	-1.181083e+01
4.735193e+01	-1.185779e+01
4.762543e+01	-1.190425e+01
4.790051e+01	-1.195094e+01
4.817719e+01	-1.199734e+01
4.845545e+01	-1.204499e+01
4.873533e+01	-1.209128e+01
4.901682e+01	-1.213863e+01
4.929994e+01	-1.218600e+01
4.958470e+01	-1.223238e+01
4.987110e+01	-1.227972e+01
5.015915e+01	-1.232735e+01
5.044887e+01	-1.237342e+01
5.074026e+01	-1.242120e+01
5.103333e+01	-1.246863e+01
5.132810e+01	-1.251507e+01
5.162457e+01	-1.256312e+01
5.192275e+01	-1.260969e+01
5.222265e+01	-1.265756e+01
5.252429e+01	-1.270455e+01
5.282767e+01	-1.275181e+01
5.313280e+01	-1.279969e+01
5.343969e+01	-1.284745e+01
5.374836e+01	-1.289445e+01
5.405880e+01	-1.294102e+01
5.437105e+01	-1.298934e+01
5.468509e+01	-1.303676e+01
5.500095e+01	-1.308460e+01
5.531863e+01	-1.313207e+01
5.563815e+01	-1.317955e+01
5.595951e+01	-1.322758e+01
5.628273e+01	-1.327523e+01
5.660782e+01	-1.332198e+01
5.693479e+01	-1.336978e+01
5.726364e+01	-1.341780e+01
5.759439e+01	-1.346601e+01
5.792705e+01	-1.351323e+01
5.826164e+01	-1.356047e+01
5.859815e+01	-1.360902e+01
5.893662e+01	-1.365650e+01
5.927703e+01	-1.370437e+01
5.961941e+01	-1.375298e+01
5.996377e+01	-1.380020e+01
6.031012e+01	-1.384889e+01
6.065847e+01	-1.389649e+01
6.100883e+01	-1.394467e+01
6.136121e+01	-1.399164e+01
6.171563e+01	-1.404059e+01
6.207210e+01	-1.408844e+01
6.243063e+01	-1.413760e+01
6.279122e+01	-1.418426e+01
6.315390e+01	-1.423331e+01
6.351868e+01	-1.428059e+01
6.388556e+01	-1.432878e+01
6.425456e+01	-1.437738e+01
6.462569e+01	-1.442517e+01
6.499897e+01	-1.447410e+01
6.537440e+01	-1.452219e+01
6.575200e+01	-1.457070e+01
6.613178e+01	-1.461967e+01
6.651375e+01	-1.466765e+01
6.689793e+01	-1.471607e+01
6.728433e+01	-1.476390e+01
6.767297e+01	-1.481180e+01
6.806384e+01	-1.486043e+01
6.845698e+01	-1.490996e+01
6.885238e+01	-1.495821e+01
6.925007e+01	-1.500583e+01
6.965005e+01	-1.505348e+01
7.005235e+01	-1.510221e+01
7.045697e+01	-1.515131e+01
7.086393e+01	-1.519944e+01
7.127323e+01	-1.524833e+01
7.168490e+01	-1.529664e+01
7.209895e+01	-1.534525e+01
7.251539e+01	-1.539301e+01
7.293424e+01	-1.544256e+01
7.335551e+01	-1.549040e+01
7.377920e+01	-1.554017e+01
7.420535e+01	-1.558801e+01
7.463396e+01	-1.563633e+01
7.506504e+01	-1.568536e+01
7.549861e+01	-1.573473e+01
7.593469e+01	-1.578307e+01
7.637328e+01	-1.583270e+01
7.681441e+01	-1.588094e+01
7.725809e+01	-1.592908e+01
7.770433e+01	-1.597840e+01
7.815315e+01	-1.602695e+01
7.860456e+01	-1.607600e+01
7.905857e+01	-1.612410e+01
7.951521e+01	-1.617227e+01
7.997449e+01	-1.622190e+01
8.043642e+01	-1.627150e+01
8.090102e+01	-1.632007e+01
8.136830e+01	-1.636833e+01
8.183828e+01	-1.641737e+01
8.231097e+01	-1.646710e+01
8.278640e+01	-1.651598e+01
8.326457e+01	-1.656531e+01
8.374550e+01	-1.661325e+01
8.422921e+01	-1.666220e+01
8.471572e+01	-1.671067e+01
8.520503e+01	-1.675961e+01
8.569717e+01	-1.680914e+01
8.619215e+01	-1.685885e+01
8.669000e+01	-1.690707e+01
8.719071e+01	-1.695631e+01
8.769432e+01	-1.700423e+01
8.820084e+01	-1.705372e+01
8.871029e+01	-1.710334e+01
8.922267e+01	-1.715324e+01
8.973802e+01	-1.720175e+01
9.025634e+01	-1.724931e+01
9.077766e+01	-1.729972e+01
9.130199e+01	-1.734947e+01
9.182935e+01	-1.739747e+01
9.235975e+01	-1.744719e+01
9.289321e+01	-1.749595e+01
9.342976e+01	-1.754590e+01
9.396941e+01	-1.759423e+01
9.451217e+01	-1.764443e+01
9.505807e+01	-1.769246e+01
9.560712e+01	-1.774116e+01
9.615934e+01	-1.779178e+01
9.671476e+01	-1.784070e+01
9.727338e+01	-1.789016e+01
9.783522e+01	-1.793869e+01
9.840032e+01	-1.798857e+01
9.896867e+01	-1.803703e+01
9.954031e+01	-1.808656e+01
1.001153e+02	-1.813522e+01
1.006935e+02	-1.818551e+01
1.012751e+02	-1.823384e+01
1.018601e+02	-1.828267e+01
1.024484e+02	-1.833366e+01
1.030402e+02	-1.838230e+01
1.036353e+02	-1.843146e+01
1.042339e+02	-1.848017e+01
1.048360e+02	-1.852924e+01
1.054415e+02	-1.858051e+01
1.060505e+02	-1.862842e+01
1.066631e+02	-1.867576e+01
1.072791e+02	-1.872778e+01
1.078988e+02	-1.877628e+01
1.085220e+02	-1.882676e+01
1.091488e+02	-1.887589e+01
1.097793e+02	-1.892435e+01
1.104133e+02	-1.897263e+01
1.110511e+02	-1.902352e+01
1.116925e+02	-1.907336e+01
1.123376e+02	-1.912264e+01
1.129865e+02	-1.917326e+01
1.136391e+02	-1.922115e+01
1.142955e+02	-1.927018e+01
1.149556e+02	-1.931992e+01
1.156196e+02	-1.936959e+01
1.162874e+02	-1.942048e+01
1.169591e+02	-1.946922e+01
1.176347e+02	-1.951711e+01
1.183141e+02	-1.956867e+01
1.189975e+02	-1.961866e+01
1.196848e+02	-1.966742e+01
1.203761e+02	-1.971730e+01
1.210714e+02	-1.976519e+01
1.217707e+02	-1.981588e+01
1.224740e+02	-1.986523e+01
1.231814e+02	-1.991363e+01
1.238929e+02	-1.996440e+01
1.246085e+02	-2.001241e+01
1.253283e+02	-2.006313e+01
1.260522e+02	-2.011112e+01
1.267802e+02	-2.016239e+01
1.275125e+02	-2.021352e+01
1.282490e+02	-2.026123e+01
1.289898e+02	-2.030960e+01
1.297348e+02	-2.036082e+01
1.304842e+02	-2.041056e+01
1.312378e+02	-2.045948e+01
1.319959e+02	-2.050979e+01
1.327583e+02	-2.055867e+01
1.335251e+02	-2.060789e+01
1.342963e+02	-2.065798e+01
1.350720e+02	-2.070738e+01
1.358522e+02	-2.075695e+01
1.366368e+02	-2.080624e+01
1.374260e+02	-2.085590e+01
1.382198e+02	-2.090433e+01
1.390182e+02	-2.095677e+01
1.398211e+02	-2.100729e+01
1.406287e+02	-2.105397e+01
1.414410e+02	-2.110513e+01
1.422579e+02	-2.115288e+01
1.430796e+02	-2.120339e+01
1.439060e+02	-2.125182e+01
1.447372e+02	-2.130423e+01
1.455732e+02	-2.135239e+01
1.464141e+02	-2.140165e+01
1.472597e+02	-2.145271e+01
1.481103e+02	-2.149987e+01
1.489658e+02	-2.155163e+01
1.498262e+02	-2.159995e+01
1.506916e+02	-2.165063e+01
1.515620e+02	-2.170171e+01
1.524374e+02	-2.175302e+01
1.533179e+02	-2.180056e+01
1.542034e+02	-2.185212e+01
1.550941e+02	-2.189749e+01
1.559899e+02	-2.195033e+01
1.568909e+02	-2.199850e+01
1.577971e+02	-2.204906e+01
1.587085e+02	-2.209991e+01
1.596252e+02	-2.214619e+01
1.605472e+02	-2.219833e+01
1.614745e+02	-2.224708e+01
1.624072e+02	-2.229682e+01
1.633453e+02	-2.234612e+01
1.642887e+02	-2.239860e+01
1.652377e+02	-2.244623e+01
1.661921e+02	-2.249686e+01
1.671520e+02	-2.254803e+01
1.681175e+02	-2.259561e+01
1.690885e+02	-2.264665e+01
1.700651e+02	-2.269401e+01
1.710474e+02	-2.274592e+01
1.720354e+02	-2.279551e+01
1.730291e+02	-2.284533e+01
1.740285e+02	-2.289230e+01
1.750337e+02	-2.294377e+01
1.760446e+02	-2.299354e+01
1.770615e+02	-2.304252e+01
1.780842e+02	-2.309508e+01
1.791128e+02	-2.314475e+01
1.801473e+02	-2.319405e+01
1.811878e+02	-2.324375e+01
1.822344e+02	-2.329485e+01
1.832870e+02	-2.334114e+01
1.843456e+02	-2.339210e+01
1.854104e+02	-2.344312e+01
1.864813e+02	-2.349152e+01
1.875584e+02	-2.354377e+01
1.886418e+02	-2.359187e+01
1.897313e+02	-2.364210e+01
1.908272e+02	-2.369139e+01
1.919294e+02	-2.374199e+01
1.930380e+02	-2.379173e+01
1.941530e+02	-2.384171e+01
1.952744e+02	-2.389125e+01
1.964023e+02	-2.394185e+01
1.975367e+02	-2.399198e+01
1.986777e+02	-2.404136e+01
1.998252e+02	-2.408983e+01
2.009794e+02	-2.413902e+01
2.021403e+02	-2.419108e+01
2.033078e+02	-2.423911e+01
2.044821e+02	-2.429119e+01
2.056632e+02	-2.434040e+01
2.068511e+02	-2.438990e+01
2.080459e+02	-2.443861e+01
2.092475e+02	-2.449040e+01
2.104561e+02	-2.453894e+01
2.116717e+02	-2.458804e+01
2.128943e+02	-2.463875e+01
2.141240e+02	-2.468788e+01
2.153608e+02	-2.473973e+01
2.166047e+02	-2.478907e+01
2.178558e+02	-2.483889e+01
2.191141e+02	-2.489073e+01
2.203797e+02	-2.494054e+01
2.216526e+02	-2.498915e+01
2.229329e+02	-2.503964e+01
2.242205e+02	-2.508720e+01
2.255156e+02	-2.513819e+01
2.268182e+02	-2.518676e+01
2.281283e+02	-2.523692e+01
2.294459e+02	-2.528923e+01
2.307712e+02	-2.533941e+01
2.321041e+02	-2.538873e+01
2.334447e+02	-2.544103e+01
2.347931e+02	-2.548651e+01
2.361493e+02	-2.553913e+01
2.375133e+02	-2.558715e+01
2.388851e+02	-2.563744e+01
2.402649e+02	-2.568932e+01
2.416527e+02	-2.573760e+01
2.430484e+02	-2.578744e+01
2.444523e+02	-2.583724e+01
2.458642e+02	-2.588912e+01
2.472843e+02	-2.593960e+01
2.487126e+02	-2.598670e+01
2.501492e+02	-2.603705e+01
2.515940e+02	-2.608477e+01
2.530472e+02	-2.613546e+01
2.545088e+02	-2.618606e+01
2.559789e+02	-2.623589e+01
2.574574e+02	-2.628605e+01
2.589444e+02	-2.633472e+01
2.604401e+02	-2.638558e+01
2.619444e+02	-2.643349e+01
2.634574e+02	-2.648369e+01
2.649791e+02	-2.653752e+01
2.665096e+02	-2.658673e+01
2.680489e+02	-2.663643e+01
2.695972e+02	-2.668561e+01
2.711544e+02	-2.673745e+01
2.727205e+02	-2.678502e+01
2.742958e+02	-2.683688e+01
2.758801e+02	-2.688607e+01
2.774736e+02	-2.693576e+01
2.790762e+02	-2.698381e+01
2.806882e+02	-2.703526e+01
2.823094e+02	-2.708464e+01
2.839400e+02	-2.713528e+01
2.855800e+02	-2.718617e+01
2.872295e+02	-2.723559e+01
2.888886e+02	-2.728650e+01
2.905572e+02	-2.733953e+01
2.922354e+02	-2.738740e+01
2.939234e+02	-2.743627e+01
2.956211e+02	-2.748970e+01
2.973286e+02	-2.753828e+01
2.990459e+02	-2.758691e+01
3.007732e+02	-2.763803e+01
3.025104e+02	-2.768586e+01
3.042577e+02	-2.773446e+01
3.060151e+02	-2.778514e+01
3.077826e+02	-2.783751e+01
3.095604e+02	-2.788552e+01
3.113484e+02	-2.793945e+01
3.131467e+02	-2.798727e+01
3.149554e+02	-2.803634e+01
3.167746e+02	-2.808501e+01
3.186043e+02	-2.813784e+01
3.204445e+02	-2.818436e+01
3.222954e+02	-2.823457e+01
3.241570e+02	-2.828676e+01
3.260293e+02	-2.833731e+01
3.279124e+02	-2.838653e+01
3.298064e+02	-2.843826e+01
3.317114e+02	-2.848790e+01
3.336273e+02	-2.853895e+01
3.355544e+02	-2.859155e+01
3.374925e+02	-2.863474e+01
3.394418e+02	-2.868923e+01
3.414024e+02	-2.873620e+01
3.433744e+02	-2.878522e+01
3.453577e+02	-2.883876e+01
3.473525e+02	-2.888817e+01
3.493588e+02	-2.894103e+01
3.513766e+02	-2.899008e+01
3.534062e+02	-2.903743e+01
3.554474e+02	-2.908037e+01
3.575005e+02	-2.913151e+01
3.595654e+02	-2.918795e+01
3.616422e+02	-2.923804e+01
3.637311e+02	-2.928843e+01
3.658320e+02	-2.933594e+01
3.679450e+02	-2.938673e+01
3.700702e+02	-2.943962e+01
3.722077e+02	-2.948977e+01
3.743576e+02	-2.953510e+01
3.765199e+02	-2.958543e+01
3.786946e+02	-2.963823e+01
3.808820e+02	-2.968732e+01
3.830819e+02	-2.973671e+01
3.852946e+02	-2.978907e+01
3.875200e+02	-2.983596e+01
3.897583e+02	-2.988414e+01
3.920096e+02	-2.993749e+01
3.942738e+02	-2.998668e+01
3.965511e+02	-3.004105e+01
3.988416e+02	-3.008794e+01
4.011452e+02	-3.013543e+01
4.034622e+02	-3.018907e+01
4.057926e+02	-3.023682e+01
4.081365e+02	-3.028458e+01
4.104938e+02	-3.033544e+01
4.128648e+02	-3.039006e+01
4.152495e+02	-3.043524e+01
4.176480e+02	-3.049106e+01
4.200603e+02	-3.053421e+01
4.224866e+02	-3.058473e+01
4.249268e+02	-3.064700e+01
4.273812e+02	-3.068818e+01
4.298497e+02	-3.074480e+01
4.323325e+02	-3.079137e+01
4.348297e+02	-3.084150e+01
4.373412e+02	-3.088938e+01
4.398673e+02	-3.094123e+01
4.424079e+02	-3.099262e+01
4.449633e+02	-3.103855e+01
4.475334e+02	-3.109123e+01
4.501183e+02	-3.114290e+01
4.527182e+02	-3.118878e+01
4.553330e+02	-3.123962e+01
4.579630e+02	-3.128659e+01
4.606082e+02	-3.134683e+01
4.632687e+02	-3.139289e+01
4.659445e+02	-3.143934e+01
4.686358e+02	-3.149843e+01
4.713426e+02	-3.154628e+01
4.740650e+02	-3.159413e+01
4.768032e+02	-3.164650e+01
4.795572e+02	-3.169425e+01
4.823271e+02	-3.174092e+01
4.851130e+02	-3.179336e+01
4.879150e+02	-3.184264e+01
4.907332e+02	-3.189440e+01
4.935676e+02	-3.194295e+01
4.964185e+02	-3.198809e+01
4.992858e+02	-3.204181e+01
5.021696e+02	-3.209446e+01
5.050701e+02	-3.213767e+01
5.079874e+02	-3.219731e+01
5.109215e+02	-3.224343e+01
5.138726e+02	-3.229378e+01
5.168407e+02	-3.234943e+01
5.198259e+02	-3.239439e+01
5.228284e+02	-3.244356e+01
5.258482e+02	-3.249449e+01
5.288855e+02	-3.254543e+01
5.319403e+02	-3.259788e+01
5.350128e+02	-3.264753e+01
5.381030e+02	-3.269792e+01
5.412111e+02	-3.274615e+01
5.443371e+02	-3.279557e+01
5.474812e+02	-3.284186e+01
5.506434e+02	-3.289779e+01
5.538239e+02	-3.295055e+01
5.570228e+02	-3.300171e+01
5.602401e+02	-3.304308e+01
5.634760e+02	-3.309447e+01
5.667306e+02	-3.315462e+01
5.700040e+02	-3.320233e+01
5.732964e+02	-3.325243e+01
5.766077e+02	-3.330341e+01
5.799382e+02	-3.335180e+01
5.832879e+02	-3.340033e+01
5.866569e+02	-3.345625e+01
5.900454e+02	-3.350869e+01
5.934535e+02	-3.355180e+01
5.968813e+02	-3.359861e+01
6.003288e+02	-3.365627e+01
6.037963e+02	-3.371005e+01
6.072838e+02	-3.376090e+01
6.107914e+02	-3.379807e+01
6.143194e+02	-3.384992e+01
6.178676e+02	-3.390129e+01
6.214364e+02	-3.396326e+01
6.250258e+02	-3.400669e+01
6.286359e+02	-3.405616e+01
6.322669e+02	-3.410749e+01
6.359189e+02	-3.414793e+01
6.395919e+02	-3.420415e+01
6.432862e+02	-3.425708e+01
6.470017e+02	-3.431378e+01
6.507388e+02	-3.435191e+01
6.544974e+02	-3.440667e+01
6.582778e+02	-3.445062e+01
6.620800e+02	-3.451394e+01
6.659041e+02	-3.455911e+01
6.697504e+02	-3.460483e+01
6.736188e+02	-3.466125e+01
6.775096e+02	-3.470071e+01
6.814229e+02	-3.475536e+01
6.853587e+02	-3.480454e+01
6.893173e+02	-3.485030e+01
6.932988e+02	-3.490751e+01
6.973033e+02	-3.496388e+01
7.013309e+02	-3.500603e+01
