Frequency(Hz)	Magnitude(dB)
1.000000e+01	-1.700041e-05
1.005776e+01	-1.719736e-05
1.011585e+01	-1.739660e-05
1.017428e+01	-1.759814e-05
1.023305e+01	-1.780202e-05
1.029215e+01	-1.800826e-05
1.035160e+01	-1.821689e-05
1.041139e+01	-1.842794e-05
1.047153e+01	-1.864143e-05
1.053201e+01	-1.885740e-05
1.059284e+01	-1.907586e-05
1.065403e+01	-1.929686e-05
1.071556e+01	-1.952042e-05
1.077746e+01	-1.974657e-05
1.083971e+01	-1.997534e-05
1.090232e+01	-2.020676e-05
1.096529e+01	-2.044086e-05
1.102862e+01	-2.067767e-05
1.109232e+01	-2.091723e-05
1.115639e+01	-2.115956e-05
1.122083e+01	-2.140470e-05
1.128564e+01	-2.165268e-05
1.135083e+01	-2.190353e-05
1.141639e+01	-2.215729e-05
1.148233e+01	-2.241398e-05
1.154865e+01	-2.267366e-05
1.161536e+01	-2.293634e-05
1.168245e+01	-2.320206e-05
1.174992e+01	-2.347086e-05
1.181779e+01	-2.374278e-05
1.188605e+01	-2.401784e-05
1.195470e+01	-2.429610e-05
1.202375e+01	-2.457757e-05
1.209320e+01	-2.486231e-05
1.216305e+01	-2.515034e-05
1.223330e+01	-2.544172e-05
1.230396e+01	-2.573647e-05
1.237503e+01	-2.603463e-05
1.244651e+01	-2.633625e-05
1.251840e+01	-2.664136e-05
1.259070e+01	-2.695001e-05
1.266343e+01	-2.726223e-05
1.273657e+01	-2.757807e-05
1.281014e+01	-2.789757e-05
1.288413e+01	-2.822077e-05
1.295855e+01	-2.854771e-05
1.303339e+01	-2.887844e-05
1.310867e+01	-2.921301e-05
1.318439e+01	-2.955145e-05
1.326054e+01	-2.989381e-05
1.333713e+01	-3.024013e-05
1.341417e+01	-3.059047e-05
1.349165e+01	-3.094487e-05
1.356958e+01	-3.130337e-05
1.364795e+01	-3.166603e-05
1.372678e+01	-3.203289e-05
1.380607e+01	-3.240400e-05
1.388581e+01	-3.277941e-05
1.396602e+01	-3.315916e-05
1.404668e+01	-3.354332e-05
1.412782e+01	-3.393193e-05
1.420942e+01	-3.432504e-05
1.429149e+01	-3.472270e-05
1.437404e+01	-3.512497e-05
1.445706e+01	-3.553190e-05
1.454057e+01	-3.594355e-05
1.462455e+01	-3.635996e-05
1.470902e+01	-3.678120e-05
1.479398e+01	-3.720732e-05
1.487943e+01	-3.763837e-05
1.496537e+01	-3.807442e-05
1.505181e+01	-3.851552e-05
1.513875e+01	-3.896174e-05
1.522619e+01	-3.941312e-05
1.531414e+01	-3.986973e-05
1.540259e+01	-4.033163e-05
1.549156e+01	-4.079888e-05
1.558103e+01	-4.127154e-05
1.567103e+01	-4.174968e-05
1.576155e+01	-4.223336e-05
1.585258e+01	-4.272264e-05
1.594415e+01	-4.321759e-05
1.603624e+01	-4.371828e-05
1.612886e+01	-4.422477e-05
1.622202e+01	-4.473712e-05
1.631572e+01	-4.525541e-05
1.640996e+01	-4.577970e-05
1.650474e+01	-4.631007e-05
1.660008e+01	-4.684658e-05
1.669596e+01	-4.738931e-05
1.679239e+01	-4.793833e-05
1.688938e+01	-4.849370e-05
1.698694e+01	-4.905551e-05
1.708505e+01	-4.962383e-05
1.718373e+01	-5.019873e-05
1.728299e+01	-5.078030e-05
1.738281e+01	-5.136860e-05
1.748322e+01	-5.196371e-05
1.758420e+01	-5.256572e-05
1.768576e+01	-5.317471e-05
1.778792e+01	-5.379075e-05
1.789066e+01	-5.441393e-05
1.799399e+01	-5.504432e-05
1.809793e+01	-5.568202e-05
1.820246e+01	-5.632711e-05
1.830760e+01	-5.697967e-05
1.841334e+01	-5.763979e-05
1.851969e+01	-5.830756e-05
1.862666e+01	-5.898306e-05
1.873425e+01	-5.966640e-05
1.884246e+01	-6.035764e-05
1.895129e+01	-6.105690e-05
1.906075e+01	-6.176425e-05
1.917085e+01	-6.247981e-05
1.928158e+01	-6.320365e-05
1.939295e+01	-6.393587e-05
1.950496e+01	-6.467658e-05
1.961762e+01	-6.542587e-05
1.973093e+01	-6.618384e-05
1.984490e+01	-6.695060e-05
1.995952e+01	-6.772623e-05
2.007480e+01	-6.851085e-05
2.019076e+01	-6.930456e-05
2.030738e+01	-7.010747e-05
2.042467e+01	-7.091968e-05
2.054264e+01	-7.174130e-05
2.066130e+01	-7.257243e-05
2.078064e+01	-7.341320e-05
2.090066e+01	-7.426370e-05
2.102139e+01	-7.512406e-05
2.114280e+01	-7.599439e-05
2.126492e+01	-7.687479e-05
2.138775e+01	-7.776540e-05
2.151128e+01	-7.866633e-05
2.163553e+01	-7.957769e-05
2.176050e+01	-8.049961e-05
2.188619e+01	-8.143221e-05
2.201260e+01	-8.237562e-05
2.213974e+01	-8.332996e-05
2.226762e+01	-8.429535e-05
2.239624e+01	-8.527192e-05
2.252560e+01	-8.625981e-05
2.265571e+01	-8.725915e-05
2.278656e+01	-8.827006e-05
2.291818e+01	-8.929268e-05
2.305055e+01	-9.032715e-05
2.318369e+01	-9.137360e-05
2.331760e+01	-9.243218e-05
2.345228e+01	-9.350302e-05
2.358774e+01	-9.458627e-05
2.372398e+01	-9.568207e-05
2.386101e+01	-9.679056e-05
2.399883e+01	-9.791189e-05
2.413745e+01	-9.904621e-05
2.427686e+01	-1.001937e-04
2.441709e+01	-1.013544e-04
2.455812e+01	-1.025286e-04
2.469997e+01	-1.037165e-04
2.484263e+01	-1.049180e-04
2.498612e+01	-1.061335e-04
2.513044e+01	-1.073631e-04
2.527559e+01	-1.086069e-04
2.542158e+01	-1.098651e-04
2.556842e+01	-1.111379e-04
2.571610e+01	-1.124255e-04
2.586463e+01	-1.137279e-04
2.601403e+01	-1.150455e-04
2.616428e+01	-1.163783e-04
2.631541e+01	-1.177266e-04
2.646740e+01	-1.190904e-04
2.662028e+01	-1.204701e-04
2.677404e+01	-1.218658e-04
2.692868e+01	-1.232776e-04
2.708422e+01	-1.247058e-04
2.724066e+01	-1.261505e-04
2.739800e+01	-1.276120e-04
2.755625e+01	-1.290904e-04
2.771541e+01	-1.305859e-04
2.787550e+01	-1.320988e-04
2.803650e+01	-1.336291e-04
2.819844e+01	-1.351772e-04
2.836131e+01	-1.367433e-04
2.852513e+01	-1.383275e-04
2.868989e+01	-1.399300e-04
2.885560e+01	-1.415511e-04
2.902227e+01	-1.431910e-04
2.918990e+01	-1.448499e-04
2.935850e+01	-1.465280e-04
2.952807e+01	-1.482255e-04
2.969863e+01	-1.499427e-04
2.987016e+01	-1.516798e-04
3.004269e+01	-1.534370e-04
3.021622e+01	-1.552146e-04
3.039075e+01	-1.570128e-04
3.056628e+01	-1.588318e-04
3.074283e+01	-1.606719e-04
3.092040e+01	-1.625333e-04
3.109900e+01	-1.644162e-04
3.127862e+01	-1.663210e-04
3.145929e+01	-1.682478e-04
3.164099e+01	-1.701970e-04
3.182375e+01	-1.721687e-04
3.200756e+01	-1.741633e-04
3.219244e+01	-1.761810e-04
3.237838e+01	-1.782221e-04
3.256540e+01	-1.802868e-04
3.275349e+01	-1.823754e-04
3.294268e+01	-1.844882e-04
3.313295e+01	-1.866255e-04
3.332433e+01	-1.887876e-04
3.351681e+01	-1.909747e-04
3.371040e+01	-1.931871e-04
3.390511e+01	-1.954252e-04
3.410094e+01	-1.976892e-04
3.429791e+01	-1.999795e-04
3.449601e+01	-2.022962e-04
3.469526e+01	-2.046398e-04
3.489566e+01	-2.070106e-04
3.509721e+01	-2.094088e-04
3.529993e+01	-2.118348e-04
3.550382e+01	-2.142889e-04
3.570889e+01	-2.167714e-04
3.591515e+01	-2.192827e-04
3.612259e+01	-2.218231e-04
3.633123e+01	-2.243929e-04
3.654108e+01	-2.269925e-04
3.675214e+01	-2.296222e-04
3.696442e+01	-2.322824e-04
3.717792e+01	-2.349734e-04
3.739266e+01	-2.376955e-04
3.760864e+01	-2.404492e-04
3.782587e+01	-2.432348e-04
3.804435e+01	-2.460527e-04
3.826409e+01	-2.489032e-04
3.848510e+01	-2.517867e-04
3.870739e+01	-2.547036e-04
3.893096e+01	-2.576544e-04
3.915583e+01	-2.606393e-04
3.938199e+01	-2.636588e-04
3.960946e+01	-2.667132e-04
3.983824e+01	-2.698031e-04
4.006834e+01	-2.729287e-04
4.029978e+01	-2.760906e-04
4.053255e+01	-2.792891e-04
4.076666e+01	-2.825246e-04
4.100213e+01	-2.857976e-04
4.123896e+01	-2.891085e-04
4.147715e+01	-2.924578e-04
4.171672e+01	-2.958459e-04
4.195767e+01	-2.992733e-04
4.220002e+01	-3.027403e-04
4.244377e+01	-3.062475e-04
4.268892e+01	-3.097954e-04
4.293549e+01	-3.133843e-04
4.318348e+01	-3.170148e-04
4.343291e+01	-3.206874e-04
4.368377e+01	-3.244025e-04
4.393609e+01	-3.281606e-04
4.418986e+01	-3.319623e-04
4.444510e+01	-3.358080e-04
4.470182e+01	-3.396983e-04
4.496001e+01	-3.436337e-04
4.521970e+01	-3.476146e-04
4.548089e+01	-3.516417e-04
4.574358e+01	-3.557154e-04
4.600779e+01	-3.598362e-04
4.627353e+01	-3.640049e-04
4.654081e+01	-3.682218e-04
4.680963e+01	-3.724876e-04
4.708000e+01	-3.768027e-04
4.735193e+01	-3.811679e-04
4.762543e+01	-3.855837e-04
4.790051e+01	-3.900505e-04
4.817719e+01	-3.945692e-04
4.845545e+01	-3.991402e-04
4.873533e+01	-4.037641e-04
4.901682e+01	-4.084416e-04
4.929994e+01	-4.131733e-04
4.958470e+01	-4.179598e-04
4.987110e+01	-4.228017e-04
5.015915e+01	-4.276998e-04
5.044887e+01	-4.326545e-04
5.074026e+01	-4.376667e-04
5.103333e+01	-4.427369e-04
5.132810e+01	-4.478659e-04
5.162457e+01	-4.530543e-04
5.192275e+01	-4.583028e-04
5.222265e+01	-4.636120e-04
5.252429e+01	-4.689828e-04
5.282767e+01	-4.744158e-04
5.313280e+01	-4.799118e-04
5.343969e+01	-4.854714e-04
5.374836e+01	-4.910954e-04
5.405880e+01	-4.967845e-04
5.437105e+01	-5.025396e-04
5.468509e+01	-5.083613e-04
5.500095e+01	-5.142504e-04
5.531863e+01	-5.202078e-04
5.563815e+01	-5.262342e-04
5.595951e+01	-5.323304e-04
5.628273e+01	-5.384972e-04
5.660782e+01	-5.447355e-04
5.693479e+01	-5.510460e-04
5.726364e+01	-5.574296e-04
5.759439e+01	-5.638871e-04
5.792705e+01	-5.704195e-04
5.826164e+01	-5.770275e-04
5.859815e+01	-5.837121e-04
5.893662e+01	-5.904741e-04
5.927703e+01	-5.973144e-04
5.961941e+01	-6.042340e-04
5.996377e+01	-6.112337e-04
6.031012e+01	-6.183145e-04
6.065847e+01	-6.254774e-04
6.100883e+01	-6.327232e-04
6.136121e+01	-6.400529e-04
6.171563e+01	-6.474675e-04
6.207210e+01	-6.549681e-04
6.243063e+01	-6.625555e-04
6.279122e+01	-6.702308e-04
6.315390e+01	-6.779950e-04
6.351868e+01	-6.858491e-04
6.388556e+01	-6.937942e-04
6.425456e+01	-7.018314e-04
6.462569e+01	-7.099616e-04
6.499897e+01	-7.181860e-04
6.537440e+01	-7.265057e-04
6.575200e+01	-7.349218e-04
6.613178e+01	-7.434353e-04
6.651375e+01	-7.520475e-04
6.689793e+01	-7.607594e-04
6.728433e+01	-7.695722e-04
6.767297e+01	-7.784871e-04
6.806384e+01	-7.875053e-04
6.845698e+01	-7.966279e-04
6.885238e+01	-8.058562e-04
6.925007e+01	-8.151914e-04
6.965005e+01	-8.246347e-04
7.005235e+01	-8.341874e-04
7.045697e+01	-8.438508e-04
7.086393e+01	-8.536261e-04
7.127323e+01	-8.635146e-04
7.168490e+01	-8.735176e-04
7.209895e+01	-8.836365e-04
7.251539e+01	-8.938726e-04
7.293424e+01	-9.042273e-04
7.335551e+01	-9.147019e-04
7.377920e+01	-9.252979e-04
7.420535e+01	-9.360165e-04
7.463396e+01	-9.468594e-04
7.506504e+01	-9.578278e-04
7.549861e+01	-9.689232e-04
7.593469e+01	-9.801472e-04
7.637328e+01	-9.915012e-04
7.681441e+01	-1.002987e-03
7.725809e+01	-1.014605e-03
7.770433e+01	-1.026358e-03
7.815315e+01	-1.038248e-03
7.860456e+01	-1.050274e-03
7.905857e+01	-1.062441e-03
7.951521e+01	-1.074748e-03
7.997449e+01	-1.087197e-03
8.043642e+01	-1.099791e-03
8.090102e+01	-1.112531e-03
8.136830e+01	-1.125418e-03
8.183828e+01	-1.138455e-03
8.231097e+01	-1.151643e-03
8.278640e+01	-1.164983e-03
8.326457e+01	-1.178478e-03
8.374550e+01	-1.192129e-03
8.422921e+01	-1.205938e-03
8.471572e+01	-1.219907e-03
8.520503e+01	-1.234038e-03
8.569717e+01	-1.248333e-03
8.619215e+01	-1.262793e-03
8.669000e+01	-1.277421e-03
8.719071e+01	-1.292218e-03
8.769432e+01	-1.307186e-03
8.820084e+01	-1.322328e-03
8.871029e+01	-1.337645e-03
8.922267e+01	-1.353140e-03
8.973802e+01	-1.368814e-03
9.025634e+01	-1.384669e-03
9.077766e+01	-1.400708e-03
9.130199e+01	-1.416933e-03
9.182935e+01	-1.433346e-03
9.235975e+01	-1.449949e-03
9.289321e+01	-1.466744e-03
9.342976e+01	-1.483734e-03
9.396941e+01	-1.500920e-03
9.451217e+01	-1.518306e-03
9.505807e+01	-1.535893e-03
9.560712e+01	-1.553683e-03
9.615934e+01	-1.571680e-03
9.671476e+01	-1.589885e-03
9.727338e+01	-1.608301e-03
9.783522e+01	-1.626930e-03
9.840032e+01	-1.645775e-03
9.896867e+01	-1.664838e-03
9.954031e+01	-1.684122e-03
1.001153e+02	-1.703629e-03
1.006935e+02	-1.723362e-03
1.012751e+02	-1.743324e-03
1.018601e+02	-1.763516e-03
1.024484e+02	-1.783943e-03
1.030402e+02	-1.804606e-03
1.036353e+02	-1.825509e-03
1.042339e+02	-1.846653e-03
1.048360e+02	-1.868042e-03
1.054415e+02	-1.889679e-03
1.060505e+02	-1.911567e-03
1.066631e+02	-1.933708e-03
1.072791e+02	-1.956106e-03
1.078988e+02	-1.978762e-03
1.085220e+02	-2.001682e-03
1.091488e+02	-2.024866e-03
1.097793e+02	-2.048319e-03
1.104133e+02	-2.072044e-03
1.110511e+02	-2.096043e-03
1.116925e+02	-2.120321e-03
1.123376e+02	-2.144879e-03
1.129865e+02	-2.169722e-03
1.136391e+02	-2.194852e-03
1.142955e+02	-2.220274e-03
1.149556e+02	-2.245990e-03
1.156196e+02	-2.272003e-03
1.162874e+02	-2.298318e-03
1.169591e+02	-2.324937e-03
1.176347e+02	-2.351865e-03
1.183141e+02	-2.379105e-03
1.189975e+02	-2.406660e-03
1.196848e+02	-2.434534e-03
1.203761e+02	-2.462730e-03
1.210714e+02	-2.491253e-03
1.217707e+02	-2.520107e-03
1.224740e+02	-2.549294e-03
1.231814e+02	-2.578820e-03
1.238929e+02	-2.608687e-03
1.246085e+02	-2.638900e-03
1.253283e+02	-2.669463e-03
1.260522e+02	-2.700380e-03
1.267802e+02	-2.731655e-03
1.275125e+02	-2.763292e-03
1.282490e+02	-2.795295e-03
1.289898e+02	-2.827669e-03
1.297348e+02	-2.860417e-03
1.304842e+02	-2.893545e-03
1.312378e+02	-2.927056e-03
1.319959e+02	-2.960955e-03
1.327583e+02	-2.995247e-03
1.335251e+02	-3.029935e-03
1.342963e+02	-3.065025e-03
1.350720e+02	-3.100522e-03
1.358522e+02	-3.136429e-03
1.366368e+02	-3.172752e-03
1.374260e+02	-3.209496e-03
1.382198e+02	-3.246665e-03
1.390182e+02	-3.284264e-03
1.398211e+02	-3.322298e-03
1.406287e+02	-3.360773e-03
1.414410e+02	-3.399693e-03
1.422579e+02	-3.439064e-03
1.430796e+02	-3.478891e-03
1.439060e+02	-3.519178e-03
1.447372e+02	-3.559932e-03
1.455732e+02	-3.601158e-03
1.464141e+02	-3.642860e-03
1.472597e+02	-3.685046e-03
1.481103e+02	-3.727720e-03
1.489658e+02	-3.770888e-03
1.498262e+02	-3.814555e-03
1.506916e+02	-3.858728e-03
1.515620e+02	-3.903412e-03
1.524374e+02	-3.948614e-03
1.533179e+02	-3.994338e-03
1.542034e+02	-4.040592e-03
1.550941e+02	-4.087382e-03
1.559899e+02	-4.134712e-03
1.568909e+02	-4.182591e-03
1.577971e+02	-4.231024e-03
1.587085e+02	-4.280017e-03
1.596252e+02	-4.329577e-03
1.605472e+02	-4.379711e-03
1.614745e+02	-4.430425e-03
1.624072e+02	-4.481727e-03
1.633453e+02	-4.533621e-03
1.642887e+02	-4.586117e-03
1.652377e+02	-4.639220e-03
1.661921e+02	-4.692937e-03
1.671520e+02	-4.747276e-03
1.681175e+02	-4.802244e-03
1.690885e+02	-4.857848e-03
1.700651e+02	-4.914096e-03
1.710474e+02	-4.970994e-03
1.720354e+02	-5.028551e-03
1.730291e+02	-5.086774e-03
1.740285e+02	-5.145671e-03
1.750337e+02	-5.205249e-03
1.760446e+02	-5.265516e-03
1.770615e+02	-5.326481e-03
1.780842e+02	-5.388151e-03
1.791128e+02	-5.450535e-03
1.801473e+02	-5.513641e-03
1.811878e+02	-5.577477e-03
1.822344e+02	-5.642051e-03
1.832870e+02	-5.707373e-03
1.843456e+02	-5.773450e-03
1.854104e+02	-5.840292e-03
1.864813e+02	-5.907907e-03
1.875584e+02	-5.976304e-03
1.886418e+02	-6.045493e-03
1.897313e+02	-6.115482e-03
1.908272e+02	-6.186281e-03
1.919294e+02	-6.257899e-03
1.930380e+02	-6.330345e-03
1.941530e+02	-6.403630e-03
1.952744e+02	-6.477762e-03
1.964023e+02	-6.552752e-03
1.975367e+02	-6.628609e-03
1.986777e+02	-6.705344e-03
1.998252e+02	-6.782966e-03
2.009794e+02	-6.861486e-03
2.021403e+02	-6.940915e-03
2.033078e+02	-7.021262e-03
2.044821e+02	-7.102538e-03
2.056632e+02	-7.184755e-03
2.068511e+02	-7.267922e-03
2.080459e+02	-7.352051e-03
2.092475e+02	-7.437153e-03
2.104561e+02	-7.523240e-03
2.116717e+02	-7.610322e-03
2.128943e+02	-7.698411e-03
2.141240e+02	-7.787519e-03
2.153608e+02	-7.877657e-03
2.166047e+02	-7.968838e-03
2.178558e+02	-8.061073e-03
2.191141e+02	-8.154375e-03
2.203797e+02	-8.248755e-03
2.216526e+02	-8.344227e-03
2.229329e+02	-8.440803e-03
2.242205e+02	-8.538495e-03
2.255156e+02	-8.637317e-03
2.268182e+02	-8.737282e-03
2.281283e+02	-8.838402e-03
2.294459e+02	-8.940692e-03
2.307712e+02	-9.044164e-03
2.321041e+02	-9.148832e-03
2.334447e+02	-9.254710e-03
2.347931e+02	-9.361813e-03
2.361493e+02	-9.470153e-03
2.375133e+02	-9.579746e-03
2.388851e+02	-9.690605e-03
2.402649e+02	-9.802746e-03
2.416527e+02	-9.916184e-03
2.430484e+02	-1.003093e-02
2.444523e+02	-1.014701e-02
2.458642e+02	-1.026442e-02
2.472843e+02	-1.038320e-02
2.487126e+02	-1.050334e-02
2.501492e+02	-1.062488e-02
2.515940e+02	-1.074782e-02
2.530472e+02	-1.087218e-02
2.545088e+02	-1.099797e-02
2.559789e+02	-1.112522e-02
2.574574e+02	-1.125394e-02
2.589444e+02	-1.138415e-02
2.604401e+02	-1.151587e-02
2.619444e+02	-1.164910e-02
2.634574e+02	-1.178387e-02
2.649791e+02	-1.192021e-02
2.665096e+02	-1.205811e-02
2.680489e+02	-1.219761e-02
2.695972e+02	-1.233872e-02
2.711544e+02	-1.248146e-02
2.727205e+02	-1.262585e-02
2.742958e+02	-1.277191e-02
2.758801e+02	-1.291966e-02
2.774736e+02	-1.306911e-02
2.790762e+02	-1.322029e-02
2.806882e+02	-1.337321e-02
2.823094e+02	-1.352790e-02
2.839400e+02	-1.368438e-02
2.855800e+02	-1.384266e-02
2.872295e+02	-1.400277e-02
2.888886e+02	-1.416473e-02
2.905572e+02	-1.432856e-02
2.922354e+02	-1.449428e-02
2.939234e+02	-1.466192e-02
2.956211e+02	-1.483149e-02
2.973286e+02	-1.500302e-02
2.990459e+02	-1.517653e-02
3.007732e+02	-1.535204e-02
3.025104e+02	-1.552958e-02
3.042577e+02	-1.570917e-02
3.060151e+02	-1.589083e-02
3.077826e+02	-1.607458e-02
3.095604e+02	-1.626046e-02
3.113484e+02	-1.644849e-02
3.131467e+02	-1.663868e-02
3.149554e+02	-1.683107e-02
3.167746e+02	-1.702568e-02
3.186043e+02	-1.722253e-02
3.204445e+02	-1.742166e-02
3.222954e+02	-1.762308e-02
3.241570e+02	-1.782683e-02
3.260293e+02	-1.803293e-02
3.279124e+02	-1.824140e-02
3.298064e+02	-1.845228e-02
3.317114e+02	-1.866560e-02
3.336273e+02	-1.888137e-02
3.355544e+02	-1.909963e-02
3.374925e+02	-1.932041e-02
3.394418e+02	-1.954374e-02
3.414024e+02	-1.976964e-02
3.433744e+02	-1.999815e-02
3.453577e+02	-2.022929e-02
3.473525e+02	-2.046310e-02
3.493588e+02	-2.069960e-02
3.513766e+02	-2.093883e-02
3.534062e+02	-2.118082e-02
3.554474e+02	-2.142560e-02
3.575005e+02	-2.167320e-02
3.595654e+02	-2.192365e-02
3.616422e+02	-2.217699e-02
3.637311e+02	-2.243325e-02
3.658320e+02	-2.269247e-02
3.679450e+02	-2.295467e-02
3.700702e+02	-2.321989e-02
3.722077e+02	-2.348817e-02
3.743576e+02	-2.375954e-02
3.765199e+02	-2.403403e-02
3.786946e+02	-2.431169e-02
3.808820e+02	-2.459255e-02
3.830819e+02	-2.487664e-02
3.852946e+02	-2.516401e-02
3.875200e+02	-2.545468e-02
3.897583e+02	-2.574870e-02
3.920096e+02	-2.604611e-02
3.942738e+02	-2.634694e-02
3.965511e+02	-2.665124e-02
3.988416e+02	-2.695904e-02
4.011452e+02	-2.727038e-02
4.034622e+02	-2.758531e-02
4.057926e+02	-2.790386e-02
4.081365e+02	-2.822608e-02
4.104938e+02	-2.855201e-02
4.128648e+02	-2.888169e-02
4.152495e+02	-2.921516e-02
4.176480e+02	-2.955247e-02
4.200603e+02	-2.989367e-02
4.224866e+02	-3.023878e-02
4.249268e+02	-3.058787e-02
4.273812e+02	-3.094097e-02
4.298497e+02	-3.129814e-02
4.323325e+02	-3.165941e-02
4.348297e+02	-3.202483e-02
4.373412e+02	-3.239446e-02
4.398673e+02	-3.276834e-02
4.424079e+02	-3.314652e-02
4.449633e+02	-3.352904e-02
4.475334e+02	-3.391596e-02
4.501183e+02	-3.430733e-02
4.527182e+02	-3.470320e-02
4.553330e+02	-3.510361e-02
4.579630e+02	-3.550863e-02
4.606082e+02	-3.591830e-02
4.632687e+02	-3.633268e-02
4.659445e+02	-3.675182e-02
4.686358e+02	-3.717577e-02
4.713426e+02	-3.760459e-02
4.740650e+02	-3.803834e-02
4.768032e+02	-3.847707e-02
4.795572e+02	-3.892083e-02
4.823271e+02	-3.936969e-02
4.851130e+02	-3.982370e-02
4.879150e+02	-4.028292e-02
4.907332e+02	-4.074742e-02
4.935676e+02	-4.121724e-02
4.964185e+02	-4.169246e-02
4.992858e+02	-4.217312e-02
5.021696e+02	-4.265931e-02
5.050701e+02	-4.315106e-02
5.079874e+02	-4.364846e-02
5.109215e+02	-4.415157e-02
5.138726e+02	-4.466044e-02
5.168407e+02	-4.517514e-02
5.198259e+02	-4.569575e-02
5.228284e+02	-4.622233e-02
5.258482e+02	-4.675494e-02
5.288855e+02	-4.729365e-02
5.319403e+02	-4.783853e-02
5.350128e+02	-4.838966e-02
5.381030e+02	-4.894710e-02
5.412111e+02	-4.951093e-02
5.443371e+02	-5.008122e-02
5.474812e+02	-5.065803e-02
5.506434e+02	-5.124145e-02
5.538239e+02	-5.183155e-02
5.570228e+02	-5.242840e-02
5.602401e+02	-5.303208e-02
5.634760e+02	-5.364267e-02
5.667306e+02	-5.426025e-02
5.700040e+02	-5.488489e-02
5.732964e+02	-5.551667e-02
5.766077e+02	-5.615569e-02
5.799382e+02	-5.680200e-02
5.832879e+02	-5.745571e-02
5.866569e+02	-5.811689e-02
5.900454e+02	-5.878563e-02
5.934535e+02	-5.946201e-02
5.968813e+02	-6.014612e-02
6.003288e+02	-6.083804e-02
6.037963e+02	-6.153787e-02
6.072838e+02	-6.224569e-02
6.107914e+02	-6.296159e-02
6.143194e+02	-6.368566e-02
6.178676e+02	-6.441800e-02
6.214364e+02	-6.515870e-02
6.250258e+02	-6.590785e-02
6.286359e+02	-6.666554e-02
6.322669e+02	-6.743188e-02
6.359189e+02	-6.820696e-02
6.395919e+02	-6.899088e-02
6.432862e+02	-6.978373e-02
6.470017e+02	-7.058562e-02
6.507388e+02	-7.139665e-02
6.544974e+02	-7.221692e-02
6.582778e+02	-7.304654e-02
6.620800e+02	-7.388560e-02
6.659041e+02	-7.473422e-02
6.697504e+02	-7.559250e-02
6.736188e+02	-7.646055e-02
6.775096e+02	-7.733848e-02
6.814229e+02	-7.822640e-02
6.853587e+02	-7.912442e-02
6.893173e+02	-8.003265e-02
6.932988e+02	-8.095122e-02
6.973033e+02	-8.188022e-02
7.013309e+02	-8.281979e-02
