Frequency(Hz)	Magnitude(dB)
1.000000e+01	-2.253250e+00
1.005776e+01	-2.273874e+00
1.011585e+01	-2.294164e+00
1.017428e+01	-2.314786e+00
1.023305e+01	-2.335371e+00
1.029215e+01	-2.356436e+00
1.035160e+01	-2.377294e+00
1.041139e+01	-2.398512e+00
1.047153e+01	-2.419941e+00
1.053201e+01	-2.441492e+00
1.059284e+01	-2.462488e+00
1.065403e+01	-2.484668e+00
1.071556e+01	-2.506510e+00
1.077746e+01	-2.528451e+00
1.083971e+01	-2.550708e+00
1.090232e+01	-2.572748e+00
1.096529e+01	-2.595467e+00
1.102862e+01	-2.618262e+00
1.109232e+01	-2.640604e+00
1.115639e+01	-2.663487e+00
1.122083e+01	-2.686613e+00
1.128564e+01	-2.709654e+00
1.135083e+01	-2.733127e+00
1.141639e+01	-2.756346e+00
1.148233e+01	-2.779973e+00
1.154865e+01	-2.803679e+00
1.161536e+01	-2.827781e+00
1.168245e+01	-2.851606e+00
1.174992e+01	-2.875687e+00
1.181779e+01	-2.900044e+00
1.188605e+01	-2.924549e+00
1.195470e+01	-2.949182e+00
1.202375e+01	-2.973919e+00
1.209320e+01	-2.998691e+00
1.216305e+01	-3.023415e+00
1.223330e+01	-3.048752e+00
1.230396e+01	-3.073920e+00
1.237503e+01	-3.099647e+00
1.244651e+01	-3.125124e+00
1.251840e+01	-3.150914e+00
1.259070e+01	-3.176865e+00
1.266343e+01	-3.202858e+00
1.273657e+01	-3.228736e+00
1.281014e+01	-3.255145e+00
1.288413e+01	-3.281996e+00
1.295855e+01	-3.308282e+00
1.303339e+01	-3.335154e+00
1.310867e+01	-3.361935e+00
1.318439e+01	-3.389327e+00
1.326054e+01	-3.416145e+00
1.333713e+01	-3.443376e+00
1.341417e+01	-3.471052e+00
1.349165e+01	-3.498580e+00
1.356958e+01	-3.526157e+00
1.364795e+01	-3.554317e+00
1.372678e+01	-3.582249e+00
1.380607e+01	-3.610257e+00
1.388581e+01	-3.638642e+00
1.396602e+01	-3.667035e+00
1.404668e+01	-3.695649e+00
1.412782e+01	-3.724573e+00
1.420942e+01	-3.753407e+00
1.429149e+01	-3.782609e+00
1.437404e+01	-3.811552e+00
1.445706e+01	-3.840848e+00
1.454057e+01	-3.870191e+00
1.462455e+01	-3.899712e+00
1.470902e+01	-3.929604e+00
1.479398e+01	-3.959398e+00
1.487943e+01	-3.989446e+00
1.496537e+01	-4.019398e+00
1.505181e+01	-4.049825e+00
1.513875e+01	-4.080165e+00
1.522619e+01	-4.110925e+00
1.531414e+01	-4.141537e+00
1.540259e+01	-4.172110e+00
1.549156e+01	-4.203237e+00
1.558103e+01	-4.234103e+00
1.567103e+01	-4.265556e+00
1.576155e+01	-4.297142e+00
1.585258e+01	-4.328442e+00
1.594415e+01	-4.360062e+00
1.603624e+01	-4.391725e+00
1.612886e+01	-4.423611e+00
1.622202e+01	-4.455719e+00
1.631572e+01	-4.487870e+00
1.640996e+01	-4.520320e+00
1.650474e+01	-4.552642e+00
1.660008e+01	-4.585172e+00
1.669596e+01	-4.617845e+00
1.679239e+01	-4.650533e+00
1.688938e+01	-4.683514e+00
1.698694e+01	-4.716769e+00
1.708505e+01	-4.749907e+00
1.718373e+01	-4.783006e+00
1.728299e+01	-4.816592e+00
1.738281e+01	-4.850207e+00
1.748322e+01	-4.883823e+00
1.758420e+01	-4.917726e+00
1.768576e+01	-4.951769e+00
1.778792e+01	-4.986110e+00
1.789066e+01	-5.020242e+00
1.799399e+01	-5.054638e+00
1.809793e+01	-5.088932e+00
1.820246e+01	-5.123473e+00
1.830760e+01	-5.158110e+00
1.841334e+01	-5.192923e+00
1.851969e+01	-5.227851e+00
1.862666e+01	-5.263173e+00
1.873425e+01	-5.298407e+00
1.884246e+01	-5.333352e+00
1.895129e+01	-5.368898e+00
1.906075e+01	-5.404472e+00
1.917085e+01	-5.440098e+00
1.928158e+01	-5.476124e+00
1.939295e+01	-5.511800e+00
1.950496e+01	-5.547940e+00
1.961762e+01	-5.584019e+00
1.973093e+01	-5.620424e+00
1.984490e+01	-5.656501e+00
1.995952e+01	-5.693085e+00
2.007480e+01	-5.729953e+00
2.019076e+01	-5.766465e+00
2.030738e+01	-5.803462e+00
2.042467e+01	-5.840316e+00
2.054264e+01	-5.877396e+00
2.066130e+01	-5.914094e+00
2.078064e+01	-5.952216e+00
2.090066e+01	-5.989006e+00
2.102139e+01	-6.026612e+00
2.114280e+01	-6.063901e+00
2.126492e+01	-6.102151e+00
2.138775e+01	-6.139302e+00
2.151128e+01	-6.177607e+00
2.163553e+01	-6.215575e+00
2.176050e+01	-6.253540e+00
2.188619e+01	-6.291819e+00
2.201260e+01	-6.330022e+00
2.213974e+01	-6.368766e+00
2.226762e+01	-6.407146e+00
2.239624e+01	-6.445810e+00
2.252560e+01	-6.484753e+00
2.265571e+01	-6.523427e+00
2.278656e+01	-6.562451e+00
2.291818e+01	-6.601475e+00
2.305055e+01	-6.640611e+00
2.318369e+01	-6.679669e+00
2.331760e+01	-6.719091e+00
2.345228e+01	-6.758365e+00
2.358774e+01	-6.798258e+00
2.372398e+01	-6.837621e+00
2.386101e+01	-6.877718e+00
2.399883e+01	-6.917071e+00
2.413745e+01	-6.957076e+00
2.427686e+01	-6.997134e+00
2.441709e+01	-7.037497e+00
2.455812e+01	-7.077231e+00
2.469997e+01	-7.117445e+00
2.484263e+01	-7.157932e+00
2.498612e+01	-7.198241e+00
2.513044e+01	-7.238887e+00
2.527559e+01	-7.279491e+00
2.542158e+01	-7.320448e+00
2.556842e+01	-7.361017e+00
2.571610e+01	-7.401818e+00
2.586463e+01	-7.442893e+00
2.601403e+01	-7.484124e+00
2.616428e+01	-7.525174e+00
2.631541e+01	-7.566366e+00
2.646740e+01	-7.607278e+00
2.662028e+01	-7.648937e+00
2.677404e+01	-7.690649e+00
2.692868e+01	-7.732340e+00
2.708422e+01	-7.773514e+00
2.724066e+01	-7.815557e+00
2.739800e+01	-7.857274e+00
2.755625e+01	-7.899161e+00
2.771541e+01	-7.940969e+00
2.787550e+01	-7.983345e+00
2.803650e+01	-8.025928e+00
2.819844e+01	-8.067304e+00
2.836131e+01	-8.109306e+00
2.852513e+01	-8.152023e+00
2.868989e+01	-8.194848e+00
2.885560e+01	-8.236433e+00
2.902227e+01	-8.279410e+00
2.918990e+01	-8.321535e+00
2.935850e+01	-8.364291e+00
2.952807e+01	-8.407056e+00
2.969863e+01	-8.450349e+00
2.987016e+01	-8.493080e+00
3.004269e+01	-8.535847e+00
3.021622e+01	-8.579463e+00
3.039075e+01	-8.622223e+00
3.056628e+01	-8.665652e+00
3.074283e+01	-8.708346e+00
3.092040e+01	-8.752426e+00
3.109900e+01	-8.795810e+00
3.127862e+01	-8.838678e+00
3.145929e+01	-8.882266e+00
3.164099e+01	-8.925947e+00
3.182375e+01	-8.969391e+00
3.200756e+01	-9.013492e+00
3.219244e+01	-9.057095e+00
3.237838e+01	-9.100940e+00
3.256540e+01	-9.144465e+00
3.275349e+01	-9.188765e+00
3.294268e+01	-9.232881e+00
3.313295e+01	-9.276856e+00
3.332433e+01	-9.321327e+00
3.351681e+01	-9.365243e+00
3.371040e+01	-9.410007e+00
3.390511e+01	-9.453724e+00
3.410094e+01	-9.498172e+00
3.429791e+01	-9.542587e+00
3.449601e+01	-9.586741e+00
3.469526e+01	-9.631597e+00
3.489566e+01	-9.676164e+00
3.509721e+01	-9.721015e+00
3.529993e+01	-9.765774e+00
3.550382e+01	-9.810786e+00
3.570889e+01	-9.856018e+00
3.591515e+01	-9.900242e+00
3.612259e+01	-9.945089e+00
3.633123e+01	-9.990302e+00
3.654108e+01	-1.003531e+01
3.675214e+01	-1.008003e+01
3.696442e+01	-1.012526e+01
3.717792e+01	-1.017050e+01
3.739266e+01	-1.021627e+01
3.760864e+01	-1.026137e+01
3.782587e+01	-1.030627e+01
3.804435e+01	-1.035198e+01
3.826409e+01	-1.039685e+01
3.848510e+01	-1.044305e+01
3.870739e+01	-1.048891e+01
3.893096e+01	-1.053361e+01
3.915583e+01	-1.057953e+01
3.938199e+01	-1.062542e+01
3.960946e+01	-1.067094e+01
3.983824e+01	-1.071710e+01
4.006834e+01	-1.076227e+01
4.029978e+01	-1.080874e+01
4.053255e+01	-1.085463e+01
4.076666e+01	-1.090010e+01
4.100213e+01	-1.094607e+01
4.123896e+01	-1.099246e+01
4.147715e+01	-1.103862e+01
4.171672e+01	-1.108436e+01
4.195767e+01	-1.113046e+01
4.220002e+01	-1.117657e+01
4.244377e+01	-1.122274e+01
4.268892e+01	-1.126888e+01
4.293549e+01	-1.131579e+01
4.318348e+01	-1.136275e+01
4.343291e+01	-1.140868e+01
4.368377e+01	-1.145467e+01
4.393609e+01	-1.150148e+01
4.418986e+01	-1.154807e+01
4.444510e+01	-1.159384e+01
4.470182e+01	-1.164102e+01
4.496001e+01	-1.168796e+01
4.521970e+01	-1.173466e+01
4.548089e+01	-1.178107e+01
4.574358e+01	-1.182687e+01
4.600779e+01	-1.187398e+01
4.627353e+01	-1.192129e+01
4.654081e+01	-1.196786e+01
4.680963e+01	-1.201485e+01
4.708000e+01	-1.206160e+01
4.735193e+01	-1.210871e+01
4.762543e+01	-1.215524e+01
4.790051e+01	-1.220221e+01
4.817719e+01	-1.224954e+01
4.845545e+01	-1.229661e+01
4.873533e+01	-1.234367e+01
4.901682e+01	-1.239069e+01
4.929994e+01	-1.243810e+01
4.958470e+01	-1.248502e+01
4.987110e+01	-1.253211e+01
5.015915e+01	-1.257974e+01
5.044887e+01	-1.262665e+01
5.074026e+01	-1.267426e+01
5.103333e+01	-1.272181e+01
5.132810e+01	-1.276891e+01
5.162457e+01	-1.281664e+01
5.192275e+01	-1.286416e+01
5.222265e+01	-1.291190e+01
5.252429e+01	-1.295903e+01
5.282767e+01	-1.300672e+01
5.313280e+01	-1.305397e+01
5.343969e+01	-1.310076e+01
5.374836e+01	-1.314856e+01
5.405880e+01	-1.319666e+01
5.437105e+01	-1.324405e+01
5.468509e+01	-1.329210e+01
5.500095e+01	-1.333937e+01
5.531863e+01	-1.338781e+01
5.563815e+01	-1.343519e+01
5.595951e+01	-1.348305e+01
5.628273e+01	-1.353045e+01
5.660782e+01	-1.357781e+01
5.693479e+01	-1.362584e+01
5.726364e+01	-1.367409e+01
5.759439e+01	-1.372161e+01
5.792705e+01	-1.377033e+01
5.826164e+01	-1.381794e+01
5.859815e+01	-1.386633e+01
5.893662e+01	-1.391370e+01
5.927703e+01	-1.396183e+01
5.961941e+01	-1.400999e+01
5.996377e+01	-1.405778e+01
6.031012e+01	-1.410637e+01
6.065847e+01	-1.415488e+01
6.100883e+01	-1.420224e+01
6.136121e+01	-1.424970e+01
6.171563e+01	-1.429855e+01
6.207210e+01	-1.434675e+01
6.243063e+01	-1.439502e+01
6.279122e+01	-1.444280e+01
6.315390e+01	-1.449196e+01
6.351868e+01	-1.453942e+01
6.388556e+01	-1.458828e+01
6.425456e+01	-1.463578e+01
6.462569e+01	-1.468405e+01
6.499897e+01	-1.473310e+01
6.537440e+01	-1.478156e+01
6.575200e+01	-1.482936e+01
6.613178e+01	-1.487841e+01
6.651375e+01	-1.492621e+01
6.689793e+01	-1.497498e+01
6.728433e+01	-1.502325e+01
6.767297e+01	-1.507248e+01
6.806384e+01	-1.512022e+01
6.845698e+01	-1.516829e+01
6.885238e+01	-1.521694e+01
6.925007e+01	-1.526575e+01
6.965005e+01	-1.531384e+01
7.005235e+01	-1.536304e+01
7.045697e+01	-1.541148e+01
7.086393e+01	-1.545977e+01
7.127323e+01	-1.550780e+01
7.168490e+01	-1.555818e+01
7.209895e+01	-1.560693e+01
7.251539e+01	-1.565499e+01
7.293424e+01	-1.570231e+01
7.335551e+01	-1.575247e+01
7.377920e+01	-1.580108e+01
7.420535e+01	-1.584959e+01
7.463396e+01	-1.589776e+01
7.506504e+01	-1.594636e+01
7.549861e+01	-1.599450e+01
7.593469e+01	-1.604535e+01
7.637328e+01	-1.609346e+01
7.681441e+01	-1.614149e+01
7.725809e+01	-1.619115e+01
7.770433e+01	-1.623971e+01
7.815315e+01	-1.628859e+01
7.860456e+01	-1.633658e+01
7.905857e+01	-1.638592e+01
7.951521e+01	-1.643546e+01
7.997449e+01	-1.648401e+01
8.043642e+01	-1.653351e+01
8.090102e+01	-1.658190e+01
8.136830e+01	-1.663139e+01
8.183828e+01	-1.668085e+01
8.231097e+01	-1.672788e+01
8.278640e+01	-1.677669e+01
8.326457e+01	-1.682617e+01
8.374550e+01	-1.687557e+01
8.422921e+01	-1.692506e+01
8.471572e+01	-1.697350e+01
8.520503e+01	-1.702369e+01
8.569717e+01	-1.707193e+01
8.619215e+01	-1.712059e+01
8.669000e+01	-1.717153e+01
8.719071e+01	-1.721957e+01
8.769432e+01	-1.726774e+01
8.820084e+01	-1.731710e+01
8.871029e+01	-1.736634e+01
8.922267e+01	-1.741524e+01
8.973802e+01	-1.746488e+01
9.025634e+01	-1.751508e+01
9.077766e+01	-1.756331e+01
9.130199e+01	-1.761169e+01
9.182935e+01	-1.766075e+01
9.235975e+01	-1.770960e+01
9.289321e+01	-1.775964e+01
9.342976e+01	-1.780843e+01
9.396941e+01	-1.785856e+01
9.451217e+01	-1.790713e+01
9.505807e+01	-1.795551e+01
9.560712e+01	-1.800735e+01
9.615934e+01	-1.805571e+01
9.671476e+01	-1.810283e+01
9.727338e+01	-1.815186e+01
9.783522e+01	-1.820312e+01
9.840032e+01	-1.825186e+01
9.896867e+01	-1.830134e+01
9.954031e+01	-1.835072e+01
1.001153e+02	-1.840058e+01
1.006935e+02	-1.844810e+01
1.012751e+02	-1.849844e+01
1.018601e+02	-1.854583e+01
1.024484e+02	-1.859749e+01
1.030402e+02	-1.864633e+01
1.036353e+02	-1.869622e+01
1.042339e+02	-1.874528e+01
1.048360e+02	-1.879447e+01
1.054415e+02	-1.884399e+01
1.060505e+02	-1.889236e+01
1.066631e+02	-1.894272e+01
1.072791e+02	-1.899092e+01
1.078988e+02	-1.903982e+01
1.085220e+02	-1.909062e+01
1.091488e+02	-1.913897e+01
1.097793e+02	-1.918918e+01
1.104133e+02	-1.924012e+01
1.110511e+02	-1.928948e+01
1.116925e+02	-1.933727e+01
1.123376e+02	-1.938894e+01
1.129865e+02	-1.943710e+01
1.136391e+02	-1.948632e+01
1.142955e+02	-1.953664e+01
1.149556e+02	-1.958538e+01
1.156196e+02	-1.963576e+01
1.162874e+02	-1.968467e+01
1.169591e+02	-1.973357e+01
1.176347e+02	-1.978210e+01
1.183141e+02	-1.983175e+01
1.189975e+02	-1.988175e+01
1.196848e+02	-1.993248e+01
1.203761e+02	-1.998221e+01
1.210714e+02	-2.003097e+01
1.217707e+02	-2.008006e+01
1.224740e+02	-2.012912e+01
1.231814e+02	-2.017983e+01
1.238929e+02	-2.022971e+01
1.246085e+02	-2.027801e+01
1.253283e+02	-2.032682e+01
1.260522e+02	-2.037708e+01
1.267802e+02	-2.042921e+01
1.275125e+02	-2.047695e+01
1.282490e+02	-2.052649e+01
1.289898e+02	-2.057696e+01
1.297348e+02	-2.062615e+01
1.304842e+02	-2.067620e+01
1.312378e+02	-2.072598e+01
1.319959e+02	-2.077450e+01
1.327583e+02	-2.082255e+01
1.335251e+02	-2.087389e+01
1.342963e+02	-2.092257e+01
1.350720e+02	-2.097300e+01
1.358522e+02	-2.102347e+01
1.366368e+02	-2.107230e+01
1.374260e+02	-2.112218e+01
1.382198e+02	-2.117153e+01
1.390182e+02	-2.122383e+01
1.398211e+02	-2.127183e+01
1.406287e+02	-2.132054e+01
1.414410e+02	-2.136986e+01
1.422579e+02	-2.142018e+01
1.430796e+02	-2.147083e+01
1.439060e+02	-2.151907e+01
1.447372e+02	-2.156729e+01
1.455732e+02	-2.161972e+01
1.464141e+02	-2.166778e+01
1.472597e+02	-2.171769e+01
1.481103e+02	-2.176645e+01
1.489658e+02	-2.181530e+01
1.498262e+02	-2.186700e+01
1.506916e+02	-2.191729e+01
1.515620e+02	-2.197009e+01
1.524374e+02	-2.201553e+01
1.533179e+02	-2.206349e+01
1.542034e+02	-2.211634e+01
1.550941e+02	-2.216531e+01
1.559899e+02	-2.221496e+01
1.568909e+02	-2.226644e+01
1.577971e+02	-2.231424e+01
1.587085e+02	-2.236411e+01
1.596252e+02	-2.241385e+01
1.605472e+02	-2.246523e+01
1.614745e+02	-2.251473e+01
1.624072e+02	-2.256292e+01
1.633453e+02	-2.261601e+01
1.642887e+02	-2.266210e+01
1.652377e+02	-2.271487e+01
1.661921e+02	-2.276473e+01
1.671520e+02	-2.281447e+01
1.681175e+02	-2.286305e+01
1.690885e+02	-2.291572e+01
1.700651e+02	-2.296175e+01
1.710474e+02	-2.301309e+01
1.720354e+02	-2.306073e+01
1.730291e+02	-2.311245e+01
1.740285e+02	-2.316130e+01
1.750337e+02	-2.320964e+01
1.760446e+02	-2.326215e+01
1.770615e+02	-2.331132e+01
1.780842e+02	-2.335869e+01
1.791128e+02	-2.340951e+01
1.801473e+02	-2.346115e+01
1.811878e+02	-2.351078e+01
1.822344e+02	-2.356069e+01
1.832870e+02	-2.361081e+01
1.843456e+02	-2.366025e+01
1.854104e+02	-2.371088e+01
1.864813e+02	-2.375945e+01
1.875584e+02	-2.381236e+01
1.886418e+02	-2.386111e+01
1.897313e+02	-2.391001e+01
1.908272e+02	-2.395902e+01
1.919294e+02	-2.401020e+01
1.930380e+02	-2.405674e+01
1.941530e+02	-2.410641e+01
1.952744e+02	-2.415679e+01
1.964023e+02	-2.420964e+01
1.975367e+02	-2.425717e+01
1.986777e+02	-2.430986e+01
1.998252e+02	-2.435713e+01
2.009794e+02	-2.440929e+01
2.021403e+02	-2.445797e+01
2.033078e+02	-2.450713e+01
2.044821e+02	-2.455455e+01
2.056632e+02	-2.460594e+01
2.068511e+02	-2.465654e+01
2.080459e+02	-2.470571e+01
2.092475e+02	-2.475809e+01
2.104561e+02	-2.480808e+01
2.116717e+02	-2.485438e+01
2.128943e+02	-2.490768e+01
2.141240e+02	-2.495450e+01
2.153608e+02	-2.500373e+01
2.166047e+02	-2.505572e+01
2.178558e+02	-2.510535e+01
2.191141e+02	-2.515592e+01
2.203797e+02	-2.520702e+01
2.216526e+02	-2.525453e+01
2.229329e+02	-2.530284e+01
2.242205e+02	-2.535506e+01
2.255156e+02	-2.540751e+01
2.268182e+02	-2.545752e+01
2.281283e+02	-2.550668e+01
2.294459e+02	-2.555554e+01
2.307712e+02	-2.560384e+01
2.321041e+02	-2.565569e+01
2.334447e+02	-2.570441e+01
2.347931e+02	-2.575364e+01
2.361493e+02	-2.580392e+01
2.375133e+02	-2.585557e+01
2.388851e+02	-2.590682e+01
2.402649e+02	-2.595556e+01
2.416527e+02	-2.600311e+01
2.430484e+02	-2.605766e+01
2.444523e+02	-2.610486e+01
2.458642e+02	-2.615644e+01
2.472843e+02	-2.620540e+01
2.487126e+02	-2.625407e+01
2.501492e+02	-2.630384e+01
2.515940e+02	-2.635461e+01
2.530472e+02	-2.640518e+01
2.545088e+02	-2.645263e+01
2.559789e+02	-2.650256e+01
2.574574e+02	-2.655516e+01
2.589444e+02	-2.660364e+01
2.604401e+02	-2.665178e+01
2.619444e+02	-2.670438e+01
2.634574e+02	-2.675371e+01
2.649791e+02	-2.680302e+01
2.665096e+02	-2.685086e+01
2.680489e+02	-2.690810e+01
2.695972e+02	-2.694992e+01
2.711544e+02	-2.699940e+01
2.727205e+02	-2.705349e+01
2.742958e+02	-2.710260e+01
2.758801e+02	-2.715145e+01
2.774736e+02	-2.720125e+01
2.790762e+02	-2.725572e+01
2.806882e+02	-2.730347e+01
2.823094e+02	-2.735424e+01
2.839400e+02	-2.740377e+01
2.855800e+02	-2.745191e+01
2.872295e+02	-2.750306e+01
2.888886e+02	-2.755391e+01
2.905572e+02	-2.760026e+01
2.922354e+02	-2.765483e+01
2.939234e+02	-2.770635e+01
2.956211e+02	-2.775333e+01
2.973286e+02	-2.780384e+01
2.990459e+02	-2.785576e+01
3.007732e+02	-2.790062e+01
3.025104e+02	-2.795293e+01
3.042577e+02	-2.800049e+01
3.060151e+02	-2.805914e+01
3.077826e+02	-2.810413e+01
3.095604e+02	-2.815335e+01
3.113484e+02	-2.820717e+01
3.131467e+02	-2.825621e+01
3.149554e+02	-2.830584e+01
3.167746e+02	-2.835293e+01
3.186043e+02	-2.840268e+01
3.204445e+02	-2.845467e+01
3.222954e+02	-2.850082e+01
3.241570e+02	-2.855554e+01
3.260293e+02	-2.860400e+01
3.279124e+02	-2.865181e+01
3.298064e+02	-2.870762e+01
3.317114e+02	-2.875147e+01
3.336273e+02	-2.880292e+01
3.355544e+02	-2.884916e+01
3.374925e+02	-2.890434e+01
3.394418e+02	-2.895597e+01
3.414024e+02	-2.900491e+01
3.433744e+02	-2.905095e+01
3.453577e+02	-2.910321e+01
3.473525e+02	-2.915731e+01
3.493588e+02	-2.920512e+01
3.513766e+02	-2.925325e+01
3.534062e+02	-2.930340e+01
3.554474e+02	-2.935680e+01
3.575005e+02	-2.940141e+01
3.595654e+02	-2.945267e+01
3.616422e+02	-2.950449e+01
3.637311e+02	-2.955220e+01
3.658320e+02	-2.960707e+01
3.679450e+02	-2.965133e+01
3.700702e+02	-2.970297e+01
3.722077e+02	-2.975346e+01
3.743576e+02	-2.981001e+01
3.765199e+02	-2.985394e+01
3.786946e+02	-2.990268e+01
3.808820e+02	-2.995373e+01
3.830819e+02	-3.000691e+01
3.852946e+02	-3.005339e+01
3.875200e+02	-3.010653e+01
3.897583e+02	-3.015831e+01
3.920096e+02	-3.020199e+01
3.942738e+02	-3.025645e+01
3.965511e+02	-3.030495e+01
3.988416e+02	-3.035510e+01
4.011452e+02	-3.040741e+01
4.034622e+02	-3.045659e+01
4.057926e+02	-3.050850e+01
4.081365e+02	-3.055488e+01
4.104938e+02	-3.060509e+01
4.128648e+02	-3.065965e+01
4.152495e+02	-3.070867e+01
4.176480e+02	-3.075805e+01
4.200603e+02	-3.080970e+01
4.224866e+02	-3.085748e+01
4.249268e+02	-3.091123e+01
4.273812e+02	-3.095728e+01
4.298497e+02	-3.100547e+01
4.323325e+02	-3.105707e+01
4.348297e+02	-3.110664e+01
4.373412e+02	-3.115273e+01
4.398673e+02	-3.120673e+01
4.424079e+02	-3.125987e+01
4.449633e+02	-3.130372e+01
4.475334e+02	-3.136129e+01
4.501183e+02	-3.140715e+01
4.527182e+02	-3.145891e+01
4.553330e+02	-3.151233e+01
4.579630e+02	-3.156019e+01
4.606082e+02	-3.161349e+01
4.632687e+02	-3.166168e+01
4.659445e+02	-3.170693e+01
4.686358e+02	-3.175733e+01
4.713426e+02	-3.180945e+01
4.740650e+02	-3.185979e+01
4.768032e+02	-3.190869e+01
4.795572e+02	-3.196086e+01
4.823271e+02	-3.200634e+01
4.851130e+02	-3.206291e+01
4.879150e+02	-3.211434e+01
4.907332e+02	-3.216311e+01
4.935676e+02	-3.221269e+01
4.964185e+02	-3.226398e+01
4.992858e+02	-3.231416e+01
5.021696e+02	-3.235802e+01
5.050701e+02	-3.241799e+01
5.079874e+02	-3.246534e+01
5.109215e+02	-3.251138e+01
5.138726e+02	-3.256726e+01
5.168407e+02	-3.261237e+01
5.198259e+02	-3.266492e+01
5.228284e+02	-3.271319e+01
5.258482e+02	-3.276633e+01
5.288855e+02	-3.280849e+01
5.319403e+02	-3.286288e+01
5.350128e+02	-3.291377e+01
5.381030e+02	-3.296188e+01
5.412111e+02	-3.301505e+01
5.443371e+02	-3.306895e+01
5.474812e+02	-3.311790e+01
5.506434e+02	-3.316599e+01
5.538239e+02	-3.321655e+01
5.570228e+02	-3.326880e+01
5.602401e+02	-3.331818e+01
5.634760e+02	-3.337236e+01
5.667306e+02	-3.341726e+01
5.700040e+02	-3.346502e+01
5.732964e+02	-3.351822e+01
5.766077e+02	-3.356797e+01
5.799382e+02	-3.360747e+01
5.832879e+02	-3.366571e+01
5.866569e+02	-3.372029e+01
5.900454e+02	-3.377194e+01
5.934535e+02	-3.382057e+01
5.968813e+02	-3.386712e+01
6.003288e+02	-3.391839e+01
6.037963e+02	-3.396547e+01
6.072838e+02	-3.402753e+01
6.107914e+02	-3.406531e+01
6.143194e+02	-3.412282e+01
6.178676e+02	-3.417315e+01
6.214364e+02	-3.422465e+01
6.250258e+02	-3.427384e+01
6.286359e+02	-3.431547e+01
6.322669e+02	-3.436228e+01
6.359189e+02	-3.441786e+01
6.395919e+02	-3.447747e+01
6.432862e+02	-3.451887e+01
6.470017e+02	-3.457441e+01
6.507388e+02	-3.462405e+01
6.544974e+02	-3.467437e+01
6.582778e+02	-3.473013e+01
6.620800e+02	-3.477873e+01
6.659041e+02	-3.482234e+01
6.697504e+02	-3.487330e+01
6.736188e+02	-3.492506e+01
6.775096e+02	-3.498166e+01
6.814229e+02	-3.502833e+01
6.853587e+02	-3.507101e+01
6.893173e+02	-3.512528e+01
6.932988e+02	-3.516892e+01
6.973033e+02	-3.523797e+01
7.013309e+02	-3.528043e+01
