Frequency(Hz)	Magnitude(dB)
1.000000e+01	-2.254018e+00
1.005776e+01	-2.274335e+00
1.011585e+01	-2.294943e+00
1.017428e+01	-2.315244e+00
1.023305e+01	-2.336433e+00
1.029215e+01	-2.356958e+00
1.035160e+01	-2.378210e+00
1.041139e+01	-2.399222e+00
1.047153e+01	-2.420654e+00
1.053201e+01	-2.441798e+00
1.059284e+01	-2.463538e+00
1.065403e+01	-2.485390e+00
1.071556e+01	-2.507192e+00
1.077746e+01	-2.529313e+00
1.083971e+01	-2.551335e+00
1.090232e+01	-2.573746e+00
1.096529e+01	-2.595975e+00
1.102862e+01	-2.618480e+00
1.109232e+01	-2.641466e+00
1.115639e+01	-2.664388e+00
1.122083e+01	-2.687288e+00
1.128564e+01	-2.710341e+00
1.135083e+01	-2.733913e+00
1.141639e+01	-2.756985e+00
1.148233e+01	-2.780819e+00
1.154865e+01	-2.804464e+00
1.161536e+01	-2.828072e+00
1.168245e+01	-2.852237e+00
1.174992e+01	-2.876256e+00
1.181779e+01	-2.900911e+00
1.188605e+01	-2.925259e+00
1.195470e+01	-2.949769e+00
1.202375e+01	-2.974769e+00
1.209320e+01	-2.999387e+00
1.216305e+01	-3.024588e+00
1.223330e+01	-3.049441e+00
1.230396e+01	-3.074737e+00
1.237503e+01	-3.100359e+00
1.244651e+01	-3.126029e+00
1.251840e+01	-3.151598e+00
1.259070e+01	-3.177520e+00
1.266343e+01	-3.203587e+00
1.273657e+01	-3.229865e+00
1.281014e+01	-3.256130e+00
1.288413e+01	-3.282582e+00
1.295855e+01	-3.308966e+00
1.303339e+01	-3.335994e+00
1.310867e+01	-3.362864e+00
1.318439e+01	-3.389767e+00
1.326054e+01	-3.416978e+00
1.333713e+01	-3.444319e+00
1.341417e+01	-3.471999e+00
1.349165e+01	-3.499580e+00
1.356958e+01	-3.527265e+00
1.364795e+01	-3.555055e+00
1.372678e+01	-3.583028e+00
1.380607e+01	-3.611242e+00
1.388581e+01	-3.639582e+00
1.396602e+01	-3.667851e+00
1.404668e+01	-3.696607e+00
1.412782e+01	-3.725340e+00
1.420942e+01	-3.754325e+00
1.429149e+01	-3.783105e+00
1.437404e+01	-3.812362e+00
1.445706e+01	-3.841844e+00
1.454057e+01	-3.871329e+00
1.462455e+01	-3.900778e+00
1.470902e+01	-3.930441e+00
1.479398e+01	-3.960235e+00
1.487943e+01	-3.990578e+00
1.496537e+01	-4.020385e+00
1.505181e+01	-4.050644e+00
1.513875e+01	-4.081224e+00
1.522619e+01	-4.111757e+00
1.531414e+01	-4.142386e+00
1.540259e+01	-4.173425e+00
1.549156e+01	-4.204091e+00
1.558103e+01	-4.235276e+00
1.567103e+01	-4.266577e+00
1.576155e+01	-4.297620e+00
1.585258e+01	-4.329394e+00
1.594415e+01	-4.360701e+00
1.603624e+01	-4.392726e+00
1.612886e+01	-4.424654e+00
1.622202e+01	-4.456729e+00
1.631572e+01	-4.488881e+00
1.640996e+01	-4.521138e+00
1.650474e+01	-4.553404e+00
1.660008e+01	-4.586114e+00
1.669596e+01	-4.618614e+00
1.679239e+01	-4.651708e+00
1.688938e+01	-4.684712e+00
1.698694e+01	-4.717580e+00
1.708505e+01	-4.750901e+00
1.718373e+01	-4.784394e+00
1.728299e+01	-4.817815e+00
1.738281e+01	-4.851220e+00
1.748322e+01	-4.885071e+00
1.758420e+01	-4.918808e+00
1.768576e+01	-4.952975e+00
1.778792e+01	-4.986809e+00
1.789066e+01	-5.021097e+00
1.799399e+01	-5.055416e+00
1.809793e+01	-5.089799e+00
1.820246e+01	-5.124574e+00
1.830760e+01	-5.159491e+00
1.841334e+01	-5.193842e+00
1.851969e+01	-5.229083e+00
1.862666e+01	-5.264272e+00
1.873425e+01	-5.299338e+00
1.884246e+01	-5.334678e+00
1.895129e+01	-5.370362e+00
1.906075e+01	-5.405653e+00
1.917085e+01	-5.441117e+00
1.928158e+01	-5.476912e+00
1.939295e+01	-5.512987e+00
1.950496e+01	-5.549102e+00
1.961762e+01	-5.585575e+00
1.973093e+01	-5.621514e+00
1.984490e+01	-5.658021e+00
1.995952e+01	-5.694177e+00
2.007480e+01	-5.731099e+00
2.019076e+01	-5.767282e+00
2.030738e+01	-5.804183e+00
2.042467e+01	-5.841089e+00
2.054264e+01	-5.878366e+00
2.066130e+01	-5.915698e+00
2.078064e+01	-5.953007e+00
2.090066e+01	-5.990233e+00
2.102139e+01	-6.027943e+00
2.114280e+01	-6.065175e+00
2.126492e+01	-6.103178e+00
2.138775e+01	-6.140967e+00
2.151128e+01	-6.178528e+00
2.163553e+01	-6.216583e+00
2.176050e+01	-6.254756e+00
2.188619e+01	-6.293022e+00
2.201260e+01	-6.331618e+00
2.213974e+01	-6.369903e+00
2.226762e+01	-6.408435e+00
2.239624e+01	-6.446966e+00
2.252560e+01	-6.485870e+00
2.265571e+01	-6.525019e+00
2.278656e+01	-6.563483e+00
2.291818e+01	-6.602651e+00
2.305055e+01	-6.641491e+00
2.318369e+01	-6.680892e+00
2.331760e+01	-6.720123e+00
2.345228e+01	-6.759855e+00
2.358774e+01	-6.799584e+00
2.372398e+01	-6.838671e+00
2.386101e+01	-6.878651e+00
2.399883e+01	-6.918213e+00
2.413745e+01	-6.958300e+00
2.427686e+01	-6.998495e+00
2.441709e+01	-7.038277e+00
2.455812e+01	-7.078412e+00
2.469997e+01	-7.118747e+00
2.484263e+01	-7.159192e+00
2.498612e+01	-7.199752e+00
2.513044e+01	-7.240245e+00
2.527559e+01	-7.280655e+00
2.542158e+01	-7.321274e+00
2.556842e+01	-7.362053e+00
2.571610e+01	-7.403077e+00
2.586463e+01	-7.444212e+00
2.601403e+01	-7.485139e+00
2.616428e+01	-7.526202e+00
2.631541e+01	-7.567683e+00
2.646740e+01	-7.609106e+00
2.662028e+01	-7.650046e+00
2.677404e+01	-7.691605e+00
2.692868e+01	-7.732935e+00
2.708422e+01	-7.775068e+00
2.724066e+01	-7.816627e+00
2.739800e+01	-7.858262e+00
2.755625e+01	-7.900635e+00
2.771541e+01	-7.942491e+00
2.787550e+01	-7.984338e+00
2.803650e+01	-8.026335e+00
2.819844e+01	-8.068510e+00
2.836131e+01	-8.110742e+00
2.852513e+01	-8.153005e+00
2.868989e+01	-8.195538e+00
2.885560e+01	-8.237933e+00
2.902227e+01	-8.280467e+00
2.918990e+01	-8.323123e+00
2.935850e+01	-8.366043e+00
2.952807e+01	-8.408517e+00
2.969863e+01	-8.451818e+00
2.987016e+01	-8.494420e+00
3.004269e+01	-8.537395e+00
3.021622e+01	-8.580680e+00
3.039075e+01	-8.623526e+00
3.056628e+01	-8.666687e+00
3.074283e+01	-8.709877e+00
3.092040e+01	-8.753462e+00
3.109900e+01	-8.797146e+00
3.127862e+01	-8.840663e+00
3.145929e+01	-8.883952e+00
3.164099e+01	-8.927615e+00
3.182375e+01	-8.971357e+00
3.200756e+01	-9.014966e+00
3.219244e+01	-9.058074e+00
3.237838e+01	-9.102450e+00
3.256540e+01	-9.146022e+00
3.275349e+01	-9.190396e+00
3.294268e+01	-9.234333e+00
3.313295e+01	-9.278708e+00
3.332433e+01	-9.323002e+00
3.351681e+01	-9.366570e+00
3.371040e+01	-9.410832e+00
3.390511e+01	-9.454953e+00
3.410094e+01	-9.499450e+00
3.429791e+01	-9.543483e+00
3.449601e+01	-9.589134e+00
3.469526e+01	-9.633614e+00
3.489566e+01	-9.677701e+00
3.509721e+01	-9.723051e+00
3.529993e+01	-9.767198e+00
3.550382e+01	-9.811883e+00
3.570889e+01	-9.856738e+00
3.591515e+01	-9.901433e+00
3.612259e+01	-9.946152e+00
3.633123e+01	-9.992154e+00
3.654108e+01	-1.003679e+01
3.675214e+01	-1.008179e+01
3.696442e+01	-1.012676e+01
3.717792e+01	-1.017241e+01
3.739266e+01	-1.021737e+01
3.760864e+01	-1.026253e+01
3.782587e+01	-1.030812e+01
3.804435e+01	-1.035377e+01
3.826409e+01	-1.039846e+01
3.848510e+01	-1.044466e+01
3.870739e+01	-1.049006e+01
3.893096e+01	-1.053485e+01
3.915583e+01	-1.058112e+01
3.938199e+01	-1.062572e+01
3.960946e+01	-1.067227e+01
3.983824e+01	-1.071811e+01
4.006834e+01	-1.076338e+01
4.029978e+01	-1.080974e+01
4.053255e+01	-1.085586e+01
4.076666e+01	-1.090192e+01
4.100213e+01	-1.094784e+01
4.123896e+01	-1.099385e+01
4.147715e+01	-1.103990e+01
4.171672e+01	-1.108578e+01
4.195767e+01	-1.113209e+01
4.220002e+01	-1.117799e+01
4.244377e+01	-1.122483e+01
4.268892e+01	-1.127091e+01
4.293549e+01	-1.131670e+01
4.318348e+01	-1.136331e+01
4.343291e+01	-1.141009e+01
4.368377e+01	-1.145613e+01
4.393609e+01	-1.150185e+01
4.418986e+01	-1.154913e+01
4.444510e+01	-1.159562e+01
4.470182e+01	-1.164229e+01
4.496001e+01	-1.168887e+01
4.521970e+01	-1.173573e+01
4.548089e+01	-1.178218e+01
4.574358e+01	-1.182839e+01
4.600779e+01	-1.187521e+01
4.627353e+01	-1.192249e+01
4.654081e+01	-1.196942e+01
4.680963e+01	-1.201696e+01
4.708000e+01	-1.206369e+01
4.735193e+01	-1.210988e+01
4.762543e+01	-1.215697e+01
4.790051e+01	-1.220372e+01
4.817719e+01	-1.225131e+01
4.845545e+01	-1.229823e+01
4.873533e+01	-1.234608e+01
4.901682e+01	-1.239217e+01
4.929994e+01	-1.243975e+01
4.958470e+01	-1.248721e+01
4.987110e+01	-1.253388e+01
5.015915e+01	-1.258077e+01
5.044887e+01	-1.262852e+01
5.074026e+01	-1.267538e+01
5.103333e+01	-1.272330e+01
5.132810e+01	-1.277114e+01
5.162457e+01	-1.281767e+01
5.192275e+01	-1.286549e+01
5.222265e+01	-1.291324e+01
5.252429e+01	-1.296042e+01
5.282767e+01	-1.300828e+01
5.313280e+01	-1.305496e+01
5.343969e+01	-1.310358e+01
5.374836e+01	-1.315007e+01
5.405880e+01	-1.319743e+01
5.437105e+01	-1.324506e+01
5.468509e+01	-1.329357e+01
5.500095e+01	-1.334129e+01
5.531863e+01	-1.338865e+01
5.563815e+01	-1.343585e+01
5.595951e+01	-1.348474e+01
5.628273e+01	-1.353227e+01
5.660782e+01	-1.357994e+01
5.693479e+01	-1.362804e+01
5.726364e+01	-1.367545e+01
5.759439e+01	-1.372412e+01
5.792705e+01	-1.377182e+01
5.826164e+01	-1.381929e+01
5.859815e+01	-1.386748e+01
5.893662e+01	-1.391505e+01
5.927703e+01	-1.396306e+01
5.961941e+01	-1.401152e+01
5.996377e+01	-1.405885e+01
6.031012e+01	-1.410712e+01
6.065847e+01	-1.415560e+01
6.100883e+01	-1.420334e+01
6.136121e+01	-1.425141e+01
6.171563e+01	-1.429954e+01
6.207210e+01	-1.434845e+01
6.243063e+01	-1.439652e+01
6.279122e+01	-1.444502e+01
6.315390e+01	-1.449227e+01
6.351868e+01	-1.454148e+01
6.388556e+01	-1.458966e+01
6.425456e+01	-1.463822e+01
6.462569e+01	-1.468596e+01
6.499897e+01	-1.473366e+01
6.537440e+01	-1.478288e+01
6.575200e+01	-1.483070e+01
6.613178e+01	-1.487888e+01
6.651375e+01	-1.492753e+01
6.689793e+01	-1.497573e+01
6.728433e+01	-1.502440e+01
6.767297e+01	-1.507305e+01
6.806384e+01	-1.512178e+01
6.845698e+01	-1.517038e+01
6.885238e+01	-1.521960e+01
6.925007e+01	-1.526770e+01
6.965005e+01	-1.531500e+01
7.005235e+01	-1.536393e+01
7.045697e+01	-1.541269e+01
7.086393e+01	-1.546157e+01
7.127323e+01	-1.551075e+01
7.168490e+01	-1.555908e+01
7.209895e+01	-1.560830e+01
7.251539e+01	-1.565669e+01
7.293424e+01	-1.570370e+01
7.335551e+01	-1.575247e+01
7.377920e+01	-1.580235e+01
7.420535e+01	-1.585032e+01
7.463396e+01	-1.590016e+01
7.506504e+01	-1.594777e+01
7.549861e+01	-1.599679e+01
7.593469e+01	-1.604507e+01
7.637328e+01	-1.609487e+01
7.681441e+01	-1.614428e+01
7.725809e+01	-1.619199e+01
7.770433e+01	-1.624118e+01
7.815315e+01	-1.628943e+01
7.860456e+01	-1.633964e+01
7.905857e+01	-1.638769e+01
7.951521e+01	-1.643645e+01
7.997449e+01	-1.648567e+01
8.043642e+01	-1.653588e+01
8.090102e+01	-1.658261e+01
8.136830e+01	-1.663261e+01
8.183828e+01	-1.668192e+01
8.231097e+01	-1.673038e+01
8.278640e+01	-1.678006e+01
8.326457e+01	-1.682830e+01
8.374550e+01	-1.687728e+01
8.422921e+01	-1.692622e+01
8.471572e+01	-1.697389e+01
8.520503e+01	-1.702461e+01
8.569717e+01	-1.707221e+01
8.619215e+01	-1.712139e+01
8.669000e+01	-1.717175e+01
8.719071e+01	-1.721973e+01
8.769432e+01	-1.727080e+01
8.820084e+01	-1.731902e+01
8.871029e+01	-1.736695e+01
8.922267e+01	-1.741775e+01
8.973802e+01	-1.746593e+01
9.025634e+01	-1.751528e+01
9.077766e+01	-1.756287e+01
9.130199e+01	-1.761378e+01
9.182935e+01	-1.766252e+01
9.235975e+01	-1.771219e+01
9.289321e+01	-1.776109e+01
9.342976e+01	-1.781153e+01
9.396941e+01	-1.785880e+01
9.451217e+01	-1.790960e+01
9.505807e+01	-1.795828e+01
9.560712e+01	-1.800726e+01
9.615934e+01	-1.805608e+01
9.671476e+01	-1.810646e+01
9.727338e+01	-1.815574e+01
9.783522e+01	-1.820332e+01
9.840032e+01	-1.825370e+01
9.896867e+01	-1.830316e+01
9.954031e+01	-1.835295e+01
1.001153e+02	-1.839993e+01
1.006935e+02	-1.844961e+01
1.012751e+02	-1.850045e+01
1.018601e+02	-1.854980e+01
1.024484e+02	-1.859890e+01
1.030402e+02	-1.864842e+01
1.036353e+02	-1.869612e+01
1.042339e+02	-1.874789e+01
1.048360e+02	-1.879690e+01
1.054415e+02	-1.884550e+01
1.060505e+02	-1.889426e+01
1.066631e+02	-1.894261e+01
1.072791e+02	-1.899330e+01
1.078988e+02	-1.904319e+01
1.085220e+02	-1.909195e+01
1.091488e+02	-1.914296e+01
1.097793e+02	-1.919083e+01
1.104133e+02	-1.924155e+01
1.110511e+02	-1.928975e+01
1.116925e+02	-1.933992e+01
1.123376e+02	-1.938916e+01
1.129865e+02	-1.943931e+01
1.136391e+02	-1.948838e+01
1.142955e+02	-1.953657e+01
1.149556e+02	-1.958681e+01
1.156196e+02	-1.963559e+01
1.162874e+02	-1.968661e+01
1.169591e+02	-1.973638e+01
1.176347e+02	-1.978588e+01
1.183141e+02	-1.983459e+01
1.189975e+02	-1.988547e+01
1.196848e+02	-1.993279e+01
1.203761e+02	-1.998192e+01
1.210714e+02	-2.003285e+01
1.217707e+02	-2.008253e+01
1.224740e+02	-2.013179e+01
1.231814e+02	-2.018033e+01
1.238929e+02	-2.023156e+01
1.246085e+02	-2.028142e+01
1.253283e+02	-2.033072e+01
1.260522e+02	-2.037870e+01
1.267802e+02	-2.042964e+01
1.275125e+02	-2.047709e+01
1.282490e+02	-2.053136e+01
1.289898e+02	-2.057719e+01
1.297348e+02	-2.062759e+01
1.304842e+02	-2.067841e+01
1.312378e+02	-2.072560e+01
1.319959e+02	-2.077787e+01
1.327583e+02	-2.082570e+01
1.335251e+02	-2.087607e+01
1.342963e+02	-2.092483e+01
1.350720e+02	-2.097618e+01
1.358522e+02	-2.102458e+01
1.366368e+02	-2.107424e+01
1.374260e+02	-2.112611e+01
1.382198e+02	-2.117214e+01
1.390182e+02	-2.122375e+01
1.398211e+02	-2.127276e+01
1.406287e+02	-2.132253e+01
1.414410e+02	-2.137250e+01
1.422579e+02	-2.142218e+01
1.430796e+02	-2.147224e+01
1.439060e+02	-2.152121e+01
1.447372e+02	-2.157032e+01
1.455732e+02	-2.162000e+01
1.464141e+02	-2.166998e+01
1.472597e+02	-2.171914e+01
1.481103e+02	-2.176897e+01
1.489658e+02	-2.181897e+01
1.498262e+02	-2.186868e+01
1.506916e+02	-2.191943e+01
1.515620e+02	-2.196788e+01
1.524374e+02	-2.201836e+01
1.533179e+02	-2.206725e+01
1.542034e+02	-2.211956e+01
1.550941e+02	-2.216781e+01
1.559899e+02	-2.221726e+01
1.568909e+02	-2.226588e+01
1.577971e+02	-2.231704e+01
1.587085e+02	-2.236713e+01
1.596252e+02	-2.241574e+01
1.605472e+02	-2.246834e+01
1.614745e+02	-2.251585e+01
1.624072e+02	-2.256635e+01
1.633453e+02	-2.261516e+01
1.642887e+02	-2.266421e+01
1.652377e+02	-2.271498e+01
1.661921e+02	-2.276479e+01
1.671520e+02	-2.281331e+01
1.681175e+02	-2.286212e+01
1.690885e+02	-2.291545e+01
1.700651e+02	-2.296398e+01
1.710474e+02	-2.301270e+01
1.720354e+02	-2.306264e+01
1.730291e+02	-2.311250e+01
1.740285e+02	-2.316176e+01
1.750337e+02	-2.321371e+01
1.760446e+02	-2.326394e+01
1.770615e+02	-2.331311e+01
1.780842e+02	-2.336490e+01
1.791128e+02	-2.341235e+01
1.801473e+02	-2.346238e+01
1.811878e+02	-2.350871e+01
1.822344e+02	-2.356145e+01
1.832870e+02	-2.360863e+01
1.843456e+02	-2.366153e+01
1.854104e+02	-2.371045e+01
1.864813e+02	-2.376006e+01
1.875584e+02	-2.380903e+01
1.886418e+02	-2.385991e+01
1.897313e+02	-2.391177e+01
1.908272e+02	-2.395901e+01
1.919294e+02	-2.400943e+01
1.930380e+02	-2.406111e+01
1.941530e+02	-2.411016e+01
1.952744e+02	-2.416046e+01
1.964023e+02	-2.421086e+01
1.975367e+02	-2.425935e+01
1.986777e+02	-2.430855e+01
1.998252e+02	-2.435959e+01
2.009794e+02	-2.440659e+01
2.021403e+02	-2.445652e+01
2.033078e+02	-2.450966e+01
2.044821e+02	-2.455903e+01
2.056632e+02	-2.460704e+01
2.068511e+02	-2.465738e+01
2.080459e+02	-2.470675e+01
2.092475e+02	-2.475899e+01
2.104561e+02	-2.480812e+01
2.116717e+02	-2.485749e+01
2.128943e+02	-2.490870e+01
2.141240e+02	-2.495420e+01
2.153608e+02	-2.500569e+01
2.166047e+02	-2.505683e+01
2.178558e+02	-2.510940e+01
2.191141e+02	-2.515857e+01
2.203797e+02	-2.520749e+01
2.216526e+02	-2.525945e+01
2.229329e+02	-2.530822e+01
2.242205e+02	-2.535809e+01
2.255156e+02	-2.540724e+01
2.268182e+02	-2.545936e+01
2.281283e+02	-2.550784e+01
2.294459e+02	-2.555772e+01
2.307712e+02	-2.560699e+01
2.321041e+02	-2.565587e+01
2.334447e+02	-2.570624e+01
2.347931e+02	-2.575596e+01
2.361493e+02	-2.580395e+01
2.375133e+02	-2.585538e+01
2.388851e+02	-2.590819e+01
2.402649e+02	-2.595623e+01
2.416527e+02	-2.600742e+01
2.430484e+02	-2.605766e+01
2.444523e+02	-2.610681e+01
2.458642e+02	-2.615482e+01
2.472843e+02	-2.620587e+01
2.487126e+02	-2.625692e+01
2.501492e+02	-2.630483e+01
2.515940e+02	-2.635516e+01
2.530472e+02	-2.640525e+01
2.545088e+02	-2.645496e+01
2.559789e+02	-2.650470e+01
2.574574e+02	-2.655486e+01
2.589444e+02	-2.660523e+01
2.604401e+02	-2.665650e+01
2.619444e+02	-2.670451e+01
2.634574e+02	-2.675627e+01
2.649791e+02	-2.680703e+01
2.665096e+02	-2.685254e+01
2.680489e+02	-2.690553e+01
2.695972e+02	-2.695886e+01
2.711544e+02	-2.701025e+01
2.727205e+02	-2.705670e+01
2.742958e+02	-2.710499e+01
2.758801e+02	-2.715023e+01
2.774736e+02	-2.720747e+01
2.790762e+02	-2.725156e+01
2.806882e+02	-2.730409e+01
2.823094e+02	-2.735568e+01
2.839400e+02	-2.740570e+01
2.855800e+02	-2.745113e+01
2.872295e+02	-2.750195e+01
2.888886e+02	-2.755631e+01
2.905572e+02	-2.760518e+01
2.922354e+02	-2.765500e+01
2.939234e+02	-2.770706e+01
2.956211e+02	-2.775454e+01
2.973286e+02	-2.780439e+01
2.990459e+02	-2.785929e+01
3.007732e+02	-2.790872e+01
3.025104e+02	-2.795476e+01
3.042577e+02	-2.800572e+01
3.060151e+02	-2.805633e+01
3.077826e+02	-2.810093e+01
3.095604e+02	-2.815286e+01
3.113484e+02	-2.820368e+01
3.131467e+02	-2.825657e+01
3.149554e+02	-2.830610e+01
3.167746e+02	-2.835624e+01
3.186043e+02	-2.840336e+01
3.204445e+02	-2.845538e+01
3.222954e+02	-2.850911e+01
3.241570e+02	-2.855572e+01
3.260293e+02	-2.860727e+01
3.279124e+02	-2.865232e+01
3.298064e+02	-2.870586e+01
3.317114e+02	-2.875396e+01
3.336273e+02	-2.880862e+01
3.355544e+02	-2.885460e+01
3.374925e+02	-2.890956e+01
3.394418e+02	-2.895347e+01
3.414024e+02	-2.900706e+01
3.433744e+02	-2.905573e+01
3.453577e+02	-2.910559e+01
3.473525e+02	-2.915041e+01
3.493588e+02	-2.920500e+01
3.513766e+02	-2.925635e+01
3.534062e+02	-2.930706e+01
3.554474e+02	-2.935727e+01
3.575005e+02	-2.940380e+01
3.595654e+02	-2.945778e+01
3.616422e+02	-2.950457e+01
3.637311e+02	-2.955573e+01
3.658320e+02	-2.960569e+01
3.679450e+02	-2.965639e+01
3.700702e+02	-2.970662e+01
3.722077e+02	-2.975912e+01
3.743576e+02	-2.980411e+01
3.765199e+02	-2.985743e+01
3.786946e+02	-2.990554e+01
3.808820e+02	-2.996029e+01
3.830819e+02	-3.000764e+01
3.852946e+02	-3.006224e+01
3.875200e+02	-3.010176e+01
3.897583e+02	-3.015755e+01
3.920096e+02	-3.020218e+01
3.942738e+02	-3.025518e+01
3.965511e+02	-3.030509e+01
3.988416e+02	-3.036005e+01
4.011452e+02	-3.040810e+01
4.034622e+02	-3.045780e+01
4.057926e+02	-3.050876e+01
4.081365e+02	-3.055544e+01
4.104938e+02	-3.060522e+01
4.128648e+02	-3.065799e+01
4.152495e+02	-3.071043e+01
4.176480e+02	-3.076427e+01
4.200603e+02	-3.080969e+01
4.224866e+02	-3.085778e+01
4.249268e+02	-3.090432e+01
4.273812e+02	-3.095945e+01
4.298497e+02	-3.100854e+01
4.323325e+02	-3.105994e+01
4.348297e+02	-3.110856e+01
4.373412e+02	-3.116218e+01
4.398673e+02	-3.120501e+01
4.424079e+02	-3.126147e+01
4.449633e+02	-3.130936e+01
4.475334e+02	-3.136357e+01
4.501183e+02	-3.141174e+01
4.527182e+02	-3.146432e+01
4.553330e+02	-3.151038e+01
4.579630e+02	-3.155813e+01
4.606082e+02	-3.161328e+01
4.632687e+02	-3.166356e+01
4.659445e+02	-3.170436e+01
4.686358e+02	-3.175745e+01
4.713426e+02	-3.181853e+01
4.740650e+02	-3.186103e+01
4.768032e+02	-3.191203e+01
4.795572e+02	-3.196135e+01
4.823271e+02	-3.201158e+01
4.851130e+02	-3.206231e+01
4.879150e+02	-3.210962e+01
4.907332e+02	-3.216473e+01
4.935676e+02	-3.221502e+01
4.964185e+02	-3.226106e+01
4.992858e+02	-3.231604e+01
5.021696e+02	-3.236330e+01
5.050701e+02	-3.241694e+01
5.079874e+02	-3.246597e+01
5.109215e+02	-3.251259e+01
5.138726e+02	-3.256375e+01
5.168407e+02	-3.261281e+01
5.198259e+02	-3.267027e+01
5.228284e+02	-3.271465e+01
5.258482e+02	-3.276135e+01
5.288855e+02	-3.282034e+01
5.319403e+02	-3.286566e+01
5.350128e+02	-3.291493e+01
5.381030e+02	-3.296773e+01
5.412111e+02	-3.300560e+01
5.443371e+02	-3.306981e+01
5.474812e+02	-3.311891e+01
5.506434e+02	-3.316488e+01
5.538239e+02	-3.321642e+01
5.570228e+02	-3.326817e+01
5.602401e+02	-3.331440e+01
5.634760e+02	-3.337340e+01
5.667306e+02	-3.341036e+01
5.700040e+02	-3.346934e+01
5.732964e+02	-3.351400e+01
5.766077e+02	-3.356992e+01
5.799382e+02	-3.361773e+01
5.832879e+02	-3.366416e+01
5.866569e+02	-3.372233e+01
5.900454e+02	-3.376910e+01
5.934535e+02	-3.382433e+01
5.968813e+02	-3.387032e+01
6.003288e+02	-3.392126e+01
6.037963e+02	-3.397115e+01
6.072838e+02	-3.401679e+01
6.107914e+02	-3.407480e+01
6.143194e+02	-3.412131e+01
6.178676e+02	-3.417470e+01
6.214364e+02	-3.422317e+01
6.250258e+02	-3.427367e+01
6.286359e+02	-3.432774e+01
6.322669e+02	-3.437601e+01
6.359189e+02	-3.443011e+01
6.395919e+02	-3.447820e+01
6.432862e+02	-3.453245e+01
6.470017e+02	-3.457968e+01
6.507388e+02	-3.462141e+01
6.544974e+02	-3.468076e+01
6.582778e+02	-3.472339e+01
6.620800e+02	-3.476538e+01
6.659041e+02	-3.482403e+01
6.697504e+02	-3.487975e+01
6.736188e+02	-3.494150e+01
6.775096e+02	-3.497799e+01
6.814229e+02	-3.503327e+01
6.853587e+02	-3.507718e+01
6.893173e+02	-3.513720e+01
6.932988e+02	-3.517716e+01
6.973033e+02	-3.522271e+01
7.013309e+02	-3.527918e+01
