Frequency(Hz)	Magnitude(dB)
1.000000e+01	-2.276931e+00
1.005776e+01	-2.297314e+00
1.011585e+01	-2.317661e+00
1.017428e+01	-2.338599e+00
1.023305e+01	-2.359501e+00
1.029215e+01	-2.380617e+00
1.035160e+01	-2.401856e+00
1.041139e+01	-2.423107e+00
1.047153e+01	-2.444628e+00
1.053201e+01	-2.466146e+00
1.059284e+01	-2.487871e+00
1.065403e+01	-2.509857e+00
1.071556e+01	-2.531597e+00
1.077746e+01	-2.554006e+00
1.083971e+01	-2.576283e+00
1.090232e+01	-2.598748e+00
1.096529e+01	-2.621076e+00
1.102862e+01	-2.644137e+00
1.109232e+01	-2.666957e+00
1.115639e+01	-2.690026e+00
1.122083e+01	-2.713265e+00
1.128564e+01	-2.736645e+00
1.135083e+01	-2.759745e+00
1.141639e+01	-2.783646e+00
1.148233e+01	-2.807339e+00
1.154865e+01	-2.831042e+00
1.161536e+01	-2.855215e+00
1.168245e+01	-2.879348e+00
1.174992e+01	-2.903715e+00
1.181779e+01	-2.928197e+00
1.188605e+01	-2.952616e+00
1.195470e+01	-2.977792e+00
1.202375e+01	-3.002398e+00
1.209320e+01	-3.027588e+00
1.216305e+01	-3.052717e+00
1.223330e+01	-3.078050e+00
1.230396e+01	-3.103203e+00
1.237503e+01	-3.128954e+00
1.244651e+01	-3.154932e+00
1.251840e+01	-3.180603e+00
1.259070e+01	-3.206720e+00
1.266343e+01	-3.232994e+00
1.273657e+01	-3.259342e+00
1.281014e+01	-3.285721e+00
1.288413e+01	-3.312448e+00
1.295855e+01	-3.339193e+00
1.303339e+01	-3.365811e+00
1.310867e+01	-3.393334e+00
1.318439e+01	-3.420280e+00
1.326054e+01	-3.447571e+00
1.333713e+01	-3.475150e+00
1.341417e+01	-3.502693e+00
1.349165e+01	-3.530528e+00
1.356958e+01	-3.558449e+00
1.364795e+01	-3.586459e+00
1.372678e+01	-3.614496e+00
1.380607e+01	-3.642846e+00
1.388581e+01	-3.671672e+00
1.396602e+01	-3.700141e+00
1.404668e+01	-3.728671e+00
1.412782e+01	-3.757747e+00
1.420942e+01	-3.786900e+00
1.429149e+01	-3.815929e+00
1.437404e+01	-3.845107e+00
1.445706e+01	-3.874465e+00
1.454057e+01	-3.904275e+00
1.462455e+01	-3.934328e+00
1.470902e+01	-3.964160e+00
1.479398e+01	-3.993692e+00
1.487943e+01	-4.023995e+00
1.496537e+01	-4.054430e+00
1.505181e+01	-4.084783e+00
1.513875e+01	-4.115466e+00
1.522619e+01	-4.145983e+00
1.531414e+01	-4.176779e+00
1.540259e+01	-4.207987e+00
1.549156e+01	-4.238973e+00
1.558103e+01	-4.270431e+00
1.567103e+01	-4.301610e+00
1.576155e+01	-4.333094e+00
1.585258e+01	-4.364593e+00
1.594415e+01	-4.396673e+00
1.603624e+01	-4.428597e+00
1.612886e+01	-4.460581e+00
1.622202e+01	-4.492605e+00
1.631572e+01	-4.525042e+00
1.640996e+01	-4.557388e+00
1.650474e+01	-4.590197e+00
1.660008e+01	-4.622722e+00
1.669596e+01	-4.655733e+00
1.679239e+01	-4.688552e+00
1.688938e+01	-4.721618e+00
1.698694e+01	-4.754730e+00
1.708505e+01	-4.788278e+00
1.718373e+01	-4.822010e+00
1.728299e+01	-4.855493e+00
1.738281e+01	-4.889039e+00
1.748322e+01	-4.922920e+00
1.758420e+01	-4.956929e+00
1.768576e+01	-4.990985e+00
1.778792e+01	-5.025014e+00
1.789066e+01	-5.059513e+00
1.799399e+01	-5.094407e+00
1.809793e+01	-5.128568e+00
1.820246e+01	-5.163505e+00
1.830760e+01	-5.198219e+00
1.841334e+01	-5.233453e+00
1.851969e+01	-5.268163e+00
1.862666e+01	-5.303887e+00
1.873425e+01	-5.339087e+00
1.884246e+01	-5.374550e+00
1.895129e+01	-5.409849e+00
1.906075e+01	-5.445793e+00
1.917085e+01	-5.481507e+00
1.928158e+01	-5.517046e+00
1.939295e+01	-5.553313e+00
1.950496e+01	-5.589481e+00
1.961762e+01	-5.625918e+00
1.973093e+01	-5.662172e+00
1.984490e+01	-5.698536e+00
1.995952e+01	-5.735621e+00
2.007480e+01	-5.771900e+00
2.019076e+01	-5.809061e+00
2.030738e+01	-5.845982e+00
2.042467e+01	-5.882906e+00
2.054264e+01	-5.920072e+00
2.066130e+01	-5.957101e+00
2.078064e+01	-5.994758e+00
2.090066e+01	-6.032250e+00
2.102139e+01	-6.069929e+00
2.114280e+01	-6.107549e+00
2.126492e+01	-6.145484e+00
2.138775e+01	-6.183300e+00
2.151128e+01	-6.221181e+00
2.163553e+01	-6.259319e+00
2.176050e+01	-6.297739e+00
2.188619e+01	-6.335785e+00
2.201260e+01	-6.374423e+00
2.213974e+01	-6.412679e+00
2.226762e+01	-6.451776e+00
2.239624e+01	-6.490374e+00
2.252560e+01	-6.529205e+00
2.265571e+01	-6.567923e+00
2.278656e+01	-6.607061e+00
2.291818e+01	-6.646305e+00
2.305055e+01	-6.685669e+00
2.318369e+01	-6.724948e+00
2.331760e+01	-6.764596e+00
2.345228e+01	-6.804147e+00
2.358774e+01	-6.843799e+00
2.372398e+01	-6.883100e+00
2.386101e+01	-6.923636e+00
2.399883e+01	-6.962988e+00
2.413745e+01	-7.003304e+00
2.427686e+01	-7.043038e+00
2.441709e+01	-7.083568e+00
2.455812e+01	-7.123583e+00
2.469997e+01	-7.164015e+00
2.484263e+01	-7.204280e+00
2.498612e+01	-7.245048e+00
2.513044e+01	-7.286032e+00
2.527559e+01	-7.326513e+00
2.542158e+01	-7.366714e+00
2.556842e+01	-7.408219e+00
2.571610e+01	-7.448901e+00
2.586463e+01	-7.490026e+00
2.601403e+01	-7.531266e+00
2.616428e+01	-7.572461e+00
2.631541e+01	-7.614014e+00
2.646740e+01	-7.655235e+00
2.662028e+01	-7.696641e+00
2.677404e+01	-7.738550e+00
2.692868e+01	-7.780115e+00
2.708422e+01	-7.821839e+00
2.724066e+01	-7.863239e+00
2.739800e+01	-7.905876e+00
2.755625e+01	-7.947566e+00
2.771541e+01	-7.989025e+00
2.787550e+01	-8.031344e+00
2.803650e+01	-8.073703e+00
2.819844e+01	-8.116082e+00
2.836131e+01	-8.158516e+00
2.852513e+01	-8.200479e+00
2.868989e+01	-8.242919e+00
2.885560e+01	-8.285533e+00
2.902227e+01	-8.328188e+00
2.918990e+01	-8.371227e+00
2.935850e+01	-8.413712e+00
2.952807e+01	-8.456719e+00
2.969863e+01	-8.499448e+00
2.987016e+01	-8.542616e+00
3.004269e+01	-8.585780e+00
3.021622e+01	-8.629196e+00
3.039075e+01	-8.671924e+00
3.056628e+01	-8.715106e+00
3.074283e+01	-8.758718e+00
3.092040e+01	-8.801787e+00
3.109900e+01	-8.845882e+00
3.127862e+01	-8.888669e+00
3.145929e+01	-8.932944e+00
3.164099e+01	-8.976628e+00
3.182375e+01	-9.019903e+00
3.200756e+01	-9.063603e+00
3.219244e+01	-9.107602e+00
3.237838e+01	-9.151540e+00
3.256540e+01	-9.195105e+00
3.275349e+01	-9.239444e+00
3.294268e+01	-9.283554e+00
3.313295e+01	-9.327817e+00
3.332433e+01	-9.372299e+00
3.351681e+01	-9.415755e+00
3.371040e+01	-9.460918e+00
3.390511e+01	-9.505040e+00
3.410094e+01	-9.549610e+00
3.429791e+01	-9.594005e+00
3.449601e+01	-9.638275e+00
3.469526e+01	-9.683251e+00
3.489566e+01	-9.727622e+00
3.509721e+01	-9.772477e+00
3.529993e+01	-9.817346e+00
3.550382e+01	-9.861981e+00
3.570889e+01	-9.906981e+00
3.591515e+01	-9.951912e+00
3.612259e+01	-9.996769e+00
3.633123e+01	-1.004163e+01
3.654108e+01	-1.008690e+01
3.675214e+01	-1.013211e+01
3.696442e+01	-1.017734e+01
3.717792e+01	-1.022243e+01
3.739266e+01	-1.026788e+01
3.760864e+01	-1.031293e+01
3.782587e+01	-1.035878e+01
3.804435e+01	-1.040474e+01
3.826409e+01	-1.044953e+01
3.848510e+01	-1.049523e+01
3.870739e+01	-1.054057e+01
3.893096e+01	-1.058657e+01
3.915583e+01	-1.063221e+01
3.938199e+01	-1.067787e+01
3.960946e+01	-1.072341e+01
3.983824e+01	-1.076931e+01
4.006834e+01	-1.081508e+01
4.029978e+01	-1.086106e+01
4.053255e+01	-1.090764e+01
4.076666e+01	-1.095326e+01
4.100213e+01	-1.099920e+01
4.123896e+01	-1.104481e+01
4.147715e+01	-1.109115e+01
4.171672e+01	-1.113735e+01
4.195767e+01	-1.118359e+01
4.220002e+01	-1.123011e+01
4.244377e+01	-1.127586e+01
4.268892e+01	-1.132242e+01
4.293549e+01	-1.136858e+01
4.318348e+01	-1.141538e+01
4.343291e+01	-1.146143e+01
4.368377e+01	-1.150781e+01
4.393609e+01	-1.155428e+01
4.418986e+01	-1.160148e+01
4.444510e+01	-1.164802e+01
4.470182e+01	-1.169500e+01
4.496001e+01	-1.174137e+01
4.521970e+01	-1.178774e+01
4.548089e+01	-1.183528e+01
4.574358e+01	-1.188119e+01
4.600779e+01	-1.192796e+01
4.627353e+01	-1.197503e+01
4.654081e+01	-1.202166e+01
4.680963e+01	-1.206882e+01
4.708000e+01	-1.211495e+01
4.735193e+01	-1.216327e+01
4.762543e+01	-1.220896e+01
4.790051e+01	-1.225619e+01
4.817719e+01	-1.230365e+01
4.845545e+01	-1.235153e+01
4.873533e+01	-1.239744e+01
4.901682e+01	-1.244461e+01
4.929994e+01	-1.249280e+01
4.958470e+01	-1.253935e+01
4.987110e+01	-1.258644e+01
5.015915e+01	-1.263424e+01
5.044887e+01	-1.268101e+01
5.074026e+01	-1.272856e+01
5.103333e+01	-1.277640e+01
5.132810e+01	-1.282352e+01
5.162457e+01	-1.287075e+01
5.192275e+01	-1.291790e+01
5.222265e+01	-1.296553e+01
5.252429e+01	-1.301360e+01
5.282767e+01	-1.306094e+01
5.313280e+01	-1.310897e+01
5.343969e+01	-1.315580e+01
5.374836e+01	-1.320383e+01
5.405880e+01	-1.325172e+01
5.437105e+01	-1.329903e+01
5.468509e+01	-1.334615e+01
5.500095e+01	-1.339424e+01
5.531863e+01	-1.344159e+01
5.563815e+01	-1.349000e+01
5.595951e+01	-1.353838e+01
5.628273e+01	-1.358534e+01
5.660782e+01	-1.363383e+01
5.693479e+01	-1.368123e+01
5.726364e+01	-1.372918e+01
5.759439e+01	-1.377677e+01
5.792705e+01	-1.382525e+01
5.826164e+01	-1.387278e+01
5.859815e+01	-1.392113e+01
5.893662e+01	-1.396940e+01
5.927703e+01	-1.401760e+01
5.961941e+01	-1.406426e+01
5.996377e+01	-1.411352e+01
6.031012e+01	-1.416102e+01
6.065847e+01	-1.420920e+01
6.100883e+01	-1.425756e+01
6.136121e+01	-1.430631e+01
6.171563e+01	-1.435394e+01
6.207210e+01	-1.440205e+01
6.243063e+01	-1.444996e+01
6.279122e+01	-1.449829e+01
6.315390e+01	-1.454745e+01
6.351868e+01	-1.459519e+01
6.388556e+01	-1.464325e+01
6.425456e+01	-1.469105e+01
6.462569e+01	-1.474123e+01
6.499897e+01	-1.478815e+01
6.537440e+01	-1.483735e+01
6.575200e+01	-1.488528e+01
6.613178e+01	-1.493439e+01
6.651375e+01	-1.498033e+01
6.689793e+01	-1.503071e+01
6.728433e+01	-1.507978e+01
6.767297e+01	-1.512776e+01
6.806384e+01	-1.517592e+01
6.845698e+01	-1.522430e+01
6.885238e+01	-1.527349e+01
6.925007e+01	-1.532143e+01
6.965005e+01	-1.537053e+01
7.005235e+01	-1.541903e+01
7.045697e+01	-1.546751e+01
7.086393e+01	-1.551530e+01
7.127323e+01	-1.556565e+01
7.168490e+01	-1.561329e+01
7.209895e+01	-1.566130e+01
7.251539e+01	-1.571111e+01
7.293424e+01	-1.575911e+01
7.335551e+01	-1.580808e+01
7.377920e+01	-1.585714e+01
7.420535e+01	-1.590589e+01
7.463396e+01	-1.595381e+01
7.506504e+01	-1.600277e+01
7.549861e+01	-1.605196e+01
7.593469e+01	-1.610115e+01
7.637328e+01	-1.614960e+01
7.681441e+01	-1.619805e+01
7.725809e+01	-1.624743e+01
7.770433e+01	-1.629664e+01
7.815315e+01	-1.634551e+01
7.860456e+01	-1.639385e+01
7.905857e+01	-1.644237e+01
7.951521e+01	-1.649159e+01
7.997449e+01	-1.654107e+01
8.043642e+01	-1.658968e+01
8.090102e+01	-1.663807e+01
8.136830e+01	-1.668634e+01
8.183828e+01	-1.673663e+01
8.231097e+01	-1.678414e+01
8.278640e+01	-1.683410e+01
8.326457e+01	-1.688328e+01
8.374550e+01	-1.693261e+01
8.422921e+01	-1.698230e+01
8.471572e+01	-1.702997e+01
8.520503e+01	-1.707940e+01
8.569717e+01	-1.712812e+01
8.619215e+01	-1.717779e+01
8.669000e+01	-1.722656e+01
8.719071e+01	-1.727580e+01
8.769432e+01	-1.732518e+01
8.820084e+01	-1.737354e+01
8.871029e+01	-1.742293e+01
8.922267e+01	-1.747218e+01
8.973802e+01	-1.752221e+01
9.025634e+01	-1.756953e+01
9.077766e+01	-1.761963e+01
9.130199e+01	-1.766826e+01
9.182935e+01	-1.771761e+01
9.235975e+01	-1.776754e+01
9.289321e+01	-1.781592e+01
9.342976e+01	-1.786654e+01
9.396941e+01	-1.791427e+01
9.451217e+01	-1.796352e+01
9.505807e+01	-1.801273e+01
9.560712e+01	-1.806237e+01
9.615934e+01	-1.811112e+01
9.671476e+01	-1.816018e+01
9.727338e+01	-1.821115e+01
9.783522e+01	-1.825837e+01
9.840032e+01	-1.830758e+01
9.896867e+01	-1.835827e+01
9.954031e+01	-1.840790e+01
1.001153e+02	-1.845619e+01
1.006935e+02	-1.850575e+01
1.012751e+02	-1.855519e+01
1.018601e+02	-1.860387e+01
1.024484e+02	-1.865467e+01
1.030402e+02	-1.870305e+01
1.036353e+02	-1.875302e+01
1.042339e+02	-1.880203e+01
1.048360e+02	-1.885145e+01
1.054415e+02	-1.890186e+01
1.060505e+02	-1.895157e+01
1.066631e+02	-1.899889e+01
1.072791e+02	-1.904889e+01
1.078988e+02	-1.909958e+01
1.085220e+02	-1.915029e+01
1.091488e+02	-1.919726e+01
1.097793e+02	-1.924693e+01
1.104133e+02	-1.929542e+01
1.110511e+02	-1.934589e+01
1.116925e+02	-1.939450e+01
1.123376e+02	-1.944328e+01
1.129865e+02	-1.949265e+01
1.136391e+02	-1.954212e+01
1.142955e+02	-1.959092e+01
1.149556e+02	-1.964205e+01
1.156196e+02	-1.969125e+01
1.162874e+02	-1.974215e+01
1.169591e+02	-1.979061e+01
1.176347e+02	-1.983928e+01
1.183141e+02	-1.988967e+01
1.189975e+02	-1.994026e+01
1.196848e+02	-1.998850e+01
1.203761e+02	-2.003847e+01
1.210714e+02	-2.008799e+01
1.217707e+02	-2.013723e+01
1.224740e+02	-2.018736e+01
1.231814e+02	-2.023610e+01
1.238929e+02	-2.028541e+01
1.246085e+02	-2.033617e+01
1.253283e+02	-2.038493e+01
1.260522e+02	-2.043358e+01
1.267802e+02	-2.048580e+01
1.275125e+02	-2.053429e+01
1.282490e+02	-2.058268e+01
1.289898e+02	-2.063426e+01
1.297348e+02	-2.068299e+01
1.304842e+02	-2.073353e+01
1.312378e+02	-2.078309e+01
1.319959e+02	-2.083211e+01
1.327583e+02	-2.088350e+01
1.335251e+02	-2.093225e+01
1.342963e+02	-2.098007e+01
1.350720e+02	-2.103064e+01
1.358522e+02	-2.108040e+01
1.366368e+02	-2.112794e+01
1.374260e+02	-2.117848e+01
1.382198e+02	-2.122907e+01
1.390182e+02	-2.127933e+01
1.398211e+02	-2.132810e+01
1.406287e+02	-2.137828e+01
1.414410e+02	-2.142710e+01
1.422579e+02	-2.147694e+01
1.430796e+02	-2.152518e+01
1.439060e+02	-2.157803e+01
1.447372e+02	-2.162493e+01
1.455732e+02	-2.167816e+01
1.464141e+02	-2.172689e+01
1.472597e+02	-2.177711e+01
1.481103e+02	-2.182680e+01
1.489658e+02	-2.187401e+01
1.498262e+02	-2.192538e+01
1.506916e+02	-2.197481e+01
1.515620e+02	-2.202180e+01
1.524374e+02	-2.207336e+01
1.533179e+02	-2.212502e+01
1.542034e+02	-2.217214e+01
1.550941e+02	-2.222312e+01
1.559899e+02	-2.227260e+01
1.568909e+02	-2.232378e+01
1.577971e+02	-2.237317e+01
1.587085e+02	-2.242247e+01
1.596252e+02	-2.247407e+01
1.605472e+02	-2.252244e+01
1.614745e+02	-2.256950e+01
1.624072e+02	-2.262365e+01
1.633453e+02	-2.267221e+01
1.642887e+02	-2.272082e+01
1.652377e+02	-2.276880e+01
1.661921e+02	-2.282106e+01
1.671520e+02	-2.287044e+01
1.681175e+02	-2.292090e+01
1.690885e+02	-2.296938e+01
1.700651e+02	-2.301927e+01
1.710474e+02	-2.306877e+01
1.720354e+02	-2.312100e+01
1.730291e+02	-2.316969e+01
1.740285e+02	-2.321777e+01
1.750337e+02	-2.326901e+01
1.760446e+02	-2.331744e+01
1.770615e+02	-2.336631e+01
1.780842e+02	-2.341923e+01
1.791128e+02	-2.346865e+01
1.801473e+02	-2.352025e+01
1.811878e+02	-2.356818e+01
1.822344e+02	-2.361654e+01
1.832870e+02	-2.366625e+01
1.843456e+02	-2.371532e+01
1.854104e+02	-2.376658e+01
1.864813e+02	-2.381821e+01
1.875584e+02	-2.386534e+01
1.886418e+02	-2.391618e+01
1.897313e+02	-2.396732e+01
1.908272e+02	-2.401834e+01
1.919294e+02	-2.406339e+01
1.930380e+02	-2.411617e+01
1.941530e+02	-2.416473e+01
1.952744e+02	-2.421608e+01
1.964023e+02	-2.426572e+01
1.975367e+02	-2.431537e+01
1.986777e+02	-2.436798e+01
1.998252e+02	-2.441373e+01
2.009794e+02	-2.446429e+01
2.021403e+02	-2.451448e+01
2.033078e+02	-2.456518e+01
2.044821e+02	-2.461548e+01
2.056632e+02	-2.466383e+01
2.068511e+02	-2.471507e+01
2.080459e+02	-2.476553e+01
2.092475e+02	-2.481599e+01
2.104561e+02	-2.486290e+01
2.116717e+02	-2.491659e+01
2.128943e+02	-2.496199e+01
2.141240e+02	-2.501274e+01
2.153608e+02	-2.506543e+01
2.166047e+02	-2.511341e+01
2.178558e+02	-2.516488e+01
2.191141e+02	-2.521429e+01
2.203797e+02	-2.526406e+01
2.216526e+02	-2.531491e+01
2.229329e+02	-2.536841e+01
2.242205e+02	-2.541477e+01
2.255156e+02	-2.546647e+01
2.268182e+02	-2.551256e+01
2.281283e+02	-2.556425e+01
2.294459e+02	-2.561069e+01
2.307712e+02	-2.566425e+01
2.321041e+02	-2.571469e+01
2.334447e+02	-2.576464e+01
2.347931e+02	-2.581142e+01
2.361493e+02	-2.586305e+01
2.375133e+02	-2.591390e+01
2.388851e+02	-2.596051e+01
2.402649e+02	-2.601364e+01
2.416527e+02	-2.606164e+01
2.430484e+02	-2.611035e+01
2.444523e+02	-2.616107e+01
2.458642e+02	-2.621103e+01
2.472843e+02	-2.626160e+01
2.487126e+02	-2.631383e+01
2.501492e+02	-2.636224e+01
2.515940e+02	-2.641030e+01
2.530472e+02	-2.646252e+01
2.545088e+02	-2.651195e+01
2.559789e+02	-2.656464e+01
2.574574e+02	-2.661240e+01
2.589444e+02	-2.666116e+01
2.604401e+02	-2.671527e+01
2.619444e+02	-2.676298e+01
2.634574e+02	-2.681123e+01
2.649791e+02	-2.686545e+01
2.665096e+02	-2.691513e+01
2.680489e+02	-2.695521e+01
2.695972e+02	-2.700866e+01
2.711544e+02	-2.706075e+01
2.727205e+02	-2.711107e+01
2.742958e+02	-2.716097e+01
2.758801e+02	-2.721269e+01
2.774736e+02	-2.726419e+01
2.790762e+02	-2.731160e+01
2.806882e+02	-2.735977e+01
2.823094e+02	-2.740833e+01
2.839400e+02	-2.746333e+01
2.855800e+02	-2.751035e+01
2.872295e+02	-2.756246e+01
2.888886e+02	-2.761184e+01
2.905572e+02	-2.766316e+01
2.922354e+02	-2.771093e+01
2.939234e+02	-2.776414e+01
2.956211e+02	-2.781232e+01
2.973286e+02	-2.786546e+01
2.990459e+02	-2.790990e+01
3.007732e+02	-2.796425e+01
3.025104e+02	-2.801273e+01
3.042577e+02	-2.806393e+01
3.060151e+02	-2.811359e+01
3.077826e+02	-2.816392e+01
3.095604e+02	-2.821314e+01
3.113484e+02	-2.826411e+01
3.131467e+02	-2.831536e+01
3.149554e+02	-2.836134e+01
3.167746e+02	-2.841230e+01
3.186043e+02	-2.846170e+01
3.204445e+02	-2.851300e+01
3.222954e+02	-2.856403e+01
3.241570e+02	-2.861171e+01
3.260293e+02	-2.866467e+01
3.279124e+02	-2.871070e+01
3.298064e+02	-2.876190e+01
3.317114e+02	-2.881360e+01
3.336273e+02	-2.886657e+01
3.355544e+02	-2.891211e+01
3.374925e+02	-2.896302e+01
3.394418e+02	-2.901298e+01
3.414024e+02	-2.906615e+01
3.433744e+02	-2.911235e+01
3.453577e+02	-2.916178e+01
3.473525e+02	-2.921203e+01
3.493588e+02	-2.925947e+01
3.513766e+02	-2.931613e+01
3.534062e+02	-2.936260e+01
3.554474e+02	-2.941034e+01
3.575005e+02	-2.946057e+01
3.595654e+02	-2.951179e+01
3.616422e+02	-2.956285e+01
3.637311e+02	-2.961618e+01
3.658320e+02	-2.966549e+01
3.679450e+02	-2.971140e+01
3.700702e+02	-2.976152e+01
3.722077e+02	-2.981515e+01
3.743576e+02	-2.986246e+01
3.765199e+02	-2.991129e+01
3.786946e+02	-2.996539e+01
3.808820e+02	-3.001404e+01
3.830819e+02	-3.006113e+01
3.852946e+02	-3.011948e+01
3.875200e+02	-3.016623e+01
3.897583e+02	-3.020956e+01
3.920096e+02	-3.026384e+01
3.942738e+02	-3.031425e+01
3.965511e+02	-3.036515e+01
3.988416e+02	-3.041557e+01
4.011452e+02	-3.046729e+01
4.034622e+02	-3.051626e+01
4.057926e+02	-3.056355e+01
4.081365e+02	-3.061342e+01
4.104938e+02	-3.066736e+01
4.128648e+02	-3.071730e+01
4.152495e+02	-3.076480e+01
4.176480e+02	-3.082043e+01
4.200603e+02	-3.086943e+01
4.224866e+02	-3.091627e+01
4.249268e+02	-3.096993e+01
4.273812e+02	-3.101449e+01
4.298497e+02	-3.106697e+01
4.323325e+02	-3.112061e+01
4.348297e+02	-3.117093e+01
4.373412e+02	-3.121540e+01
4.398673e+02	-3.126802e+01
4.424079e+02	-3.132109e+01
4.449633e+02	-3.136567e+01
4.475334e+02	-3.141978e+01
4.501183e+02	-3.146857e+01
4.527182e+02	-3.152472e+01
4.553330e+02	-3.156751e+01
4.579630e+02	-3.161611e+01
4.606082e+02	-3.166769e+01
4.632687e+02	-3.172185e+01
4.659445e+02	-3.177112e+01
4.686358e+02	-3.181591e+01
4.713426e+02	-3.186226e+01
4.740650e+02	-3.191846e+01
4.768032e+02	-3.196895e+01
4.795572e+02	-3.201505e+01
4.823271e+02	-3.206753e+01
4.851130e+02	-3.212280e+01
4.879150e+02	-3.216803e+01
4.907332e+02	-3.221651e+01
4.935676e+02	-3.227119e+01
4.964185e+02	-3.231930e+01
4.992858e+02	-3.237358e+01
5.021696e+02	-3.242393e+01
5.050701e+02	-3.247180e+01
5.079874e+02	-3.252853e+01
5.109215e+02	-3.257251e+01
5.138726e+02	-3.262341e+01
5.168407e+02	-3.267204e+01
5.198259e+02	-3.273084e+01
5.228284e+02	-3.277192e+01
5.258482e+02	-3.283080e+01
5.288855e+02	-3.287749e+01
5.319403e+02	-3.293203e+01
5.350128e+02	-3.297602e+01
5.381030e+02	-3.302361e+01
5.412111e+02	-3.307696e+01
5.443371e+02	-3.312877e+01
5.474812e+02	-3.317839e+01
5.506434e+02	-3.322917e+01
5.538239e+02	-3.328373e+01
5.570228e+02	-3.331790e+01
5.602401e+02	-3.337843e+01
5.634760e+02	-3.343303e+01
5.667306e+02	-3.347693e+01
5.700040e+02	-3.352440e+01
5.732964e+02	-3.357941e+01
5.766077e+02	-3.363207e+01
5.799382e+02	-3.367876e+01
5.832879e+02	-3.372330e+01
5.866569e+02	-3.377674e+01
5.900454e+02	-3.382382e+01
5.934535e+02	-3.388372e+01
5.968813e+02	-3.393099e+01
6.003288e+02	-3.397852e+01
6.037963e+02	-3.403237e+01
6.072838e+02	-3.407704e+01
6.107914e+02	-3.413523e+01
6.143194e+02	-3.418502e+01
6.178676e+02	-3.423938e+01
6.214364e+02	-3.427821e+01
6.250258e+02	-3.432781e+01
6.286359e+02	-3.438522e+01
6.322669e+02	-3.443176e+01
6.359189e+02	-3.448302e+01
6.395919e+02	-3.452998e+01
6.432862e+02	-3.458329e+01
6.470017e+02	-3.463407e+01
6.507388e+02	-3.469367e+01
6.544974e+02	-3.474195e+01
6.582778e+02	-3.477651e+01
6.620800e+02	-3.482825e+01
6.659041e+02	-3.488539e+01
6.697504e+02	-3.494262e+01
6.736188e+02	-3.498610e+01
6.775096e+02	-3.504642e+01
6.814229e+02	-3.508462e+01
6.853587e+02	-3.513558e+01
6.893173e+02	-3.519326e+01
6.932988e+02	-3.523806e+01
6.973033e+02	-3.529578e+01
7.013309e+02	-3.533746e+01
