Frequency(Hz)	Magnitude(dB)
1.000000e+01	-1.719737e-05
1.005776e+01	-1.739660e-05
1.011585e+01	-1.759815e-05
1.017428e+01	-1.780203e-05
1.023305e+01	-1.800827e-05
1.029215e+01	-1.821690e-05
1.035160e+01	-1.842795e-05
1.041139e+01	-1.864144e-05
1.047153e+01	-1.885740e-05
1.053201e+01	-1.907587e-05
1.059284e+01	-1.929687e-05
1.065403e+01	-1.952043e-05
1.071556e+01	-1.974658e-05
1.077746e+01	-1.997535e-05
1.083971e+01	-2.020677e-05
1.090232e+01	-2.044087e-05
1.096529e+01	-2.067768e-05
1.102862e+01	-2.091724e-05
1.109232e+01	-2.115957e-05
1.115639e+01	-2.140471e-05
1.122083e+01	-2.165269e-05
1.128564e+01	-2.190354e-05
1.135083e+01	-2.215730e-05
1.141639e+01	-2.241399e-05
1.148233e+01	-2.267367e-05
1.154865e+01	-2.293635e-05
1.161536e+01	-2.320207e-05
1.168245e+01	-2.347087e-05
1.174992e+01	-2.374279e-05
1.181779e+01	-2.401785e-05
1.188605e+01	-2.429611e-05
1.195470e+01	-2.457758e-05
1.202375e+01	-2.486232e-05
1.209320e+01	-2.515036e-05
1.216305e+01	-2.544173e-05
1.223330e+01	-2.573648e-05
1.230396e+01	-2.603464e-05
1.237503e+01	-2.633626e-05
1.244651e+01	-2.664137e-05
1.251840e+01	-2.695002e-05
1.259070e+01	-2.726224e-05
1.266343e+01	-2.757808e-05
1.273657e+01	-2.789758e-05
1.281014e+01	-2.822078e-05
1.288413e+01	-2.854772e-05
1.295855e+01	-2.887845e-05
1.303339e+01	-2.921302e-05
1.310867e+01	-2.955146e-05
1.318439e+01	-2.989382e-05
1.326054e+01	-3.024015e-05
1.333713e+01	-3.059049e-05
1.341417e+01	-3.094488e-05
1.349165e+01	-3.130339e-05
1.356958e+01	-3.166604e-05
1.364795e+01	-3.203290e-05
1.372678e+01	-3.240401e-05
1.380607e+01	-3.277942e-05
1.388581e+01	-3.315918e-05
1.396602e+01	-3.354333e-05
1.404668e+01	-3.393194e-05
1.412782e+01	-3.432505e-05
1.420942e+01	-3.472272e-05
1.429149e+01	-3.512499e-05
1.437404e+01	-3.553192e-05
1.445706e+01	-3.594356e-05
1.454057e+01	-3.635998e-05
1.462455e+01	-3.678122e-05
1.470902e+01	-3.720733e-05
1.479398e+01	-3.763839e-05
1.487943e+01	-3.807444e-05
1.496537e+01	-3.851554e-05
1.505181e+01	-3.896175e-05
1.513875e+01	-3.941313e-05
1.522619e+01	-3.986974e-05
1.531414e+01	-4.033164e-05
1.540259e+01	-4.079889e-05
1.549156e+01	-4.127156e-05
1.558103e+01	-4.174970e-05
1.567103e+01	-4.223338e-05
1.576155e+01	-4.272266e-05
1.585258e+01	-4.321761e-05
1.594415e+01	-4.371830e-05
1.603624e+01	-4.422478e-05
1.612886e+01	-4.473714e-05
1.622202e+01	-4.525543e-05
1.631572e+01	-4.577972e-05
1.640996e+01	-4.631009e-05
1.650474e+01	-4.684660e-05
1.660008e+01	-4.738933e-05
1.669596e+01	-4.793835e-05
1.679239e+01	-4.849372e-05
1.688938e+01	-4.905553e-05
1.698694e+01	-4.962385e-05
1.708505e+01	-5.019875e-05
1.718373e+01	-5.078032e-05
1.728299e+01	-5.136862e-05
1.738281e+01	-5.196373e-05
1.748322e+01	-5.256574e-05
1.758420e+01	-5.317473e-05
1.768576e+01	-5.379077e-05
1.778792e+01	-5.441395e-05
1.789066e+01	-5.504434e-05
1.799399e+01	-5.568204e-05
1.809793e+01	-5.632713e-05
1.820246e+01	-5.697969e-05
1.830760e+01	-5.763981e-05
1.841334e+01	-5.830758e-05
1.851969e+01	-5.898309e-05
1.862666e+01	-5.966642e-05
1.873425e+01	-6.035767e-05
1.884246e+01	-6.105692e-05
1.895129e+01	-6.176428e-05
1.906075e+01	-6.247983e-05
1.917085e+01	-6.320367e-05
1.928158e+01	-6.393590e-05
1.939295e+01	-6.467661e-05
1.950496e+01	-6.542590e-05
1.961762e+01	-6.618387e-05
1.973093e+01	-6.695062e-05
1.984490e+01	-6.772626e-05
1.995952e+01	-6.851088e-05
2.007480e+01	-6.930459e-05
2.019076e+01	-7.010750e-05
2.030738e+01	-7.091971e-05
2.042467e+01	-7.174132e-05
2.054264e+01	-7.257246e-05
2.066130e+01	-7.341323e-05
2.078064e+01	-7.426373e-05
2.090066e+01	-7.512409e-05
2.102139e+01	-7.599442e-05
2.114280e+01	-7.687483e-05
2.126492e+01	-7.776543e-05
2.138775e+01	-7.866636e-05
2.151128e+01	-7.957772e-05
2.163553e+01	-8.049964e-05
2.176050e+01	-8.143225e-05
2.188619e+01	-8.237565e-05
2.201260e+01	-8.332999e-05
2.213974e+01	-8.429538e-05
2.226762e+01	-8.527196e-05
2.239624e+01	-8.625985e-05
2.252560e+01	-8.725918e-05
2.265571e+01	-8.827009e-05
2.278656e+01	-8.929272e-05
2.291818e+01	-9.032719e-05
2.305055e+01	-9.137364e-05
2.318369e+01	-9.243222e-05
2.331760e+01	-9.350306e-05
2.345228e+01	-9.458631e-05
2.358774e+01	-9.568210e-05
2.372398e+01	-9.679060e-05
2.386101e+01	-9.791193e-05
2.399883e+01	-9.904625e-05
2.413745e+01	-1.001937e-04
2.427686e+01	-1.013545e-04
2.441709e+01	-1.025287e-04
2.455812e+01	-1.037165e-04
2.469997e+01	-1.049181e-04
2.484263e+01	-1.061336e-04
2.498612e+01	-1.073631e-04
2.513044e+01	-1.086069e-04
2.527559e+01	-1.098652e-04
2.542158e+01	-1.111380e-04
2.556842e+01	-1.124255e-04
2.571610e+01	-1.137280e-04
2.586463e+01	-1.150455e-04
2.601403e+01	-1.163784e-04
2.616428e+01	-1.177266e-04
2.631541e+01	-1.190905e-04
2.646740e+01	-1.204702e-04
2.662028e+01	-1.218658e-04
2.677404e+01	-1.232777e-04
2.692868e+01	-1.247058e-04
2.708422e+01	-1.261506e-04
2.724066e+01	-1.276120e-04
2.739800e+01	-1.290904e-04
2.755625e+01	-1.305860e-04
2.771541e+01	-1.320988e-04
2.787550e+01	-1.336292e-04
2.803650e+01	-1.351773e-04
2.819844e+01	-1.367433e-04
2.836131e+01	-1.383275e-04
2.852513e+01	-1.399301e-04
2.868989e+01	-1.415512e-04
2.885560e+01	-1.431911e-04
2.902227e+01	-1.448499e-04
2.918990e+01	-1.465280e-04
2.935850e+01	-1.482256e-04
2.952807e+01	-1.499428e-04
2.969863e+01	-1.516799e-04
2.987016e+01	-1.534371e-04
3.004269e+01	-1.552147e-04
3.021622e+01	-1.570128e-04
3.039075e+01	-1.588319e-04
3.056628e+01	-1.606719e-04
3.074283e+01	-1.625333e-04
3.092040e+01	-1.644163e-04
3.109900e+01	-1.663211e-04
3.127862e+01	-1.682479e-04
3.145929e+01	-1.701971e-04
3.164099e+01	-1.721688e-04
3.182375e+01	-1.741634e-04
3.200756e+01	-1.761811e-04
3.219244e+01	-1.782221e-04
3.237838e+01	-1.802868e-04
3.256540e+01	-1.823755e-04
3.275349e+01	-1.844883e-04
3.294268e+01	-1.866256e-04
3.313295e+01	-1.887877e-04
3.332433e+01	-1.909748e-04
3.351681e+01	-1.931872e-04
3.371040e+01	-1.954253e-04
3.390511e+01	-1.976893e-04
3.410094e+01	-1.999795e-04
3.429791e+01	-2.022963e-04
3.449601e+01	-2.046399e-04
3.469526e+01	-2.070107e-04
3.489566e+01	-2.094089e-04
3.509721e+01	-2.118349e-04
3.529993e+01	-2.142890e-04
3.550382e+01	-2.167715e-04
3.570889e+01	-2.192828e-04
3.591515e+01	-2.218232e-04
3.612259e+01	-2.243930e-04
3.633123e+01	-2.269926e-04
3.654108e+01	-2.296223e-04
3.675214e+01	-2.322825e-04
3.696442e+01	-2.349735e-04
3.717792e+01	-2.376956e-04
3.739266e+01	-2.404493e-04
3.760864e+01	-2.432349e-04
3.782587e+01	-2.460528e-04
3.804435e+01	-2.489033e-04
3.826409e+01	-2.517868e-04
3.848510e+01	-2.547037e-04
3.870739e+01	-2.576545e-04
3.893096e+01	-2.606394e-04
3.915583e+01	-2.636589e-04
3.938199e+01	-2.667133e-04
3.960946e+01	-2.698032e-04
3.983824e+01	-2.729288e-04
4.006834e+01	-2.760907e-04
4.029978e+01	-2.792892e-04
4.053255e+01	-2.825247e-04
4.076666e+01	-2.857977e-04
4.100213e+01	-2.891087e-04
4.123896e+01	-2.924580e-04
4.147715e+01	-2.958461e-04
4.171672e+01	-2.992734e-04
4.195767e+01	-3.027404e-04
4.220002e+01	-3.062476e-04
4.244377e+01	-3.097955e-04
4.268892e+01	-3.133844e-04
4.293549e+01	-3.170149e-04
4.318348e+01	-3.206875e-04
4.343291e+01	-3.244026e-04
4.368377e+01	-3.281608e-04
4.393609e+01	-3.319625e-04
4.418986e+01	-3.358082e-04
4.444510e+01	-3.396985e-04
4.470182e+01	-3.436338e-04
4.496001e+01	-3.476148e-04
4.521970e+01	-3.516418e-04
4.548089e+01	-3.557155e-04
4.574358e+01	-3.598364e-04
4.600779e+01	-3.640050e-04
4.627353e+01	-3.682219e-04
4.654081e+01	-3.724877e-04
4.680963e+01	-3.768029e-04
4.708000e+01	-3.811681e-04
4.735193e+01	-3.855838e-04
4.762543e+01	-3.900507e-04
4.790051e+01	-3.945694e-04
4.817719e+01	-3.991403e-04
4.845545e+01	-4.037643e-04
4.873533e+01	-4.084418e-04
4.901682e+01	-4.131735e-04
4.929994e+01	-4.179600e-04
4.958470e+01	-4.228019e-04
4.987110e+01	-4.276999e-04
5.015915e+01	-4.326547e-04
5.044887e+01	-4.376669e-04
5.074026e+01	-4.427371e-04
5.103333e+01	-4.478661e-04
5.132810e+01	-4.530545e-04
5.162457e+01	-4.583030e-04
5.192275e+01	-4.636122e-04
5.222265e+01	-4.689830e-04
5.252429e+01	-4.744160e-04
5.282767e+01	-4.799120e-04
5.313280e+01	-4.854716e-04
5.343969e+01	-4.910956e-04
5.374836e+01	-4.967847e-04
5.405880e+01	-5.025398e-04
5.437105e+01	-5.083615e-04
5.468509e+01	-5.142507e-04
5.500095e+01	-5.202080e-04
5.531863e+01	-5.262344e-04
5.563815e+01	-5.323306e-04
5.595951e+01	-5.384974e-04
5.628273e+01	-5.447357e-04
5.660782e+01	-5.510462e-04
5.693479e+01	-5.574298e-04
5.726364e+01	-5.638874e-04
5.759439e+01	-5.704197e-04
5.792705e+01	-5.770278e-04
5.826164e+01	-5.837124e-04
5.859815e+01	-5.904744e-04
5.893662e+01	-5.973147e-04
5.927703e+01	-6.042343e-04
5.961941e+01	-6.112340e-04
5.996377e+01	-6.183148e-04
6.031012e+01	-6.254776e-04
6.065847e+01	-6.327234e-04
6.100883e+01	-6.400532e-04
6.136121e+01	-6.474678e-04
6.171563e+01	-6.549684e-04
6.207210e+01	-6.625558e-04
6.243063e+01	-6.702311e-04
6.279122e+01	-6.779953e-04
6.315390e+01	-6.858494e-04
6.351868e+01	-6.937945e-04
6.388556e+01	-7.018317e-04
6.425456e+01	-7.099619e-04
6.462569e+01	-7.181864e-04
6.499897e+01	-7.265060e-04
6.537440e+01	-7.349221e-04
6.575200e+01	-7.434356e-04
6.613178e+01	-7.520478e-04
6.651375e+01	-7.607597e-04
6.689793e+01	-7.695726e-04
6.728433e+01	-7.784875e-04
6.767297e+01	-7.875056e-04
6.806384e+01	-7.966283e-04
6.845698e+01	-8.058566e-04
6.885238e+01	-8.151918e-04
6.925007e+01	-8.246351e-04
6.965005e+01	-8.341878e-04
7.005235e+01	-8.438512e-04
7.045697e+01	-8.536264e-04
7.086393e+01	-8.635150e-04
7.127323e+01	-8.735180e-04
7.168490e+01	-8.836369e-04
7.209895e+01	-8.938730e-04
7.251539e+01	-9.042277e-04
7.293424e+01	-9.147024e-04
7.335551e+01	-9.252983e-04
7.377920e+01	-9.360170e-04
7.420535e+01	-9.468598e-04
7.463396e+01	-9.578282e-04
7.506504e+01	-9.689237e-04
7.549861e+01	-9.801477e-04
7.593469e+01	-9.915017e-04
7.637328e+01	-1.002987e-03
7.681441e+01	-1.014606e-03
7.725809e+01	-1.026359e-03
7.770433e+01	-1.038248e-03
7.815315e+01	-1.050275e-03
7.860456e+01	-1.062441e-03
7.905857e+01	-1.074748e-03
7.951521e+01	-1.087198e-03
7.997449e+01	-1.099792e-03
8.043642e+01	-1.112532e-03
8.090102e+01	-1.125419e-03
8.136830e+01	-1.138456e-03
8.183828e+01	-1.151643e-03
8.231097e+01	-1.164983e-03
8.278640e+01	-1.178478e-03
8.326457e+01	-1.192129e-03
8.374550e+01	-1.205939e-03
8.422921e+01	-1.219908e-03
8.471572e+01	-1.234039e-03
8.520503e+01	-1.248333e-03
8.569717e+01	-1.262793e-03
8.619215e+01	-1.277421e-03
8.669000e+01	-1.292218e-03
8.719071e+01	-1.307187e-03
8.769432e+01	-1.322328e-03
8.820084e+01	-1.337646e-03
8.871029e+01	-1.353140e-03
8.922267e+01	-1.368814e-03
8.973802e+01	-1.384670e-03
9.025634e+01	-1.400709e-03
9.077766e+01	-1.416934e-03
9.130199e+01	-1.433347e-03
9.182935e+01	-1.449950e-03
9.235975e+01	-1.466745e-03
9.289321e+01	-1.483735e-03
9.342976e+01	-1.500921e-03
9.396941e+01	-1.518307e-03
9.451217e+01	-1.535894e-03
9.505807e+01	-1.553684e-03
9.560712e+01	-1.571681e-03
9.615934e+01	-1.589886e-03
9.671476e+01	-1.608302e-03
9.727338e+01	-1.626931e-03
9.783522e+01	-1.645776e-03
9.840032e+01	-1.664839e-03
9.896867e+01	-1.684123e-03
9.954031e+01	-1.703630e-03
1.001153e+02	-1.723363e-03
1.006935e+02	-1.743324e-03
1.012751e+02	-1.763517e-03
1.018601e+02	-1.783944e-03
1.024484e+02	-1.804607e-03
1.030402e+02	-1.825509e-03
1.036353e+02	-1.846654e-03
1.042339e+02	-1.868043e-03
1.048360e+02	-1.889680e-03
1.054415e+02	-1.911568e-03
1.060505e+02	-1.933709e-03
1.066631e+02	-1.956107e-03
1.072791e+02	-1.978763e-03
1.078988e+02	-2.001683e-03
1.085220e+02	-2.024867e-03
1.091488e+02	-2.048320e-03
1.097793e+02	-2.072045e-03
1.104133e+02	-2.096045e-03
1.110511e+02	-2.120322e-03
1.116925e+02	-2.144880e-03
1.123376e+02	-2.169723e-03
1.129865e+02	-2.194853e-03
1.136391e+02	-2.220275e-03
1.142955e+02	-2.245991e-03
1.149556e+02	-2.272004e-03
1.156196e+02	-2.298319e-03
1.162874e+02	-2.324939e-03
1.169591e+02	-2.351866e-03
1.176347e+02	-2.379106e-03
1.183141e+02	-2.406661e-03
1.189975e+02	-2.434535e-03
1.196848e+02	-2.462732e-03
1.203761e+02	-2.491255e-03
1.210714e+02	-2.520108e-03
1.217707e+02	-2.549296e-03
1.224740e+02	-2.578821e-03
1.231814e+02	-2.608689e-03
1.238929e+02	-2.638902e-03
1.246085e+02	-2.669465e-03
1.253283e+02	-2.700382e-03
1.260522e+02	-2.731656e-03
1.267802e+02	-2.763293e-03
1.275125e+02	-2.795296e-03
1.282490e+02	-2.827670e-03
1.289898e+02	-2.860419e-03
1.297348e+02	-2.893546e-03
1.304842e+02	-2.927058e-03
1.312378e+02	-2.960957e-03
1.319959e+02	-2.995248e-03
1.327583e+02	-3.029937e-03
1.335251e+02	-3.065027e-03
1.342963e+02	-3.100524e-03
1.350720e+02	-3.136431e-03
1.358522e+02	-3.172754e-03
1.366368e+02	-3.209498e-03
1.374260e+02	-3.246667e-03
1.382198e+02	-3.284266e-03
1.390182e+02	-3.322300e-03
1.398211e+02	-3.360775e-03
1.406287e+02	-3.399695e-03
1.414410e+02	-3.439066e-03
1.422579e+02	-3.478893e-03
1.430796e+02	-3.519180e-03
1.439060e+02	-3.559934e-03
1.447372e+02	-3.601160e-03
1.455732e+02	-3.642863e-03
1.464141e+02	-3.685048e-03
1.472597e+02	-3.727722e-03
1.481103e+02	-3.770890e-03
1.489658e+02	-3.814558e-03
1.498262e+02	-3.858731e-03
1.506916e+02	-3.903415e-03
1.515620e+02	-3.948616e-03
1.524374e+02	-3.994341e-03
1.533179e+02	-4.040595e-03
1.542034e+02	-4.087384e-03
1.550941e+02	-4.134715e-03
1.559899e+02	-4.182594e-03
1.568909e+02	-4.231026e-03
1.577971e+02	-4.280020e-03
1.587085e+02	-4.329580e-03
1.596252e+02	-4.379714e-03
1.605472e+02	-4.430428e-03
1.614745e+02	-4.481730e-03
1.624072e+02	-4.533624e-03
1.633453e+02	-4.586120e-03
1.642887e+02	-4.639223e-03
1.652377e+02	-4.692940e-03
1.661921e+02	-4.747279e-03
1.671520e+02	-4.802247e-03
1.681175e+02	-4.857852e-03
1.690885e+02	-4.914099e-03
1.700651e+02	-4.970998e-03
1.710474e+02	-5.028555e-03
1.720354e+02	-5.086777e-03
1.730291e+02	-5.145674e-03
1.740285e+02	-5.205252e-03
1.750337e+02	-5.265520e-03
1.760446e+02	-5.326485e-03
1.770615e+02	-5.388155e-03
1.780842e+02	-5.450539e-03
1.791128e+02	-5.513645e-03
1.801473e+02	-5.577481e-03
1.811878e+02	-5.642055e-03
1.822344e+02	-5.707377e-03
1.832870e+02	-5.773454e-03
1.843456e+02	-5.840296e-03
1.854104e+02	-5.907911e-03
1.864813e+02	-5.976309e-03
1.875584e+02	-6.045498e-03
1.886418e+02	-6.115487e-03
1.897313e+02	-6.186286e-03
1.908272e+02	-6.257904e-03
1.919294e+02	-6.330350e-03
1.930380e+02	-6.403635e-03
1.941530e+02	-6.477767e-03
1.952744e+02	-6.552757e-03
1.964023e+02	-6.628614e-03
1.975367e+02	-6.705349e-03
1.986777e+02	-6.782971e-03
1.998252e+02	-6.861492e-03
2.009794e+02	-6.940920e-03
2.021403e+02	-7.021267e-03
2.033078e+02	-7.102544e-03
2.044821e+02	-7.184760e-03
2.056632e+02	-7.267928e-03
2.068511e+02	-7.352057e-03
2.080459e+02	-7.437160e-03
2.092475e+02	-7.523246e-03
2.104561e+02	-7.610328e-03
2.116717e+02	-7.698418e-03
2.128943e+02	-7.787526e-03
2.141240e+02	-7.877664e-03
2.153608e+02	-7.968845e-03
2.166047e+02	-8.061080e-03
2.178558e+02	-8.154382e-03
2.191141e+02	-8.248763e-03
2.203797e+02	-8.344235e-03
2.216526e+02	-8.440811e-03
2.229329e+02	-8.538503e-03
2.242205e+02	-8.637325e-03
2.255156e+02	-8.737290e-03
2.268182e+02	-8.838410e-03
2.281283e+02	-8.940700e-03
2.294459e+02	-9.044172e-03
2.307712e+02	-9.148840e-03
2.321041e+02	-9.254719e-03
2.334447e+02	-9.361821e-03
2.347931e+02	-9.470162e-03
2.361493e+02	-9.579755e-03
2.375133e+02	-9.690615e-03
2.388851e+02	-9.802756e-03
2.402649e+02	-9.916193e-03
2.416527e+02	-1.003094e-02
2.430484e+02	-1.014702e-02
2.444523e+02	-1.026443e-02
2.458642e+02	-1.038321e-02
2.472843e+02	-1.050335e-02
2.487126e+02	-1.062489e-02
2.501492e+02	-1.074783e-02
2.515940e+02	-1.087219e-02
2.530472e+02	-1.099798e-02
2.545088e+02	-1.112523e-02
2.559789e+02	-1.125396e-02
2.574574e+02	-1.138416e-02
2.589444e+02	-1.151588e-02
2.604401e+02	-1.164911e-02
2.619444e+02	-1.178389e-02
2.634574e+02	-1.192022e-02
2.649791e+02	-1.205813e-02
2.665096e+02	-1.219762e-02
2.680489e+02	-1.233874e-02
2.695972e+02	-1.248148e-02
2.711544e+02	-1.262587e-02
2.727205e+02	-1.277193e-02
2.742958e+02	-1.291967e-02
2.758801e+02	-1.306912e-02
2.774736e+02	-1.322030e-02
2.790762e+02	-1.337323e-02
2.806882e+02	-1.352792e-02
2.823094e+02	-1.368439e-02
2.839400e+02	-1.384268e-02
2.855800e+02	-1.400279e-02
2.872295e+02	-1.416475e-02
2.888886e+02	-1.432858e-02
2.905572e+02	-1.449430e-02
2.922354e+02	-1.466194e-02
2.939234e+02	-1.483151e-02
2.956211e+02	-1.500304e-02
2.973286e+02	-1.517655e-02
2.990459e+02	-1.535206e-02
3.007732e+02	-1.552960e-02
3.025104e+02	-1.570919e-02
3.042577e+02	-1.589085e-02
3.060151e+02	-1.607460e-02
3.077826e+02	-1.626048e-02
3.095604e+02	-1.644851e-02
3.113484e+02	-1.663870e-02
3.131467e+02	-1.683109e-02
3.149554e+02	-1.702570e-02
3.167746e+02	-1.722255e-02
3.186043e+02	-1.742168e-02
3.204445e+02	-1.762310e-02
3.222954e+02	-1.782685e-02
3.241570e+02	-1.803295e-02
3.260293e+02	-1.824143e-02
3.279124e+02	-1.845231e-02
3.298064e+02	-1.866562e-02
3.317114e+02	-1.888140e-02
3.336273e+02	-1.909966e-02
3.355544e+02	-1.932044e-02
3.374925e+02	-1.954377e-02
3.394418e+02	-1.976967e-02
3.414024e+02	-1.999818e-02
3.433744e+02	-2.022932e-02
3.453577e+02	-2.046313e-02
3.473525e+02	-2.069963e-02
3.493588e+02	-2.093887e-02
3.513766e+02	-2.118085e-02
3.534062e+02	-2.142563e-02
3.554474e+02	-2.167323e-02
3.575005e+02	-2.192369e-02
3.595654e+02	-2.217703e-02
3.616422e+02	-2.243329e-02
3.637311e+02	-2.269250e-02
3.658320e+02	-2.295471e-02
3.679450e+02	-2.321993e-02
3.700702e+02	-2.348821e-02
3.722077e+02	-2.375958e-02
3.743576e+02	-2.403408e-02
3.765199e+02	-2.431174e-02
3.786946e+02	-2.459259e-02
3.808820e+02	-2.487669e-02
3.830819e+02	-2.516405e-02
3.852946e+02	-2.545473e-02
3.875200e+02	-2.574875e-02
3.897583e+02	-2.604616e-02
3.920096e+02	-2.634699e-02
3.942738e+02	-2.665129e-02
3.965511e+02	-2.695909e-02
3.988416e+02	-2.727044e-02
4.011452e+02	-2.758537e-02
4.034622e+02	-2.790392e-02
4.057926e+02	-2.822614e-02
4.081365e+02	-2.855207e-02
4.104938e+02	-2.888175e-02
4.128648e+02	-2.921523e-02
4.152495e+02	-2.955254e-02
4.176480e+02	-2.989373e-02
4.200603e+02	-3.023885e-02
4.224866e+02	-3.058794e-02
4.249268e+02	-3.094104e-02
4.273812e+02	-3.129820e-02
4.298497e+02	-3.165948e-02
4.323325e+02	-3.202490e-02
4.348297e+02	-3.239453e-02
4.373412e+02	-3.276841e-02
4.398673e+02	-3.314659e-02
4.424079e+02	-3.352912e-02
4.449633e+02	-3.391604e-02
4.475334e+02	-3.430741e-02
4.501183e+02	-3.470328e-02
4.527182e+02	-3.510370e-02
4.553330e+02	-3.550872e-02
4.579630e+02	-3.591839e-02
4.606082e+02	-3.633277e-02
4.632687e+02	-3.675191e-02
4.659445e+02	-3.717587e-02
4.686358e+02	-3.760469e-02
4.713426e+02	-3.803844e-02
4.740650e+02	-3.847717e-02
4.768032e+02	-3.892093e-02
4.795572e+02	-3.936979e-02
4.823271e+02	-3.982381e-02
4.851130e+02	-4.028303e-02
4.879150e+02	-4.074753e-02
4.907332e+02	-4.121736e-02
4.935676e+02	-4.169257e-02
4.964185e+02	-4.217324e-02
4.992858e+02	-4.265943e-02
5.021696e+02	-4.315119e-02
5.050701e+02	-4.364859e-02
5.079874e+02	-4.415170e-02
5.109215e+02	-4.466057e-02
5.138726e+02	-4.517528e-02
5.168407e+02	-4.569589e-02
5.198259e+02	-4.622247e-02
5.228284e+02	-4.675508e-02
5.258482e+02	-4.729379e-02
5.288855e+02	-4.783868e-02
5.319403e+02	-4.838982e-02
5.350128e+02	-4.894726e-02
5.381030e+02	-4.951109e-02
5.412111e+02	-5.008138e-02
5.443371e+02	-5.065820e-02
5.474812e+02	-5.124162e-02
5.506434e+02	-5.183172e-02
5.538239e+02	-5.242858e-02
5.570228e+02	-5.303226e-02
5.602401e+02	-5.364286e-02
5.634760e+02	-5.426044e-02
5.667306e+02	-5.488508e-02
5.700040e+02	-5.551687e-02
5.732964e+02	-5.615589e-02
5.766077e+02	-5.680221e-02
5.799382e+02	-5.745592e-02
5.832879e+02	-5.811711e-02
5.866569e+02	-5.878585e-02
5.900454e+02	-5.946223e-02
5.934535e+02	-6.014635e-02
5.968813e+02	-6.083828e-02
6.003288e+02	-6.153811e-02
6.037963e+02	-6.224593e-02
6.072838e+02	-6.296184e-02
6.107914e+02	-6.368592e-02
6.143194e+02	-6.441826e-02
6.178676e+02	-6.515896e-02
6.214364e+02	-6.590812e-02
6.250258e+02	-6.666582e-02
6.286359e+02	-6.743217e-02
6.322669e+02	-6.820725e-02
6.359189e+02	-6.899117e-02
6.395919e+02	-6.978403e-02
6.432862e+02	-7.058593e-02
6.470017e+02	-7.139697e-02
6.507388e+02	-7.221725e-02
6.544974e+02	-7.304687e-02
6.582778e+02	-7.388594e-02
6.620800e+02	-7.473457e-02
6.659041e+02	-7.559286e-02
6.697504e+02	-7.646092e-02
6.736188e+02	-7.733885e-02
6.775096e+02	-7.822678e-02
6.814229e+02	-7.912481e-02
6.853587e+02	-8.003305e-02
6.893173e+02	-8.095162e-02
6.932988e+02	-8.188064e-02
6.973033e+02	-8.282021e-02
7.013309e+02	-8.377046e-02
