Frequency(Hz)	Magnitude(dB)
1.000000e+01	-2.006151e+00
1.005776e+01	-2.024852e+00
1.011585e+01	-2.043361e+00
1.017428e+01	-2.062599e+00
1.023305e+01	-2.081195e+00
1.029215e+01	-2.100160e+00
1.035160e+01	-2.119682e+00
1.041139e+01	-2.139011e+00
1.047153e+01	-2.158653e+00
1.053201e+01	-2.178278e+00
1.059284e+01	-2.198023e+00
1.065403e+01	-2.218009e+00
1.071556e+01	-2.238189e+00
1.077746e+01	-2.258072e+00
1.083971e+01	-2.278588e+00
1.090232e+01	-2.299052e+00
1.096529e+01	-2.319755e+00
1.102862e+01	-2.340558e+00
1.109232e+01	-2.361522e+00
1.115639e+01	-2.382453e+00
1.122083e+01	-2.403666e+00
1.128564e+01	-2.425103e+00
1.135083e+01	-2.446476e+00
1.141639e+01	-2.468193e+00
1.148233e+01	-2.489643e+00
1.154865e+01	-2.511708e+00
1.161536e+01	-2.533757e+00
1.168245e+01	-2.556032e+00
1.174992e+01	-2.578343e+00
1.181779e+01	-2.600709e+00
1.188605e+01	-2.623270e+00
1.195470e+01	-2.646029e+00
1.202375e+01	-2.668946e+00
1.209320e+01	-2.691940e+00
1.216305e+01	-2.715349e+00
1.223330e+01	-2.738554e+00
1.230396e+01	-2.762088e+00
1.237503e+01	-2.785532e+00
1.244651e+01	-2.809262e+00
1.251840e+01	-2.833309e+00
1.259070e+01	-2.857312e+00
1.266343e+01	-2.881436e+00
1.273657e+01	-2.906037e+00
1.281014e+01	-2.930267e+00
1.288413e+01	-2.954908e+00
1.295855e+01	-2.979697e+00
1.303339e+01	-3.004666e+00
1.310867e+01	-3.029672e+00
1.318439e+01	-3.054868e+00
1.326054e+01	-3.080188e+00
1.333713e+01	-3.105905e+00
1.341417e+01	-3.131571e+00
1.349165e+01	-3.157026e+00
1.356958e+01	-3.182999e+00
1.364795e+01	-3.209255e+00
1.372678e+01	-3.235259e+00
1.380607e+01	-3.261812e+00
1.388581e+01	-3.288186e+00
1.396602e+01	-3.314741e+00
1.404668e+01	-3.341439e+00
1.412782e+01	-3.368662e+00
1.420942e+01	-3.395397e+00
1.429149e+01	-3.422963e+00
1.437404e+01	-3.450229e+00
1.445706e+01	-3.477641e+00
1.454057e+01	-3.505301e+00
1.462455e+01	-3.533218e+00
1.470902e+01	-3.561156e+00
1.479398e+01	-3.589032e+00
1.487943e+01	-3.617145e+00
1.496537e+01	-3.645417e+00
1.505181e+01	-3.674129e+00
1.513875e+01	-3.702793e+00
1.522619e+01	-3.731841e+00
1.531414e+01	-3.760372e+00
1.540259e+01	-3.789380e+00
1.549156e+01	-3.818522e+00
1.558103e+01	-3.847778e+00
1.567103e+01	-3.877374e+00
1.576155e+01	-3.906970e+00
1.585258e+01	-3.936727e+00
1.594415e+01	-3.966747e+00
1.603624e+01	-3.996604e+00
1.612886e+01	-4.026913e+00
1.622202e+01	-4.057127e+00
1.631572e+01	-4.087607e+00
1.640996e+01	-4.117876e+00
1.650474e+01	-4.148685e+00
1.660008e+01	-4.179638e+00
1.669596e+01	-4.210557e+00
1.679239e+01	-4.241731e+00
1.688938e+01	-4.273124e+00
1.698694e+01	-4.304355e+00
1.708505e+01	-4.335829e+00
1.718373e+01	-4.367802e+00
1.728299e+01	-4.399610e+00
1.738281e+01	-4.431187e+00
1.748322e+01	-4.463362e+00
1.758420e+01	-4.495479e+00
1.768576e+01	-4.527959e+00
1.778792e+01	-4.560198e+00
1.789066e+01	-4.592989e+00
1.799399e+01	-4.625510e+00
1.809793e+01	-4.658723e+00
1.820246e+01	-4.691630e+00
1.830760e+01	-4.724721e+00
1.841334e+01	-4.757810e+00
1.851969e+01	-4.791191e+00
1.862666e+01	-4.824656e+00
1.873425e+01	-4.858234e+00
1.884246e+01	-4.892155e+00
1.895129e+01	-4.926131e+00
1.906075e+01	-4.959739e+00
1.917085e+01	-4.994097e+00
1.928158e+01	-5.028180e+00
1.939295e+01	-5.062663e+00
1.950496e+01	-5.096896e+00
1.961762e+01	-5.131922e+00
1.973093e+01	-5.166628e+00
1.984490e+01	-5.200929e+00
1.995952e+01	-5.236369e+00
2.007480e+01	-5.271647e+00
2.019076e+01	-5.306691e+00
2.030738e+01	-5.341994e+00
2.042467e+01	-5.377640e+00
2.054264e+01	-5.413240e+00
2.066130e+01	-5.449143e+00
2.078064e+01	-5.484591e+00
2.090066e+01	-5.520719e+00
2.102139e+01	-5.556534e+00
2.114280e+01	-5.592445e+00
2.126492e+01	-5.629166e+00
2.138775e+01	-5.665258e+00
2.151128e+01	-5.702088e+00
2.163553e+01	-5.738538e+00
2.176050e+01	-5.774986e+00
2.188619e+01	-5.812089e+00
2.201260e+01	-5.849082e+00
2.213974e+01	-5.886174e+00
2.226762e+01	-5.923499e+00
2.239624e+01	-5.960844e+00
2.252560e+01	-5.997938e+00
2.265571e+01	-6.035444e+00
2.278656e+01	-6.073230e+00
2.291818e+01	-6.110678e+00
2.305055e+01	-6.148707e+00
2.318369e+01	-6.186952e+00
2.331760e+01	-6.224836e+00
2.345228e+01	-6.262960e+00
2.358774e+01	-6.301502e+00
2.372398e+01	-6.339258e+00
2.386101e+01	-6.378138e+00
2.399883e+01	-6.416506e+00
2.413745e+01	-6.455260e+00
2.427686e+01	-6.494136e+00
2.441709e+01	-6.532968e+00
2.455812e+01	-6.571751e+00
2.469997e+01	-6.610893e+00
2.484263e+01	-6.649960e+00
2.498612e+01	-6.688895e+00
2.513044e+01	-6.728810e+00
2.527559e+01	-6.768051e+00
2.542158e+01	-6.807156e+00
2.556842e+01	-6.847099e+00
2.571610e+01	-6.886906e+00
2.586463e+01	-6.926790e+00
2.601403e+01	-6.967020e+00
2.616428e+01	-7.006275e+00
2.631541e+01	-7.047157e+00
2.646740e+01	-7.086747e+00
2.662028e+01	-7.127403e+00
2.677404e+01	-7.167368e+00
2.692868e+01	-7.208046e+00
2.708422e+01	-7.248963e+00
2.724066e+01	-7.289309e+00
2.739800e+01	-7.329698e+00
2.755625e+01	-7.370646e+00
2.771541e+01	-7.411380e+00
2.787550e+01	-7.453360e+00
2.803650e+01	-7.493770e+00
2.819844e+01	-7.535090e+00
2.836131e+01	-7.576172e+00
2.852513e+01	-7.617406e+00
2.868989e+01	-7.658972e+00
2.885560e+01	-7.700664e+00
2.902227e+01	-7.741853e+00
2.918990e+01	-7.783672e+00
2.935850e+01	-7.825322e+00
2.952807e+01	-7.867263e+00
2.969863e+01	-7.909008e+00
2.987016e+01	-7.951179e+00
3.004269e+01	-7.993339e+00
3.021622e+01	-8.034968e+00
3.039075e+01	-8.077195e+00
3.056628e+01	-8.119642e+00
3.074283e+01	-8.162328e+00
3.092040e+01	-8.204264e+00
3.109900e+01	-8.247171e+00
3.127862e+01	-8.289185e+00
3.145929e+01	-8.331846e+00
3.164099e+01	-8.375091e+00
3.182375e+01	-8.417860e+00
3.200756e+01	-8.460994e+00
3.219244e+01	-8.503301e+00
3.237838e+01	-8.546617e+00
3.256540e+01	-8.589270e+00
3.275349e+01	-8.632717e+00
3.294268e+01	-8.675945e+00
3.313295e+01	-8.719681e+00
3.332433e+01	-8.762098e+00
3.351681e+01	-8.806059e+00
3.371040e+01	-8.849653e+00
3.390511e+01	-8.893077e+00
3.410094e+01	-8.936406e+00
3.429791e+01	-8.980147e+00
3.449601e+01	-9.024258e+00
3.469526e+01	-9.067914e+00
3.489566e+01	-9.111635e+00
3.509721e+01	-9.155875e+00
3.529993e+01	-9.199291e+00
3.550382e+01	-9.243408e+00
3.570889e+01	-9.287812e+00
3.591515e+01	-9.331527e+00
3.612259e+01	-9.375202e+00
3.633123e+01	-9.420277e+00
3.654108e+01	-9.464799e+00
3.675214e+01	-9.508861e+00
3.696442e+01	-9.553663e+00
3.717792e+01	-9.598292e+00
3.739266e+01	-9.642770e+00
3.760864e+01	-9.687168e+00
3.782587e+01	-9.731036e+00
3.804435e+01	-9.776647e+00
3.826409e+01	-9.821341e+00
3.848510e+01	-9.866273e+00
3.870739e+01	-9.911149e+00
3.893096e+01	-9.955710e+00
3.915583e+01	-1.000126e+01
3.938199e+01	-1.004590e+01
3.960946e+01	-1.009086e+01
3.983824e+01	-1.013673e+01
4.006834e+01	-1.018151e+01
4.029978e+01	-1.022626e+01
4.053255e+01	-1.027244e+01
4.076666e+01	-1.031774e+01
4.100213e+01	-1.036279e+01
4.123896e+01	-1.040862e+01
4.147715e+01	-1.045395e+01
4.171672e+01	-1.049937e+01
4.195767e+01	-1.054455e+01
4.220002e+01	-1.059077e+01
4.244377e+01	-1.063598e+01
4.268892e+01	-1.068172e+01
4.293549e+01	-1.072826e+01
4.318348e+01	-1.077331e+01
4.343291e+01	-1.081938e+01
4.368377e+01	-1.086552e+01
4.393609e+01	-1.091148e+01
4.418986e+01	-1.095769e+01
4.444510e+01	-1.100367e+01
4.470182e+01	-1.105031e+01
4.496001e+01	-1.109513e+01
4.521970e+01	-1.114100e+01
4.548089e+01	-1.118821e+01
4.574358e+01	-1.123365e+01
4.600779e+01	-1.128003e+01
4.627353e+01	-1.132660e+01
4.654081e+01	-1.137289e+01
4.680963e+01	-1.141963e+01
4.708000e+01	-1.146623e+01
4.735193e+01	-1.151148e+01
4.762543e+01	-1.155898e+01
4.790051e+01	-1.160526e+01
4.817719e+01	-1.165183e+01
4.845545e+01	-1.169836e+01
4.873533e+01	-1.174525e+01
4.901682e+01	-1.179264e+01
4.929994e+01	-1.183880e+01
4.958470e+01	-1.188570e+01
4.987110e+01	-1.193261e+01
5.015915e+01	-1.197901e+01
5.044887e+01	-1.202544e+01
5.074026e+01	-1.207346e+01
5.103333e+01	-1.211977e+01
5.132810e+01	-1.216775e+01
5.162457e+01	-1.221398e+01
5.192275e+01	-1.226141e+01
5.222265e+01	-1.230816e+01
5.252429e+01	-1.235513e+01
5.282767e+01	-1.240280e+01
5.313280e+01	-1.244907e+01
5.343969e+01	-1.249640e+01
5.374836e+01	-1.254373e+01
5.405880e+01	-1.259118e+01
5.437105e+01	-1.263844e+01
5.468509e+01	-1.268564e+01
5.500095e+01	-1.273317e+01
5.531863e+01	-1.277969e+01
5.563815e+01	-1.282845e+01
5.595951e+01	-1.287493e+01
5.628273e+01	-1.292260e+01
5.660782e+01	-1.296957e+01
5.693479e+01	-1.301732e+01
5.726364e+01	-1.306539e+01
5.759439e+01	-1.311341e+01
5.792705e+01	-1.315965e+01
5.826164e+01	-1.320777e+01
5.859815e+01	-1.325600e+01
5.893662e+01	-1.330292e+01
5.927703e+01	-1.335045e+01
5.961941e+01	-1.339845e+01
5.996377e+01	-1.344598e+01
6.031012e+01	-1.349462e+01
6.065847e+01	-1.354245e+01
6.100883e+01	-1.358974e+01
6.136121e+01	-1.363828e+01
6.171563e+01	-1.368529e+01
6.207210e+01	-1.373304e+01
6.243063e+01	-1.378149e+01
6.279122e+01	-1.382903e+01
6.315390e+01	-1.387740e+01
6.351868e+01	-1.392632e+01
6.388556e+01	-1.397295e+01
6.425456e+01	-1.402162e+01
6.462569e+01	-1.406933e+01
6.499897e+01	-1.411705e+01
6.537440e+01	-1.416643e+01
6.575200e+01	-1.421389e+01
6.613178e+01	-1.426273e+01
6.651375e+01	-1.431028e+01
6.689793e+01	-1.435778e+01
6.728433e+01	-1.440577e+01
6.767297e+01	-1.445466e+01
6.806384e+01	-1.450339e+01
6.845698e+01	-1.455112e+01
6.885238e+01	-1.459956e+01
6.925007e+01	-1.464774e+01
6.965005e+01	-1.469679e+01
7.005235e+01	-1.474442e+01
7.045697e+01	-1.479245e+01
7.086393e+01	-1.484230e+01
7.127323e+01	-1.488959e+01
7.168490e+01	-1.493840e+01
7.209895e+01	-1.498709e+01
7.251539e+01	-1.503480e+01
7.293424e+01	-1.508409e+01
7.335551e+01	-1.513161e+01
7.377920e+01	-1.518050e+01
7.420535e+01	-1.522835e+01
7.463396e+01	-1.527759e+01
7.506504e+01	-1.532591e+01
7.549861e+01	-1.537466e+01
7.593469e+01	-1.542237e+01
7.637328e+01	-1.547108e+01
7.681441e+01	-1.551978e+01
7.725809e+01	-1.556906e+01
7.770433e+01	-1.561721e+01
7.815315e+01	-1.566633e+01
7.860456e+01	-1.571572e+01
7.905857e+01	-1.576411e+01
7.951521e+01	-1.581229e+01
7.997449e+01	-1.586102e+01
8.043642e+01	-1.590941e+01
8.090102e+01	-1.595898e+01
8.136830e+01	-1.600746e+01
8.183828e+01	-1.605593e+01
8.231097e+01	-1.610605e+01
8.278640e+01	-1.615309e+01
8.326457e+01	-1.620284e+01
8.374550e+01	-1.625248e+01
8.422921e+01	-1.630091e+01
8.471572e+01	-1.634874e+01
8.520503e+01	-1.639695e+01
8.569717e+01	-1.644792e+01
8.619215e+01	-1.649531e+01
8.669000e+01	-1.654511e+01
8.719071e+01	-1.659474e+01
8.769432e+01	-1.664377e+01
8.820084e+01	-1.669274e+01
8.871029e+01	-1.674051e+01
8.922267e+01	-1.678945e+01
8.973802e+01	-1.683711e+01
9.025634e+01	-1.688752e+01
9.077766e+01	-1.693611e+01
9.130199e+01	-1.698486e+01
9.182935e+01	-1.703410e+01
9.235975e+01	-1.708335e+01
9.289321e+01	-1.713255e+01
9.342976e+01	-1.718096e+01
9.396941e+01	-1.723120e+01
9.451217e+01	-1.728043e+01
9.505807e+01	-1.732995e+01
9.560712e+01	-1.737787e+01
9.615934e+01	-1.742717e+01
9.671476e+01	-1.747616e+01
9.727338e+01	-1.752542e+01
9.783522e+01	-1.757433e+01
9.840032e+01	-1.762411e+01
9.896867e+01	-1.767255e+01
9.954031e+01	-1.772368e+01
1.001153e+02	-1.777120e+01
1.006935e+02	-1.781959e+01
1.012751e+02	-1.786976e+01
1.018601e+02	-1.791900e+01
1.024484e+02	-1.796849e+01
1.030402e+02	-1.801747e+01
1.036353e+02	-1.806652e+01
1.042339e+02	-1.811543e+01
1.048360e+02	-1.816523e+01
1.054415e+02	-1.821485e+01
1.060505e+02	-1.826471e+01
1.066631e+02	-1.831332e+01
1.072791e+02	-1.836305e+01
1.078988e+02	-1.841200e+01
1.085220e+02	-1.845974e+01
1.091488e+02	-1.851081e+01
1.097793e+02	-1.855963e+01
1.104133e+02	-1.860757e+01
1.110511e+02	-1.865849e+01
1.116925e+02	-1.870866e+01
1.123376e+02	-1.875684e+01
1.129865e+02	-1.880508e+01
1.136391e+02	-1.885521e+01
1.142955e+02	-1.890486e+01
1.149556e+02	-1.895478e+01
1.156196e+02	-1.900326e+01
1.162874e+02	-1.905386e+01
1.169591e+02	-1.910184e+01
1.176347e+02	-1.915210e+01
1.183141e+02	-1.920176e+01
1.189975e+02	-1.925249e+01
1.196848e+02	-1.930069e+01
1.203761e+02	-1.935030e+01
1.210714e+02	-1.939918e+01
1.217707e+02	-1.944699e+01
1.224740e+02	-1.949817e+01
1.231814e+02	-1.954862e+01
1.238929e+02	-1.959779e+01
1.246085e+02	-1.964695e+01
1.253283e+02	-1.969667e+01
1.260522e+02	-1.974608e+01
1.267802e+02	-1.979700e+01
1.275125e+02	-1.984401e+01
1.282490e+02	-1.989367e+01
1.289898e+02	-1.994353e+01
1.297348e+02	-1.999385e+01
1.304842e+02	-2.004357e+01
1.312378e+02	-2.009295e+01
1.319959e+02	-2.014178e+01
1.327583e+02	-2.019013e+01
1.335251e+02	-2.024114e+01
1.342963e+02	-2.029138e+01
1.350720e+02	-2.034150e+01
1.358522e+02	-2.038951e+01
1.366368e+02	-2.043968e+01
1.374260e+02	-2.049023e+01
1.382198e+02	-2.054013e+01
1.390182e+02	-2.058768e+01
1.398211e+02	-2.063691e+01
1.406287e+02	-2.068803e+01
1.414410e+02	-2.073741e+01
1.422579e+02	-2.078685e+01
1.430796e+02	-2.083699e+01
1.439060e+02	-2.088590e+01
1.447372e+02	-2.093764e+01
1.455732e+02	-2.098591e+01
1.464141e+02	-2.103479e+01
1.472597e+02	-2.108508e+01
1.481103e+02	-2.113275e+01
1.489658e+02	-2.118471e+01
1.498262e+02	-2.123377e+01
1.506916e+02	-2.128464e+01
1.515620e+02	-2.133284e+01
1.524374e+02	-2.138214e+01
1.533179e+02	-2.143353e+01
1.542034e+02	-2.148302e+01
1.550941e+02	-2.153200e+01
1.559899e+02	-2.158333e+01
1.568909e+02	-2.163085e+01
1.577971e+02	-2.168201e+01
1.587085e+02	-2.172887e+01
1.596252e+02	-2.177891e+01
1.605472e+02	-2.182963e+01
1.614745e+02	-2.188134e+01
1.624072e+02	-2.192803e+01
1.633453e+02	-2.197787e+01
1.642887e+02	-2.202732e+01
1.652377e+02	-2.207948e+01
1.661921e+02	-2.212988e+01
1.671520e+02	-2.217713e+01
1.681175e+02	-2.222780e+01
1.690885e+02	-2.227900e+01
1.700651e+02	-2.232779e+01
1.710474e+02	-2.237607e+01
1.720354e+02	-2.242629e+01
1.730291e+02	-2.247758e+01
1.740285e+02	-2.252460e+01
1.750337e+02	-2.257440e+01
1.760446e+02	-2.262528e+01
1.770615e+02	-2.267450e+01
1.780842e+02	-2.272528e+01
1.791128e+02	-2.277716e+01
1.801473e+02	-2.282242e+01
1.811878e+02	-2.287502e+01
1.822344e+02	-2.292558e+01
1.832870e+02	-2.297480e+01
1.843456e+02	-2.302309e+01
1.854104e+02	-2.307283e+01
1.864813e+02	-2.312622e+01
1.875584e+02	-2.317179e+01
1.886418e+02	-2.322448e+01
1.897313e+02	-2.327380e+01
1.908272e+02	-2.332501e+01
1.919294e+02	-2.337158e+01
1.930380e+02	-2.342340e+01
1.941530e+02	-2.347068e+01
1.952744e+02	-2.351919e+01
1.964023e+02	-2.357567e+01
1.975367e+02	-2.362197e+01
1.986777e+02	-2.367131e+01
1.998252e+02	-2.372216e+01
2.009794e+02	-2.377033e+01
2.021403e+02	-2.382118e+01
2.033078e+02	-2.387109e+01
2.044821e+02	-2.391887e+01
2.056632e+02	-2.396922e+01
2.068511e+02	-2.401910e+01
2.080459e+02	-2.407089e+01
2.092475e+02	-2.412147e+01
2.104561e+02	-2.416794e+01
2.116717e+02	-2.422101e+01
2.128943e+02	-2.426875e+01
2.141240e+02	-2.432228e+01
2.153608e+02	-2.436969e+01
2.166047e+02	-2.441970e+01
2.178558e+02	-2.447235e+01
2.191141e+02	-2.451886e+01
2.203797e+02	-2.457004e+01
2.216526e+02	-2.461870e+01
2.229329e+02	-2.466878e+01
2.242205e+02	-2.471808e+01
2.255156e+02	-2.476792e+01
2.268182e+02	-2.482164e+01
2.281283e+02	-2.487151e+01
2.294459e+02	-2.491659e+01
2.307712e+02	-2.496861e+01
2.321041e+02	-2.501460e+01
2.334447e+02	-2.506490e+01
2.347931e+02	-2.511725e+01
2.361493e+02	-2.516923e+01
2.375133e+02	-2.521883e+01
2.388851e+02	-2.526739e+01
2.402649e+02	-2.531678e+01
2.416527e+02	-2.536838e+01
2.430484e+02	-2.541877e+01
2.444523e+02	-2.546708e+01
2.458642e+02	-2.551758e+01
2.472843e+02	-2.556682e+01
2.487126e+02	-2.561964e+01
2.501492e+02	-2.566767e+01
2.515940e+02	-2.571683e+01
2.530472e+02	-2.576859e+01
2.545088e+02	-2.581718e+01
2.559789e+02	-2.587140e+01
2.574574e+02	-2.592007e+01
2.589444e+02	-2.596652e+01
2.604401e+02	-2.601809e+01
2.619444e+02	-2.606664e+01
2.634574e+02	-2.611690e+01
2.649791e+02	-2.616705e+01
2.665096e+02	-2.621873e+01
2.680489e+02	-2.626804e+01
2.695972e+02	-2.631805e+01
2.711544e+02	-2.636548e+01
2.727205e+02	-2.641570e+01
2.742958e+02	-2.646853e+01
2.758801e+02	-2.651634e+01
2.774736e+02	-2.656573e+01
2.790762e+02	-2.661825e+01
2.806882e+02	-2.666557e+01
2.823094e+02	-2.671844e+01
2.839400e+02	-2.676249e+01
2.855800e+02	-2.681266e+01
2.872295e+02	-2.686929e+01
2.888886e+02	-2.691775e+01
2.905572e+02	-2.696733e+01
2.922354e+02	-2.701580e+01
2.939234e+02	-2.706581e+01
2.956211e+02	-2.712194e+01
2.973286e+02	-2.716419e+01
2.990459e+02	-2.721986e+01
3.007732e+02	-2.726964e+01
3.025104e+02	-2.731579e+01
3.042577e+02	-2.736658e+01
3.060151e+02	-2.741625e+01
3.077826e+02	-2.746616e+01
3.095604e+02	-2.751500e+01
3.113484e+02	-2.756834e+01
3.131467e+02	-2.762012e+01
3.149554e+02	-2.766784e+01
3.167746e+02	-2.771890e+01
3.186043e+02	-2.776724e+01
3.204445e+02	-2.781541e+01
3.222954e+02	-2.787267e+01
3.241570e+02	-2.791726e+01
3.260293e+02	-2.796269e+01
3.279124e+02	-2.802040e+01
3.298064e+02	-2.806653e+01
3.317114e+02	-2.812009e+01
3.336273e+02	-2.816767e+01
3.355544e+02	-2.821959e+01
3.374925e+02	-2.826753e+01
3.394418e+02	-2.831543e+01
3.414024e+02	-2.836941e+01
3.433744e+02	-2.841700e+01
3.453577e+02	-2.846986e+01
3.473525e+02	-2.851617e+01
3.493588e+02	-2.856674e+01
3.513766e+02	-2.861521e+01
3.534062e+02	-2.866992e+01
3.554474e+02	-2.871892e+01
3.575005e+02	-2.876726e+01
3.595654e+02	-2.881654e+01
3.616422e+02	-2.887024e+01
3.637311e+02	-2.891447e+01
3.658320e+02	-2.896544e+01
3.679450e+02	-2.901858e+01
3.700702e+02	-2.906577e+01
3.722077e+02	-2.912323e+01
3.743576e+02	-2.916954e+01
3.765199e+02	-2.921544e+01
3.786946e+02	-2.927159e+01
3.808820e+02	-2.931560e+01
3.830819e+02	-2.936922e+01
3.852946e+02	-2.941528e+01
3.875200e+02	-2.947112e+01
3.897583e+02	-2.951854e+01
3.920096e+02	-2.956639e+01
3.942738e+02	-2.961874e+01
3.965511e+02	-2.966927e+01
3.988416e+02	-2.971882e+01
4.011452e+02	-2.976829e+01
4.034622e+02	-2.981647e+01
4.057926e+02	-2.987159e+01
4.081365e+02	-2.992561e+01
4.104938e+02	-2.996771e+01
4.128648e+02	-3.002168e+01
4.152495e+02	-3.007679e+01
4.176480e+02	-3.011799e+01
4.200603e+02	-3.016863e+01
4.224866e+02	-3.021983e+01
4.249268e+02	-3.027238e+01
4.273812e+02	-3.031878e+01
4.298497e+02	-3.037027e+01
4.323325e+02	-3.041795e+01
4.348297e+02	-3.046775e+01
4.373412e+02	-3.052241e+01
4.398673e+02	-3.056900e+01
4.424079e+02	-3.062141e+01
4.449633e+02	-3.067435e+01
4.475334e+02	-3.071802e+01
4.501183e+02	-3.076505e+01
4.527182e+02	-3.081966e+01
4.553330e+02	-3.087041e+01
4.579630e+02	-3.092308e+01
4.606082e+02	-3.097388e+01
4.632687e+02	-3.102603e+01
4.659445e+02	-3.107152e+01
4.686358e+02	-3.112102e+01
4.713426e+02	-3.117028e+01
4.740650e+02	-3.122101e+01
4.768032e+02	-3.127753e+01
4.795572e+02	-3.131869e+01
4.823271e+02	-3.137274e+01
4.851130e+02	-3.142725e+01
4.879150e+02	-3.147715e+01
4.907332e+02	-3.151881e+01
4.935676e+02	-3.157292e+01
4.964185e+02	-3.162377e+01
4.992858e+02	-3.167252e+01
5.021696e+02	-3.173299e+01
5.050701e+02	-3.176934e+01
5.079874e+02	-3.182811e+01
5.109215e+02	-3.187568e+01
5.138726e+02	-3.192390e+01
5.168407e+02	-3.197779e+01
5.198259e+02	-3.202564e+01
5.228284e+02	-3.207835e+01
5.258482e+02	-3.212455e+01
5.288855e+02	-3.217733e+01
5.319403e+02	-3.222638e+01
5.350128e+02	-3.226609e+01
5.381030e+02	-3.232709e+01
5.412111e+02	-3.237473e+01
5.443371e+02	-3.242409e+01
5.474812e+02	-3.248199e+01
5.506434e+02	-3.252640e+01
5.538239e+02	-3.257990e+01
5.570228e+02	-3.262447e+01
5.602401e+02	-3.268493e+01
5.634760e+02	-3.272814e+01
5.667306e+02	-3.277503e+01
5.700040e+02	-3.282684e+01
5.732964e+02	-3.287794e+01
5.766077e+02	-3.292734e+01
5.799382e+02	-3.297644e+01
5.832879e+02	-3.303685e+01
5.866569e+02	-3.308552e+01
5.900454e+02	-3.312873e+01
5.934535e+02	-3.318156e+01
5.968813e+02	-3.322838e+01
6.003288e+02	-3.328091e+01
6.037963e+02	-3.333051e+01
6.072838e+02	-3.337155e+01
6.107914e+02	-3.343067e+01
6.143194e+02	-3.348844e+01
6.178676e+02	-3.353437e+01
6.214364e+02	-3.357846e+01
6.250258e+02	-3.363360e+01
6.286359e+02	-3.368864e+01
6.322669e+02	-3.372960e+01
6.359189e+02	-3.378275e+01
6.395919e+02	-3.383451e+01
6.432862e+02	-3.388881e+01
6.470017e+02	-3.393509e+01
6.507388e+02	-3.398812e+01
6.544974e+02	-3.403327e+01
6.582778e+02	-3.408994e+01
6.620800e+02	-3.413400e+01
6.659041e+02	-3.418505e+01
6.697504e+02	-3.423854e+01
6.736188e+02	-3.428695e+01
6.775096e+02	-3.433703e+01
6.814229e+02	-3.438703e+01
6.853587e+02	-3.443582e+01
6.893173e+02	-3.449655e+01
6.932988e+02	-3.453709e+01
6.973033e+02	-3.459543e+01
7.013309e+02	-3.463380e+01
