Frequency(Hz)	Magnitude(dB)
1.000000e+01	-2.239915e+00
1.005776e+01	-2.260104e+00
1.011585e+01	-2.280462e+00
1.017428e+01	-2.301152e+00
1.023305e+01	-2.321801e+00
1.029215e+01	-2.342516e+00
1.035160e+01	-2.363504e+00
1.041139e+01	-2.384529e+00
1.047153e+01	-2.405757e+00
1.053201e+01	-2.427198e+00
1.059284e+01	-2.448679e+00
1.065403e+01	-2.470355e+00
1.071556e+01	-2.491830e+00
1.077746e+01	-2.514138e+00
1.083971e+01	-2.535901e+00
1.090232e+01	-2.558332e+00
1.096529e+01	-2.580304e+00
1.102862e+01	-2.602960e+00
1.109232e+01	-2.625442e+00
1.115639e+01	-2.648340e+00
1.122083e+01	-2.671384e+00
1.128564e+01	-2.694462e+00
1.135083e+01	-2.717521e+00
1.141639e+01	-2.740722e+00
1.148233e+01	-2.764434e+00
1.154865e+01	-2.787895e+00
1.161536e+01	-2.811750e+00
1.168245e+01	-2.835776e+00
1.174992e+01	-2.859885e+00
1.181779e+01	-2.884071e+00
1.188605e+01	-2.908264e+00
1.195470e+01	-2.932834e+00
1.202375e+01	-2.957428e+00
1.209320e+01	-2.982064e+00
1.216305e+01	-3.007307e+00
1.223330e+01	-3.032110e+00
1.230396e+01	-3.057421e+00
1.237503e+01	-3.082752e+00
1.244651e+01	-3.108382e+00
1.251840e+01	-3.133929e+00
1.259070e+01	-3.159856e+00
1.266343e+01	-3.185716e+00
1.273657e+01	-3.211847e+00
1.281014e+01	-3.237657e+00
1.288413e+01	-3.264308e+00
1.295855e+01	-3.290966e+00
1.303339e+01	-3.317379e+00
1.310867e+01	-3.344173e+00
1.318439e+01	-3.371232e+00
1.326054e+01	-3.398029e+00
1.333713e+01	-3.425563e+00
1.341417e+01	-3.452981e+00
1.349165e+01	-3.480475e+00
1.356958e+01	-3.507850e+00
1.364795e+01	-3.535619e+00
1.372678e+01	-3.563763e+00
1.380607e+01	-3.591746e+00
1.388581e+01	-3.619855e+00
1.396602e+01	-3.648257e+00
1.404668e+01	-3.676870e+00
1.412782e+01	-3.705462e+00
1.420942e+01	-3.734091e+00
1.429149e+01	-3.762962e+00
1.437404e+01	-3.792176e+00
1.445706e+01	-3.821540e+00
1.454057e+01	-3.850917e+00
1.462455e+01	-3.880174e+00
1.470902e+01	-3.909796e+00
1.479398e+01	-3.939632e+00
1.487943e+01	-3.969318e+00
1.496537e+01	-3.999542e+00
1.505181e+01	-4.029556e+00
1.513875e+01	-4.060164e+00
1.522619e+01	-4.090618e+00
1.531414e+01	-4.120961e+00
1.540259e+01	-4.151881e+00
1.549156e+01	-4.182609e+00
1.558103e+01	-4.213718e+00
1.567103e+01	-4.244855e+00
1.576155e+01	-4.276167e+00
1.585258e+01	-4.307665e+00
1.594415e+01	-4.338920e+00
1.603624e+01	-4.370774e+00
1.612886e+01	-4.402451e+00
1.622202e+01	-4.434644e+00
1.631572e+01	-4.466685e+00
1.640996e+01	-4.498792e+00
1.650474e+01	-4.530965e+00
1.660008e+01	-4.563456e+00
1.669596e+01	-4.596311e+00
1.679239e+01	-4.628903e+00
1.688938e+01	-4.661837e+00
1.698694e+01	-4.694695e+00
1.708505e+01	-4.727601e+00
1.718373e+01	-4.761242e+00
1.728299e+01	-4.794535e+00
1.738281e+01	-4.827580e+00
1.748322e+01	-4.861782e+00
1.758420e+01	-4.895516e+00
1.768576e+01	-4.929188e+00
1.778792e+01	-4.963336e+00
1.789066e+01	-4.997316e+00
1.799399e+01	-5.031642e+00
1.809793e+01	-5.066073e+00
1.820246e+01	-5.100524e+00
1.830760e+01	-5.135507e+00
1.841334e+01	-5.170063e+00
1.851969e+01	-5.204688e+00
1.862666e+01	-5.239620e+00
1.873425e+01	-5.274983e+00
1.884246e+01	-5.309989e+00
1.895129e+01	-5.345573e+00
1.906075e+01	-5.380760e+00
1.917085e+01	-5.416560e+00
1.928158e+01	-5.452114e+00
1.939295e+01	-5.487911e+00
1.950496e+01	-5.523683e+00
1.961762e+01	-5.560416e+00
1.973093e+01	-5.595901e+00
1.984490e+01	-5.632428e+00
1.995952e+01	-5.668897e+00
2.007480e+01	-5.705287e+00
2.019076e+01	-5.742267e+00
2.030738e+01	-5.778883e+00
2.042467e+01	-5.815847e+00
2.054264e+01	-5.852636e+00
2.066130e+01	-5.889831e+00
2.078064e+01	-5.926878e+00
2.090066e+01	-5.964328e+00
2.102139e+01	-6.001561e+00
2.114280e+01	-6.039236e+00
2.126492e+01	-6.076877e+00
2.138775e+01	-6.114480e+00
2.151128e+01	-6.152712e+00
2.163553e+01	-6.190106e+00
2.176050e+01	-6.228382e+00
2.188619e+01	-6.266604e+00
2.201260e+01	-6.304626e+00
2.213974e+01	-6.343326e+00
2.226762e+01	-6.381767e+00
2.239624e+01	-6.420258e+00
2.252560e+01	-6.458845e+00
2.265571e+01	-6.497702e+00
2.278656e+01	-6.536410e+00
2.291818e+01	-6.575429e+00
2.305055e+01	-6.614519e+00
2.318369e+01	-6.653732e+00
2.331760e+01	-6.693323e+00
2.345228e+01	-6.732610e+00
2.358774e+01	-6.772025e+00
2.372398e+01	-6.811271e+00
2.386101e+01	-6.850958e+00
2.399883e+01	-6.890725e+00
2.413745e+01	-6.930541e+00
2.427686e+01	-6.970672e+00
2.441709e+01	-7.011035e+00
2.455812e+01	-7.050397e+00
2.469997e+01	-7.090856e+00
2.484263e+01	-7.131134e+00
2.498612e+01	-7.171568e+00
2.513044e+01	-7.211805e+00
2.527559e+01	-7.252649e+00
2.542158e+01	-7.292861e+00
2.556842e+01	-7.333753e+00
2.571610e+01	-7.375154e+00
2.586463e+01	-7.415713e+00
2.601403e+01	-7.456421e+00
2.616428e+01	-7.497622e+00
2.631541e+01	-7.539188e+00
2.646740e+01	-7.579975e+00
2.662028e+01	-7.621897e+00
2.677404e+01	-7.662778e+00
2.692868e+01	-7.704524e+00
2.708422e+01	-7.745892e+00
2.724066e+01	-7.787820e+00
2.739800e+01	-7.829130e+00
2.755625e+01	-7.871426e+00
2.771541e+01	-7.913414e+00
2.787550e+01	-7.955192e+00
2.803650e+01	-7.997208e+00
2.819844e+01	-8.039172e+00
2.836131e+01	-8.081736e+00
2.852513e+01	-8.124105e+00
2.868989e+01	-8.166256e+00
2.885560e+01	-8.208844e+00
2.902227e+01	-8.251233e+00
2.918990e+01	-8.293764e+00
2.935850e+01	-8.336288e+00
2.952807e+01	-8.378789e+00
2.969863e+01	-8.421646e+00
2.987016e+01	-8.464651e+00
3.004269e+01	-8.507350e+00
3.021622e+01	-8.550339e+00
3.039075e+01	-8.594218e+00
3.056628e+01	-8.636958e+00
3.074283e+01	-8.680597e+00
3.092040e+01	-8.723722e+00
3.109900e+01	-8.766715e+00
3.127862e+01	-8.810290e+00
3.145929e+01	-8.853910e+00
3.164099e+01	-8.897391e+00
3.182375e+01	-8.940389e+00
3.200756e+01	-8.984448e+00
3.219244e+01	-9.028158e+00
3.237838e+01	-9.071719e+00
3.256540e+01	-9.115618e+00
3.275349e+01	-9.159970e+00
3.294268e+01	-9.203786e+00
3.313295e+01	-9.247736e+00
3.332433e+01	-9.292569e+00
3.351681e+01	-9.336000e+00
3.371040e+01	-9.379905e+00
3.390511e+01	-9.424995e+00
3.410094e+01	-9.469255e+00
3.429791e+01	-9.512980e+00
3.449601e+01	-9.557845e+00
3.469526e+01	-9.602313e+00
3.489566e+01	-9.647303e+00
3.509721e+01	-9.691358e+00
3.529993e+01	-9.736038e+00
3.550382e+01	-9.781035e+00
3.570889e+01	-9.825739e+00
3.591515e+01	-9.870685e+00
3.612259e+01	-9.915885e+00
3.633123e+01	-9.960670e+00
3.654108e+01	-1.000555e+01
3.675214e+01	-1.005088e+01
3.696442e+01	-1.009544e+01
3.717792e+01	-1.014074e+01
3.739266e+01	-1.018580e+01
3.760864e+01	-1.023132e+01
3.782587e+01	-1.027608e+01
3.804435e+01	-1.032235e+01
3.826409e+01	-1.036737e+01
3.848510e+01	-1.041249e+01
3.870739e+01	-1.045842e+01
3.893096e+01	-1.050345e+01
3.915583e+01	-1.054975e+01
3.938199e+01	-1.059502e+01
3.960946e+01	-1.064066e+01
3.983824e+01	-1.068683e+01
4.006834e+01	-1.073215e+01
4.029978e+01	-1.077814e+01
4.053255e+01	-1.082417e+01
4.076666e+01	-1.087008e+01
4.100213e+01	-1.091562e+01
4.123896e+01	-1.096227e+01
4.147715e+01	-1.100797e+01
4.171672e+01	-1.105369e+01
4.195767e+01	-1.110005e+01
4.220002e+01	-1.114657e+01
4.244377e+01	-1.119251e+01
4.268892e+01	-1.123932e+01
4.293549e+01	-1.128472e+01
4.318348e+01	-1.133153e+01
4.343291e+01	-1.137729e+01
4.368377e+01	-1.142409e+01
4.393609e+01	-1.147017e+01
4.418986e+01	-1.151642e+01
4.444510e+01	-1.156352e+01
4.470182e+01	-1.161028e+01
4.496001e+01	-1.165679e+01
4.521970e+01	-1.170308e+01
4.548089e+01	-1.174992e+01
4.574358e+01	-1.179628e+01
4.600779e+01	-1.184357e+01
4.627353e+01	-1.189034e+01
4.654081e+01	-1.193659e+01
4.680963e+01	-1.198362e+01
4.708000e+01	-1.203069e+01
4.735193e+01	-1.207731e+01
4.762543e+01	-1.212434e+01
4.790051e+01	-1.217083e+01
4.817719e+01	-1.221889e+01
4.845545e+01	-1.226540e+01
4.873533e+01	-1.231315e+01
4.901682e+01	-1.235978e+01
4.929994e+01	-1.240670e+01
4.958470e+01	-1.245360e+01
4.987110e+01	-1.250209e+01
5.015915e+01	-1.254796e+01
5.044887e+01	-1.259566e+01
5.074026e+01	-1.264311e+01
5.103333e+01	-1.268979e+01
5.132810e+01	-1.273748e+01
5.162457e+01	-1.278466e+01
5.192275e+01	-1.283230e+01
5.222265e+01	-1.287961e+01
5.252429e+01	-1.292722e+01
5.282767e+01	-1.297496e+01
5.313280e+01	-1.302287e+01
5.343969e+01	-1.306999e+01
5.374836e+01	-1.311677e+01
5.405880e+01	-1.316520e+01
5.437105e+01	-1.321282e+01
5.468509e+01	-1.326097e+01
5.500095e+01	-1.330731e+01
5.531863e+01	-1.335576e+01
5.563815e+01	-1.340362e+01
5.595951e+01	-1.345073e+01
5.628273e+01	-1.349867e+01
5.660782e+01	-1.354729e+01
5.693479e+01	-1.359424e+01
5.726364e+01	-1.364265e+01
5.759439e+01	-1.368992e+01
5.792705e+01	-1.373786e+01
5.826164e+01	-1.378593e+01
5.859815e+01	-1.383417e+01
5.893662e+01	-1.388198e+01
5.927703e+01	-1.392984e+01
5.961941e+01	-1.397829e+01
5.996377e+01	-1.402603e+01
6.031012e+01	-1.407428e+01
6.065847e+01	-1.412243e+01
6.100883e+01	-1.417038e+01
6.136121e+01	-1.421829e+01
6.171563e+01	-1.426629e+01
6.207210e+01	-1.431505e+01
6.243063e+01	-1.436241e+01
6.279122e+01	-1.441125e+01
6.315390e+01	-1.445920e+01
6.351868e+01	-1.450794e+01
6.388556e+01	-1.455546e+01
6.425456e+01	-1.460425e+01
6.462569e+01	-1.465248e+01
6.499897e+01	-1.470186e+01
6.537440e+01	-1.474876e+01
6.575200e+01	-1.479764e+01
6.613178e+01	-1.484586e+01
6.651375e+01	-1.489381e+01
6.689793e+01	-1.494262e+01
6.728433e+01	-1.499070e+01
6.767297e+01	-1.503908e+01
6.806384e+01	-1.508764e+01
6.845698e+01	-1.513673e+01
6.885238e+01	-1.518461e+01
6.925007e+01	-1.523271e+01
6.965005e+01	-1.528096e+01
7.005235e+01	-1.533105e+01
7.045697e+01	-1.537951e+01
7.086393e+01	-1.542769e+01
7.127323e+01	-1.547647e+01
7.168490e+01	-1.552522e+01
7.209895e+01	-1.557277e+01
7.251539e+01	-1.562243e+01
7.293424e+01	-1.567058e+01
7.335551e+01	-1.571932e+01
7.377920e+01	-1.576926e+01
7.420535e+01	-1.581712e+01
7.463396e+01	-1.586496e+01
7.506504e+01	-1.591408e+01
7.549861e+01	-1.596317e+01
7.593469e+01	-1.601160e+01
7.637328e+01	-1.606089e+01
7.681441e+01	-1.611062e+01
7.725809e+01	-1.615819e+01
7.770433e+01	-1.620700e+01
7.815315e+01	-1.625498e+01
7.860456e+01	-1.630614e+01
7.905857e+01	-1.635423e+01
7.951521e+01	-1.640255e+01
7.997449e+01	-1.645119e+01
8.043642e+01	-1.650106e+01
8.090102e+01	-1.654957e+01
8.136830e+01	-1.659777e+01
8.183828e+01	-1.664834e+01
8.231097e+01	-1.669698e+01
8.278640e+01	-1.674413e+01
8.326457e+01	-1.679300e+01
8.374550e+01	-1.684352e+01
8.422921e+01	-1.689140e+01
8.471572e+01	-1.694058e+01
8.520503e+01	-1.699013e+01
8.569717e+01	-1.704001e+01
8.619215e+01	-1.708859e+01
8.669000e+01	-1.713704e+01
8.719071e+01	-1.718539e+01
8.769432e+01	-1.723519e+01
8.820084e+01	-1.728480e+01
8.871029e+01	-1.733449e+01
8.922267e+01	-1.738246e+01
8.973802e+01	-1.743192e+01
9.025634e+01	-1.748120e+01
9.077766e+01	-1.752967e+01
9.130199e+01	-1.757969e+01
9.182935e+01	-1.762765e+01
9.235975e+01	-1.767702e+01
9.289321e+01	-1.772669e+01
9.342976e+01	-1.777680e+01
9.396941e+01	-1.782531e+01
9.451217e+01	-1.787461e+01
9.505807e+01	-1.792261e+01
9.560712e+01	-1.797412e+01
9.615934e+01	-1.802256e+01
9.671476e+01	-1.807120e+01
9.727338e+01	-1.812072e+01
9.783522e+01	-1.816959e+01
9.840032e+01	-1.821921e+01
9.896867e+01	-1.826858e+01
9.954031e+01	-1.831650e+01
1.001153e+02	-1.836631e+01
1.006935e+02	-1.841595e+01
1.012751e+02	-1.846591e+01
1.018601e+02	-1.851534e+01
1.024484e+02	-1.856605e+01
1.030402e+02	-1.861457e+01
1.036353e+02	-1.866346e+01
1.042339e+02	-1.871277e+01
1.048360e+02	-1.876179e+01
1.054415e+02	-1.881096e+01
1.060505e+02	-1.886001e+01
1.066631e+02	-1.891007e+01
1.072791e+02	-1.896030e+01
1.078988e+02	-1.900980e+01
1.085220e+02	-1.905861e+01
1.091488e+02	-1.910709e+01
1.097793e+02	-1.915707e+01
1.104133e+02	-1.920606e+01
1.110511e+02	-1.925580e+01
1.116925e+02	-1.930469e+01
1.123376e+02	-1.935729e+01
1.129865e+02	-1.940489e+01
1.136391e+02	-1.945315e+01
1.142955e+02	-1.950335e+01
1.149556e+02	-1.955341e+01
1.156196e+02	-1.960231e+01
1.162874e+02	-1.965144e+01
1.169591e+02	-1.970164e+01
1.176347e+02	-1.975089e+01
1.183141e+02	-1.980099e+01
1.189975e+02	-1.985119e+01
1.196848e+02	-1.989841e+01
1.203761e+02	-1.994917e+01
1.210714e+02	-1.999788e+01
1.217707e+02	-2.004811e+01
1.224740e+02	-2.009716e+01
1.231814e+02	-2.014701e+01
1.238929e+02	-2.019719e+01
1.246085e+02	-2.024594e+01
1.253283e+02	-2.029732e+01
1.260522e+02	-2.034584e+01
1.267802e+02	-2.039483e+01
1.275125e+02	-2.044384e+01
1.282490e+02	-2.049458e+01
1.289898e+02	-2.054435e+01
1.297348e+02	-2.059160e+01
1.304842e+02	-2.064365e+01
1.312378e+02	-2.069482e+01
1.319959e+02	-2.074127e+01
1.327583e+02	-2.079228e+01
1.335251e+02	-2.084056e+01
1.342963e+02	-2.089027e+01
1.350720e+02	-2.094152e+01
1.358522e+02	-2.099134e+01
1.366368e+02	-2.103953e+01
1.374260e+02	-2.108890e+01
1.382198e+02	-2.113742e+01
1.390182e+02	-2.118903e+01
1.398211e+02	-2.123931e+01
1.406287e+02	-2.128689e+01
1.414410e+02	-2.133670e+01
1.422579e+02	-2.138856e+01
1.430796e+02	-2.143613e+01
1.439060e+02	-2.148765e+01
1.447372e+02	-2.153539e+01
1.455732e+02	-2.158692e+01
1.464141e+02	-2.163464e+01
1.472597e+02	-2.168646e+01
1.481103e+02	-2.173515e+01
1.489658e+02	-2.178418e+01
1.498262e+02	-2.183544e+01
1.506916e+02	-2.188605e+01
1.515620e+02	-2.193466e+01
1.524374e+02	-2.198456e+01
1.533179e+02	-2.203415e+01
1.542034e+02	-2.208170e+01
1.550941e+02	-2.213227e+01
1.559899e+02	-2.218026e+01
1.568909e+02	-2.223111e+01
1.577971e+02	-2.228032e+01
1.587085e+02	-2.233086e+01
1.596252e+02	-2.238269e+01
1.605472e+02	-2.243333e+01
1.614745e+02	-2.248101e+01
1.624072e+02	-2.253276e+01
1.633453e+02	-2.258061e+01
1.642887e+02	-2.262816e+01
1.652377e+02	-2.268019e+01
1.661921e+02	-2.273067e+01
1.671520e+02	-2.277724e+01
1.681175e+02	-2.283202e+01
1.690885e+02	-2.287901e+01
1.700651e+02	-2.292859e+01
1.710474e+02	-2.297877e+01
1.720354e+02	-2.302984e+01
1.730291e+02	-2.307786e+01
1.740285e+02	-2.312952e+01
1.750337e+02	-2.317859e+01
1.760446e+02	-2.322746e+01
1.770615e+02	-2.327770e+01
1.780842e+02	-2.332776e+01
1.791128e+02	-2.337806e+01
1.801473e+02	-2.342931e+01
1.811878e+02	-2.347857e+01
1.822344e+02	-2.352654e+01
1.832870e+02	-2.357600e+01
1.843456e+02	-2.362719e+01
1.854104e+02	-2.367730e+01
1.864813e+02	-2.372697e+01
1.875584e+02	-2.377595e+01
1.886418e+02	-2.382614e+01
1.897313e+02	-2.387653e+01
1.908272e+02	-2.392675e+01
1.919294e+02	-2.397477e+01
1.930380e+02	-2.402668e+01
1.941530e+02	-2.407449e+01
1.952744e+02	-2.412526e+01
1.964023e+02	-2.417304e+01
1.975367e+02	-2.422227e+01
1.986777e+02	-2.427441e+01
1.998252e+02	-2.432566e+01
2.009794e+02	-2.437421e+01
2.021403e+02	-2.442428e+01
2.033078e+02	-2.447590e+01
2.044821e+02	-2.452486e+01
2.056632e+02	-2.457207e+01
2.068511e+02	-2.462376e+01
2.080459e+02	-2.467286e+01
2.092475e+02	-2.472483e+01
2.104561e+02	-2.477389e+01
2.116717e+02	-2.482155e+01
2.128943e+02	-2.487280e+01
2.141240e+02	-2.492074e+01
2.153608e+02	-2.497322e+01
2.166047e+02	-2.502282e+01
2.178558e+02	-2.507430e+01
2.191141e+02	-2.512233e+01
2.203797e+02	-2.517334e+01
2.216526e+02	-2.522405e+01
2.229329e+02	-2.526995e+01
2.242205e+02	-2.532257e+01
2.255156e+02	-2.537195e+01
2.268182e+02	-2.542139e+01
2.281283e+02	-2.547218e+01
2.294459e+02	-2.552329e+01
2.307712e+02	-2.557148e+01
2.321041e+02	-2.562258e+01
2.334447e+02	-2.567319e+01
2.347931e+02	-2.572100e+01
2.361493e+02	-2.576880e+01
2.375133e+02	-2.582298e+01
2.388851e+02	-2.587176e+01
2.402649e+02	-2.592543e+01
2.416527e+02	-2.597202e+01
2.430484e+02	-2.602162e+01
2.444523e+02	-2.607149e+01
2.458642e+02	-2.612235e+01
2.472843e+02	-2.617258e+01
2.487126e+02	-2.621809e+01
2.501492e+02	-2.627072e+01
2.515940e+02	-2.631983e+01
2.530472e+02	-2.637036e+01
2.545088e+02	-2.642172e+01
2.559789e+02	-2.647373e+01
2.574574e+02	-2.652433e+01
2.589444e+02	-2.657150e+01
2.604401e+02	-2.662490e+01
2.619444e+02	-2.667384e+01
2.634574e+02	-2.671957e+01
2.649791e+02	-2.676940e+01
2.665096e+02	-2.681782e+01
2.680489e+02	-2.686758e+01
2.695972e+02	-2.692154e+01
2.711544e+02	-2.697198e+01
2.727205e+02	-2.702188e+01
2.742958e+02	-2.707078e+01
2.758801e+02	-2.712001e+01
2.774736e+02	-2.717004e+01
2.790762e+02	-2.722175e+01
2.806882e+02	-2.727267e+01
2.823094e+02	-2.732192e+01
2.839400e+02	-2.737239e+01
2.855800e+02	-2.742173e+01
2.872295e+02	-2.747149e+01
2.888886e+02	-2.752511e+01
2.905572e+02	-2.756835e+01
2.922354e+02	-2.762169e+01
2.939234e+02	-2.767229e+01
2.956211e+02	-2.771977e+01
2.973286e+02	-2.777243e+01
2.990459e+02	-2.782468e+01
3.007732e+02	-2.787577e+01
3.025104e+02	-2.792367e+01
3.042577e+02	-2.797364e+01
3.060151e+02	-2.801863e+01
3.077826e+02	-2.807102e+01
3.095604e+02	-2.812703e+01
3.113484e+02	-2.817301e+01
3.131467e+02	-2.822369e+01
3.149554e+02	-2.826881e+01
3.167746e+02	-2.832333e+01
3.186043e+02	-2.836980e+01
3.204445e+02	-2.842058e+01
3.222954e+02	-2.847677e+01
3.241570e+02	-2.852046e+01
3.260293e+02	-2.857281e+01
3.279124e+02	-2.862401e+01
3.298064e+02	-2.867182e+01
3.317114e+02	-2.872290e+01
3.336273e+02	-2.877124e+01
3.355544e+02	-2.882167e+01
3.374925e+02	-2.887447e+01
3.394418e+02	-2.891995e+01
3.414024e+02	-2.897073e+01
3.433744e+02	-2.901684e+01
3.453577e+02	-2.906877e+01
3.473525e+02	-2.912235e+01
3.493588e+02	-2.917372e+01
3.513766e+02	-2.922159e+01
3.534062e+02	-2.927333e+01
3.554474e+02	-2.932047e+01
3.575005e+02	-2.937690e+01
3.595654e+02	-2.942291e+01
3.616422e+02	-2.946974e+01
3.637311e+02	-2.952091e+01
3.658320e+02	-2.957386e+01
3.679450e+02	-2.962105e+01
3.700702e+02	-2.967502e+01
3.722077e+02	-2.972580e+01
3.743576e+02	-2.976914e+01
3.765199e+02	-2.982365e+01
3.786946e+02	-2.987625e+01
3.808820e+02	-2.992577e+01
3.830819e+02	-2.997584e+01
3.852946e+02	-3.002854e+01
3.875200e+02	-3.007653e+01
3.897583e+02	-3.012288e+01
3.920096e+02	-3.017306e+01
3.942738e+02	-3.021733e+01
3.965511e+02	-3.027229e+01
3.988416e+02	-3.032431e+01
4.011452e+02	-3.036989e+01
4.034622e+02	-3.042776e+01
4.057926e+02	-3.047896e+01
4.081365e+02	-3.052329e+01
4.104938e+02	-3.057371e+01
4.128648e+02	-3.062447e+01
4.152495e+02	-3.067969e+01
4.176480e+02	-3.072636e+01
4.200603e+02	-3.077332e+01
4.224866e+02	-3.082594e+01
4.249268e+02	-3.087517e+01
4.273812e+02	-3.092918e+01
4.298497e+02	-3.097267e+01
4.323325e+02	-3.102315e+01
4.348297e+02	-3.107109e+01
4.373412e+02	-3.112820e+01
4.398673e+02	-3.117502e+01
4.424079e+02	-3.122695e+01
4.449633e+02	-3.127427e+01
4.475334e+02	-3.132741e+01
4.501183e+02	-3.138282e+01
4.527182e+02	-3.142526e+01
4.553330e+02	-3.147585e+01
4.579630e+02	-3.153448e+01
4.606082e+02	-3.158072e+01
4.632687e+02	-3.163349e+01
4.659445e+02	-3.167770e+01
4.686358e+02	-3.173155e+01
4.713426e+02	-3.178069e+01
4.740650e+02	-3.182742e+01
4.768032e+02	-3.188025e+01
4.795572e+02	-3.192865e+01
4.823271e+02	-3.197916e+01
4.851130e+02	-3.203200e+01
4.879150e+02	-3.208461e+01
4.907332e+02	-3.212589e+01
4.935676e+02	-3.217892e+01
4.964185e+02	-3.223107e+01
4.992858e+02	-3.228591e+01
5.021696e+02	-3.233023e+01
5.050701e+02	-3.238091e+01
5.079874e+02	-3.243456e+01
5.109215e+02	-3.247688e+01
5.138726e+02	-3.252709e+01
5.168407e+02	-3.258386e+01
5.198259e+02	-3.263210e+01
5.228284e+02	-3.268302e+01
5.258482e+02	-3.273006e+01
5.288855e+02	-3.277645e+01
5.319403e+02	-3.283274e+01
5.350128e+02	-3.287609e+01
5.381030e+02	-3.293295e+01
5.412111e+02	-3.298546e+01
5.443371e+02	-3.303331e+01
5.474812e+02	-3.308156e+01
5.506434e+02	-3.314171e+01
5.538239e+02	-3.318100e+01
5.570228e+02	-3.324873e+01
5.602401e+02	-3.328696e+01
5.634760e+02	-3.333490e+01
5.667306e+02	-3.338758e+01
5.700040e+02	-3.343917e+01
5.732964e+02	-3.347977e+01
5.766077e+02	-3.353934e+01
5.799382e+02	-3.358832e+01
5.832879e+02	-3.363526e+01
5.866569e+02	-3.369596e+01
5.900454e+02	-3.373443e+01
5.934535e+02	-3.378624e+01
5.968813e+02	-3.383295e+01
6.003288e+02	-3.388840e+01
6.037963e+02	-3.393476e+01
6.072838e+02	-3.398389e+01
6.107914e+02	-3.403669e+01
6.143194e+02	-3.407978e+01
6.178676e+02	-3.413591e+01
6.214364e+02	-3.419611e+01
6.250258e+02	-3.424274e+01
6.286359e+02	-3.429289e+01
6.322669e+02	-3.433827e+01
6.359189e+02	-3.439207e+01
6.395919e+02	-3.444719e+01
6.432862e+02	-3.449196e+01
6.470017e+02	-3.454476e+01
6.507388e+02	-3.459573e+01
6.544974e+02	-3.464268e+01
6.582778e+02	-3.470015e+01
6.620800e+02	-3.474144e+01
6.659041e+02	-3.478636e+01
6.697504e+02	-3.484947e+01
6.736188e+02	-3.489155e+01
6.775096e+02	-3.493971e+01
6.814229e+02	-3.499447e+01
6.853587e+02	-3.503985e+01
6.893173e+02	-3.509163e+01
6.932988e+02	-3.515031e+01
6.973033e+02	-3.519417e+01
7.013309e+02	-3.523867e+01
