Frequency(Hz)	Magnitude(dB)
1.000000e+01	-2.203578e+00
1.005776e+01	-2.223569e+00
1.011585e+01	-2.243522e+00
1.017428e+01	-2.263819e+00
1.023305e+01	-2.284180e+00
1.029215e+01	-2.304805e+00
1.035160e+01	-2.325361e+00
1.041139e+01	-2.346451e+00
1.047153e+01	-2.367131e+00
1.053201e+01	-2.388414e+00
1.059284e+01	-2.409433e+00
1.065403e+01	-2.430905e+00
1.071556e+01	-2.452348e+00
1.077746e+01	-2.474194e+00
1.083971e+01	-2.495892e+00
1.090232e+01	-2.517870e+00
1.096529e+01	-2.539765e+00
1.102862e+01	-2.562011e+00
1.109232e+01	-2.584443e+00
1.115639e+01	-2.607128e+00
1.122083e+01	-2.629547e+00
1.128564e+01	-2.652367e+00
1.135083e+01	-2.675418e+00
1.141639e+01	-2.698418e+00
1.148233e+01	-2.721604e+00
1.154865e+01	-2.745079e+00
1.161536e+01	-2.768219e+00
1.168245e+01	-2.792277e+00
1.174992e+01	-2.815911e+00
1.181779e+01	-2.840060e+00
1.188605e+01	-2.863748e+00
1.195470e+01	-2.888304e+00
1.202375e+01	-2.912521e+00
1.209320e+01	-2.936997e+00
1.216305e+01	-2.961611e+00
1.223330e+01	-2.986461e+00
1.230396e+01	-3.011488e+00
1.237503e+01	-3.036729e+00
1.244651e+01	-3.061837e+00
1.251840e+01	-3.087291e+00
1.259070e+01	-3.112709e+00
1.266343e+01	-3.138567e+00
1.273657e+01	-3.164321e+00
1.281014e+01	-3.190458e+00
1.288413e+01	-3.216414e+00
1.295855e+01	-3.242685e+00
1.303339e+01	-3.268975e+00
1.310867e+01	-3.295283e+00
1.318439e+01	-3.322155e+00
1.326054e+01	-3.348829e+00
1.333713e+01	-3.376121e+00
1.341417e+01	-3.403079e+00
1.349165e+01	-3.430237e+00
1.356958e+01	-3.457839e+00
1.364795e+01	-3.485024e+00
1.372678e+01	-3.512840e+00
1.380607e+01	-3.540658e+00
1.388581e+01	-3.568852e+00
1.396602e+01	-3.596810e+00
1.404668e+01	-3.624841e+00
1.412782e+01	-3.653177e+00
1.420942e+01	-3.681603e+00
1.429149e+01	-3.710504e+00
1.437404e+01	-3.739438e+00
1.445706e+01	-3.768118e+00
1.454057e+01	-3.797556e+00
1.462455e+01	-3.826815e+00
1.470902e+01	-3.855988e+00
1.479398e+01	-3.885553e+00
1.487943e+01	-3.914957e+00
1.496537e+01	-3.944807e+00
1.505181e+01	-3.974934e+00
1.513875e+01	-4.005113e+00
1.522619e+01	-4.034816e+00
1.531414e+01	-4.065484e+00
1.540259e+01	-4.095904e+00
1.549156e+01	-4.126410e+00
1.558103e+01	-4.157242e+00
1.567103e+01	-4.188325e+00
1.576155e+01	-4.219327e+00
1.585258e+01	-4.250451e+00
1.594415e+01	-4.281490e+00
1.603624e+01	-4.312811e+00
1.612886e+01	-4.344838e+00
1.622202e+01	-4.376006e+00
1.631572e+01	-4.408055e+00
1.640996e+01	-4.440174e+00
1.650474e+01	-4.472297e+00
1.660008e+01	-4.504750e+00
1.669596e+01	-4.536716e+00
1.679239e+01	-4.569309e+00
1.688938e+01	-4.601855e+00
1.698694e+01	-4.634758e+00
1.708505e+01	-4.667579e+00
1.718373e+01	-4.700778e+00
1.728299e+01	-4.733875e+00
1.738281e+01	-4.767134e+00
1.748322e+01	-4.800330e+00
1.758420e+01	-4.833848e+00
1.768576e+01	-4.867518e+00
1.778792e+01	-4.901209e+00
1.789066e+01	-4.935225e+00
1.799399e+01	-4.969262e+00
1.809793e+01	-5.003203e+00
1.820246e+01	-5.037581e+00
1.830760e+01	-5.071961e+00
1.841334e+01	-5.106513e+00
1.851969e+01	-5.141121e+00
1.862666e+01	-5.176144e+00
1.873425e+01	-5.211010e+00
1.884246e+01	-5.246084e+00
1.895129e+01	-5.281214e+00
1.906075e+01	-5.316180e+00
1.917085e+01	-5.352085e+00
1.928158e+01	-5.387030e+00
1.939295e+01	-5.422608e+00
1.950496e+01	-5.458288e+00
1.961762e+01	-5.494359e+00
1.973093e+01	-5.530344e+00
1.984490e+01	-5.566600e+00
1.995952e+01	-5.602663e+00
2.007480e+01	-5.639163e+00
2.019076e+01	-5.675448e+00
2.030738e+01	-5.711880e+00
2.042467e+01	-5.748679e+00
2.054264e+01	-5.785585e+00
2.066130e+01	-5.822303e+00
2.078064e+01	-5.859498e+00
2.090066e+01	-5.896289e+00
2.102139e+01	-5.933650e+00
2.114280e+01	-5.971202e+00
2.126492e+01	-6.008700e+00
2.138775e+01	-6.045926e+00
2.151128e+01	-6.083659e+00
2.163553e+01	-6.121203e+00
2.176050e+01	-6.159292e+00
2.188619e+01	-6.196902e+00
2.201260e+01	-6.235150e+00
2.213974e+01	-6.273308e+00
2.226762e+01	-6.311610e+00
2.239624e+01	-6.350021e+00
2.252560e+01	-6.387995e+00
2.265571e+01	-6.426834e+00
2.278656e+01	-6.465627e+00
2.291818e+01	-6.504441e+00
2.305055e+01	-6.543661e+00
2.318369e+01	-6.582133e+00
2.331760e+01	-6.621605e+00
2.345228e+01	-6.660532e+00
2.358774e+01	-6.699810e+00
2.372398e+01	-6.739290e+00
2.386101e+01	-6.779027e+00
2.399883e+01	-6.818381e+00
2.413745e+01	-6.858283e+00
2.427686e+01	-6.897825e+00
2.441709e+01	-6.937559e+00
2.455812e+01	-6.977566e+00
2.469997e+01	-7.017488e+00
2.484263e+01	-7.058003e+00
2.498612e+01	-7.098004e+00
2.513044e+01	-7.138407e+00
2.527559e+01	-7.178790e+00
2.542158e+01	-7.219076e+00
2.556842e+01	-7.259569e+00
2.571610e+01	-7.300514e+00
2.586463e+01	-7.341388e+00
2.601403e+01	-7.381990e+00
2.616428e+01	-7.422866e+00
2.631541e+01	-7.464328e+00
2.646740e+01	-7.504879e+00
2.662028e+01	-7.546167e+00
2.677404e+01	-7.587509e+00
2.692868e+01	-7.628684e+00
2.708422e+01	-7.670163e+00
2.724066e+01	-7.711819e+00
2.739800e+01	-7.753217e+00
2.755625e+01	-7.794920e+00
2.771541e+01	-7.837096e+00
2.787550e+01	-7.878918e+00
2.803650e+01	-7.920553e+00
2.819844e+01	-7.962371e+00
2.836131e+01	-8.004625e+00
2.852513e+01	-8.046747e+00
2.868989e+01	-8.089225e+00
2.885560e+01	-8.131467e+00
2.902227e+01	-8.173942e+00
2.918990e+01	-8.216051e+00
2.935850e+01	-8.258797e+00
2.952807e+01	-8.300793e+00
2.969863e+01	-8.343719e+00
2.987016e+01	-8.385967e+00
3.004269e+01	-8.429189e+00
3.021622e+01	-8.472265e+00
3.039075e+01	-8.515294e+00
3.056628e+01	-8.558198e+00
3.074283e+01	-8.601440e+00
3.092040e+01	-8.644296e+00
3.109900e+01	-8.687875e+00
3.127862e+01	-8.730897e+00
3.145929e+01	-8.774400e+00
3.164099e+01	-8.817694e+00
3.182375e+01	-8.861102e+00
3.200756e+01	-8.904954e+00
3.219244e+01	-8.948538e+00
3.237838e+01	-8.992419e+00
3.256540e+01	-9.036215e+00
3.275349e+01	-9.080094e+00
3.294268e+01	-9.123417e+00
3.313295e+01	-9.167761e+00
3.332433e+01	-9.211612e+00
3.351681e+01	-9.254984e+00
3.371040e+01	-9.299337e+00
3.390511e+01	-9.344033e+00
3.410094e+01	-9.387816e+00
3.429791e+01	-9.432644e+00
3.449601e+01	-9.477113e+00
3.469526e+01	-9.521219e+00
3.489566e+01	-9.565692e+00
3.509721e+01	-9.609682e+00
3.529993e+01	-9.654848e+00
3.550382e+01	-9.699165e+00
3.570889e+01	-9.744578e+00
3.591515e+01	-9.788627e+00
3.612259e+01	-9.833844e+00
3.633123e+01	-9.878023e+00
3.654108e+01	-9.923045e+00
3.675214e+01	-9.967971e+00
3.696442e+01	-1.001260e+01
3.717792e+01	-1.005813e+01
3.739266e+01	-1.010380e+01
3.760864e+01	-1.014885e+01
3.782587e+01	-1.019407e+01
3.804435e+01	-1.023934e+01
3.826409e+01	-1.028465e+01
3.848510e+01	-1.033005e+01
3.870739e+01	-1.037523e+01
3.893096e+01	-1.042090e+01
3.915583e+01	-1.046596e+01
3.938199e+01	-1.051176e+01
3.960946e+01	-1.055704e+01
3.983824e+01	-1.060311e+01
4.006834e+01	-1.064888e+01
4.029978e+01	-1.069441e+01
4.053255e+01	-1.074028e+01
4.076666e+01	-1.078587e+01
4.100213e+01	-1.083200e+01
4.123896e+01	-1.087818e+01
4.147715e+01	-1.092415e+01
4.171672e+01	-1.097085e+01
4.195767e+01	-1.101632e+01
4.220002e+01	-1.106195e+01
4.244377e+01	-1.110768e+01
4.268892e+01	-1.115408e+01
4.293549e+01	-1.120037e+01
4.318348e+01	-1.124660e+01
4.343291e+01	-1.129288e+01
4.368377e+01	-1.133938e+01
4.393609e+01	-1.138557e+01
4.418986e+01	-1.143239e+01
4.444510e+01	-1.147830e+01
4.470182e+01	-1.152492e+01
4.496001e+01	-1.157197e+01
4.521970e+01	-1.161787e+01
4.548089e+01	-1.166495e+01
4.574358e+01	-1.171149e+01
4.600779e+01	-1.175758e+01
4.627353e+01	-1.180486e+01
4.654081e+01	-1.185190e+01
4.680963e+01	-1.189801e+01
4.708000e+01	-1.194540e+01
4.735193e+01	-1.199208e+01
4.762543e+01	-1.203948e+01
4.790051e+01	-1.208526e+01
4.817719e+01	-1.213291e+01
4.845545e+01	-1.217955e+01
4.873533e+01	-1.222673e+01
4.901682e+01	-1.227348e+01
4.929994e+01	-1.232029e+01
4.958470e+01	-1.236842e+01
4.987110e+01	-1.241449e+01
5.015915e+01	-1.246244e+01
5.044887e+01	-1.250899e+01
5.074026e+01	-1.255668e+01
5.103333e+01	-1.260458e+01
5.132810e+01	-1.265108e+01
5.162457e+01	-1.269896e+01
5.192275e+01	-1.274610e+01
5.222265e+01	-1.279330e+01
5.252429e+01	-1.284124e+01
5.282767e+01	-1.288856e+01
5.313280e+01	-1.293574e+01
5.343969e+01	-1.298207e+01
5.374836e+01	-1.303057e+01
5.405880e+01	-1.307845e+01
5.437105e+01	-1.312603e+01
5.468509e+01	-1.317449e+01
5.500095e+01	-1.322173e+01
5.531863e+01	-1.326929e+01
5.563815e+01	-1.331676e+01
5.595951e+01	-1.336454e+01
5.628273e+01	-1.341193e+01
5.660782e+01	-1.345985e+01
5.693479e+01	-1.350670e+01
5.726364e+01	-1.355553e+01
5.759439e+01	-1.360263e+01
5.792705e+01	-1.365133e+01
5.826164e+01	-1.369856e+01
5.859815e+01	-1.374629e+01
5.893662e+01	-1.379513e+01
5.927703e+01	-1.384264e+01
5.961941e+01	-1.389027e+01
5.996377e+01	-1.393902e+01
6.031012e+01	-1.398691e+01
6.065847e+01	-1.403453e+01
6.100883e+01	-1.408386e+01
6.136121e+01	-1.413115e+01
6.171563e+01	-1.417868e+01
6.207210e+01	-1.422708e+01
6.243063e+01	-1.427446e+01
6.279122e+01	-1.432385e+01
6.315390e+01	-1.437192e+01
6.351868e+01	-1.441909e+01
6.388556e+01	-1.446790e+01
6.425456e+01	-1.451563e+01
6.462569e+01	-1.456453e+01
6.499897e+01	-1.461280e+01
6.537440e+01	-1.466121e+01
6.575200e+01	-1.470961e+01
6.613178e+01	-1.475701e+01
6.651375e+01	-1.480565e+01
6.689793e+01	-1.485522e+01
6.728433e+01	-1.490187e+01
6.767297e+01	-1.495223e+01
6.806384e+01	-1.499954e+01
6.845698e+01	-1.504902e+01
6.885238e+01	-1.509740e+01
6.925007e+01	-1.514584e+01
6.965005e+01	-1.519332e+01
7.005235e+01	-1.524265e+01
7.045697e+01	-1.529041e+01
7.086393e+01	-1.533810e+01
7.127323e+01	-1.538849e+01
7.168490e+01	-1.543704e+01
7.209895e+01	-1.548553e+01
7.251539e+01	-1.553349e+01
7.293424e+01	-1.558188e+01
7.335551e+01	-1.563165e+01
7.377920e+01	-1.567999e+01
7.420535e+01	-1.572772e+01
7.463396e+01	-1.577738e+01
7.506504e+01	-1.582581e+01
7.549861e+01	-1.587394e+01
7.593469e+01	-1.592299e+01
7.637328e+01	-1.597191e+01
7.681441e+01	-1.601983e+01
7.725809e+01	-1.606932e+01
7.770433e+01	-1.611900e+01
7.815315e+01	-1.616763e+01
7.860456e+01	-1.621587e+01
7.905857e+01	-1.626443e+01
7.951521e+01	-1.631290e+01
7.997449e+01	-1.636323e+01
8.043642e+01	-1.641131e+01
8.090102e+01	-1.646058e+01
8.136830e+01	-1.650853e+01
8.183828e+01	-1.655901e+01
8.231097e+01	-1.660848e+01
8.278640e+01	-1.665649e+01
8.326457e+01	-1.670604e+01
8.374550e+01	-1.675431e+01
8.422921e+01	-1.680334e+01
8.471572e+01	-1.685163e+01
8.520503e+01	-1.689973e+01
8.569717e+01	-1.694961e+01
8.619215e+01	-1.699950e+01
8.669000e+01	-1.704852e+01
8.719071e+01	-1.709728e+01
8.769432e+01	-1.714559e+01
8.820084e+01	-1.719699e+01
8.871029e+01	-1.724544e+01
8.922267e+01	-1.729300e+01
8.973802e+01	-1.734153e+01
9.025634e+01	-1.739251e+01
9.077766e+01	-1.744113e+01
9.130199e+01	-1.748971e+01
9.182935e+01	-1.753792e+01
9.235975e+01	-1.758749e+01
9.289321e+01	-1.763694e+01
9.342976e+01	-1.768609e+01
9.396941e+01	-1.773552e+01
9.451217e+01	-1.778567e+01
9.505807e+01	-1.783421e+01
9.560712e+01	-1.788419e+01
9.615934e+01	-1.793288e+01
9.671476e+01	-1.798305e+01
9.727338e+01	-1.803145e+01
9.783522e+01	-1.808079e+01
9.840032e+01	-1.812952e+01
9.896867e+01	-1.817858e+01
9.954031e+01	-1.822847e+01
1.001153e+02	-1.827675e+01
1.006935e+02	-1.832618e+01
1.012751e+02	-1.837648e+01
1.018601e+02	-1.842563e+01
1.024484e+02	-1.847410e+01
1.030402e+02	-1.852358e+01
1.036353e+02	-1.857245e+01
1.042339e+02	-1.862230e+01
1.048360e+02	-1.867098e+01
1.054415e+02	-1.872028e+01
1.060505e+02	-1.876931e+01
1.066631e+02	-1.882062e+01
1.072791e+02	-1.886886e+01
1.078988e+02	-1.891862e+01
1.085220e+02	-1.896805e+01
1.091488e+02	-1.901823e+01
1.097793e+02	-1.906636e+01
1.104133e+02	-1.911427e+01
1.110511e+02	-1.916686e+01
1.116925e+02	-1.921496e+01
1.123376e+02	-1.926256e+01
1.129865e+02	-1.931464e+01
1.136391e+02	-1.936377e+01
1.142955e+02	-1.941257e+01
1.149556e+02	-1.946288e+01
1.156196e+02	-1.951102e+01
1.162874e+02	-1.956096e+01
1.169591e+02	-1.961230e+01
1.176347e+02	-1.966175e+01
1.183141e+02	-1.970918e+01
1.189975e+02	-1.975997e+01
1.196848e+02	-1.980925e+01
1.203761e+02	-1.985893e+01
1.210714e+02	-1.990831e+01
1.217707e+02	-1.995777e+01
1.224740e+02	-2.000790e+01
1.231814e+02	-2.005668e+01
1.238929e+02	-2.010568e+01
1.246085e+02	-2.015491e+01
1.253283e+02	-2.020557e+01
1.260522e+02	-2.025378e+01
1.267802e+02	-2.030478e+01
1.275125e+02	-2.035374e+01
1.282490e+02	-2.040513e+01
1.289898e+02	-2.045283e+01
1.297348e+02	-2.050170e+01
1.304842e+02	-2.055259e+01
1.312378e+02	-2.060170e+01
1.319959e+02	-2.065229e+01
1.327583e+02	-2.070187e+01
1.335251e+02	-2.075075e+01
1.342963e+02	-2.080128e+01
1.350720e+02	-2.084967e+01
1.358522e+02	-2.089908e+01
1.366368e+02	-2.094785e+01
1.374260e+02	-2.100033e+01
1.382198e+02	-2.104716e+01
1.390182e+02	-2.109815e+01
1.398211e+02	-2.114980e+01
1.406287e+02	-2.119735e+01
1.414410e+02	-2.124560e+01
1.422579e+02	-2.129590e+01
1.430796e+02	-2.134582e+01
1.439060e+02	-2.139694e+01
1.447372e+02	-2.144612e+01
1.455732e+02	-2.149743e+01
1.464141e+02	-2.154544e+01
1.472597e+02	-2.159439e+01
1.481103e+02	-2.164407e+01
1.489658e+02	-2.169265e+01
1.498262e+02	-2.174428e+01
1.506916e+02	-2.179243e+01
1.515620e+02	-2.184358e+01
1.524374e+02	-2.189200e+01
1.533179e+02	-2.194322e+01
1.542034e+02	-2.199437e+01
1.550941e+02	-2.204185e+01
1.559899e+02	-2.209201e+01
1.568909e+02	-2.214188e+01
1.577971e+02	-2.219179e+01
1.587085e+02	-2.224178e+01
1.596252e+02	-2.229295e+01
1.605472e+02	-2.234078e+01
1.614745e+02	-2.239094e+01
1.624072e+02	-2.243984e+01
1.633453e+02	-2.249169e+01
1.642887e+02	-2.253946e+01
1.652377e+02	-2.258993e+01
1.661921e+02	-2.263801e+01
1.671520e+02	-2.268989e+01
1.681175e+02	-2.273936e+01
1.690885e+02	-2.278879e+01
1.700651e+02	-2.284104e+01
1.710474e+02	-2.289033e+01
1.720354e+02	-2.294187e+01
1.730291e+02	-2.298748e+01
1.740285e+02	-2.303520e+01
1.750337e+02	-2.308786e+01
1.760446e+02	-2.313840e+01
1.770615e+02	-2.318624e+01
1.780842e+02	-2.323828e+01
1.791128e+02	-2.328692e+01
1.801473e+02	-2.333646e+01
1.811878e+02	-2.338744e+01
1.822344e+02	-2.343774e+01
1.832870e+02	-2.348727e+01
1.843456e+02	-2.353763e+01
1.854104e+02	-2.358764e+01
1.864813e+02	-2.363292e+01
1.875584e+02	-2.368530e+01
1.886418e+02	-2.373571e+01
1.897313e+02	-2.378478e+01
1.908272e+02	-2.383144e+01
1.919294e+02	-2.388666e+01
1.930380e+02	-2.393586e+01
1.941530e+02	-2.398397e+01
1.952744e+02	-2.403634e+01
1.964023e+02	-2.408426e+01
1.975367e+02	-2.413591e+01
1.986777e+02	-2.418626e+01
1.998252e+02	-2.423561e+01
2.009794e+02	-2.428351e+01
2.021403e+02	-2.433429e+01
2.033078e+02	-2.438526e+01
2.044821e+02	-2.443030e+01
2.056632e+02	-2.448224e+01
2.068511e+02	-2.453233e+01
2.080459e+02	-2.458354e+01
2.092475e+02	-2.463117e+01
2.104561e+02	-2.468378e+01
2.116717e+02	-2.473294e+01
2.128943e+02	-2.478014e+01
2.141240e+02	-2.483451e+01
2.153608e+02	-2.487938e+01
2.166047e+02	-2.493066e+01
2.178558e+02	-2.498326e+01
2.191141e+02	-2.503212e+01
2.203797e+02	-2.508315e+01
2.216526e+02	-2.513146e+01
2.229329e+02	-2.518208e+01
2.242205e+02	-2.523152e+01
2.255156e+02	-2.528206e+01
2.268182e+02	-2.533248e+01
2.281283e+02	-2.537995e+01
2.294459e+02	-2.543291e+01
2.307712e+02	-2.547822e+01
2.321041e+02	-2.553288e+01
2.334447e+02	-2.558235e+01
2.347931e+02	-2.563318e+01
2.361493e+02	-2.568147e+01
2.375133e+02	-2.573217e+01
2.388851e+02	-2.577836e+01
2.402649e+02	-2.583204e+01
2.416527e+02	-2.588244e+01
2.430484e+02	-2.593383e+01
2.444523e+02	-2.598162e+01
2.458642e+02	-2.603141e+01
2.472843e+02	-2.607762e+01
2.487126e+02	-2.613181e+01
2.501492e+02	-2.617980e+01
2.515940e+02	-2.623011e+01
2.530472e+02	-2.628453e+01
2.545088e+02	-2.633083e+01
2.559789e+02	-2.638163e+01
2.574574e+02	-2.642850e+01
2.589444e+02	-2.647922e+01
2.604401e+02	-2.653072e+01
2.619444e+02	-2.657982e+01
2.634574e+02	-2.662844e+01
2.649791e+02	-2.668166e+01
2.665096e+02	-2.673467e+01
2.680489e+02	-2.678062e+01
2.695972e+02	-2.683031e+01
2.711544e+02	-2.688053e+01
2.727205e+02	-2.693025e+01
2.742958e+02	-2.697904e+01
2.758801e+02	-2.703060e+01
2.774736e+02	-2.707819e+01
2.790762e+02	-2.713019e+01
2.806882e+02	-2.717641e+01
2.823094e+02	-2.722961e+01
2.839400e+02	-2.727738e+01
2.855800e+02	-2.732894e+01
2.872295e+02	-2.738044e+01
2.888886e+02	-2.742930e+01
2.905572e+02	-2.748060e+01
2.922354e+02	-2.752916e+01
2.939234e+02	-2.758115e+01
2.956211e+02	-2.763150e+01
2.973286e+02	-2.768213e+01
2.990459e+02	-2.773150e+01
3.007732e+02	-2.777779e+01
3.025104e+02	-2.783153e+01
3.042577e+02	-2.787604e+01
3.060151e+02	-2.793006e+01
3.077826e+02	-2.797877e+01
3.095604e+02	-2.803333e+01
3.113484e+02	-2.807898e+01
3.131467e+02	-2.812911e+01
3.149554e+02	-2.818680e+01
3.167746e+02	-2.823042e+01
3.186043e+02	-2.828012e+01
3.204445e+02	-2.833257e+01
3.222954e+02	-2.838113e+01
3.241570e+02	-2.843342e+01
3.260293e+02	-2.848071e+01
3.279124e+02	-2.853094e+01
3.298064e+02	-2.858076e+01
3.317114e+02	-2.863334e+01
3.336273e+02	-2.867812e+01
3.355544e+02	-2.873191e+01
3.374925e+02	-2.878248e+01
3.394418e+02	-2.883145e+01
3.414024e+02	-2.888094e+01
3.433744e+02	-2.893257e+01
3.453577e+02	-2.898476e+01
3.473525e+02	-2.902820e+01
3.493588e+02	-2.908480e+01
3.513766e+02	-2.913432e+01
3.534062e+02	-2.918217e+01
3.554474e+02	-2.923115e+01
3.575005e+02	-2.927926e+01
3.595654e+02	-2.933263e+01
3.616422e+02	-2.937737e+01
3.637311e+02	-2.943231e+01
3.658320e+02	-2.948504e+01
3.679450e+02	-2.953150e+01
3.700702e+02	-2.958303e+01
3.722077e+02	-2.963557e+01
3.743576e+02	-2.968223e+01
3.765199e+02	-2.973544e+01
3.786946e+02	-2.978541e+01
3.808820e+02	-2.983117e+01
3.830819e+02	-2.987997e+01
3.852946e+02	-2.993252e+01
3.875200e+02	-2.998374e+01
3.897583e+02	-3.003289e+01
3.920096e+02	-3.008266e+01
3.942738e+02	-3.013941e+01
3.965511e+02	-3.018270e+01
3.988416e+02	-3.023324e+01
4.011452e+02	-3.028466e+01
4.034622e+02	-3.033386e+01
4.057926e+02	-3.038749e+01
4.081365e+02	-3.043815e+01
4.104938e+02	-3.048371e+01
4.128648e+02	-3.053660e+01
4.152495e+02	-3.058494e+01
4.176480e+02	-3.063923e+01
4.200603e+02	-3.068457e+01
4.224866e+02	-3.073868e+01
4.249268e+02	-3.078224e+01
4.273812e+02	-3.083609e+01
4.298497e+02	-3.088201e+01
4.323325e+02	-3.093493e+01
4.348297e+02	-3.098274e+01
4.373412e+02	-3.104092e+01
4.398673e+02	-3.108693e+01
4.424079e+02	-3.113705e+01
4.449633e+02	-3.118719e+01
4.475334e+02	-3.123807e+01
4.501183e+02	-3.128784e+01
4.527182e+02	-3.134047e+01
4.553330e+02	-3.138833e+01
4.579630e+02	-3.143152e+01
4.606082e+02	-3.148390e+01
4.632687e+02	-3.153814e+01
4.659445e+02	-3.158852e+01
4.686358e+02	-3.163675e+01
4.713426e+02	-3.169198e+01
4.740650e+02	-3.173563e+01
4.768032e+02	-3.178546e+01
4.795572e+02	-3.184359e+01
4.823271e+02	-3.188429e+01
4.851130e+02	-3.194452e+01
4.879150e+02	-3.198679e+01
4.907332e+02	-3.204093e+01
4.935676e+02	-3.208583e+01
4.964185e+02	-3.213870e+01
4.992858e+02	-3.218999e+01
5.021696e+02	-3.223682e+01
5.050701e+02	-3.229211e+01
5.079874e+02	-3.234219e+01
5.109215e+02	-3.239100e+01
5.138726e+02	-3.244194e+01
5.168407e+02	-3.249577e+01
5.198259e+02	-3.253769e+01
5.228284e+02	-3.259073e+01
5.258482e+02	-3.264348e+01
5.288855e+02	-3.269576e+01
5.319403e+02	-3.273928e+01
5.350128e+02	-3.279135e+01
5.381030e+02	-3.284073e+01
5.412111e+02	-3.288996e+01
5.443371e+02	-3.293870e+01
5.474812e+02	-3.300027e+01
5.506434e+02	-3.304340e+01
5.538239e+02	-3.309614e+01
5.570228e+02	-3.314062e+01
5.602401e+02	-3.319171e+01
5.634760e+02	-3.324263e+01
5.667306e+02	-3.329537e+01
5.700040e+02	-3.334189e+01
5.732964e+02	-3.338878e+01
5.766077e+02	-3.345520e+01
5.799382e+02	-3.349060e+01
5.832879e+02	-3.354798e+01
5.866569e+02	-3.360024e+01
5.900454e+02	-3.364690e+01
5.934535e+02	-3.369464e+01
5.968813e+02	-3.374717e+01
6.003288e+02	-3.379519e+01
6.037963e+02	-3.384883e+01
6.072838e+02	-3.389818e+01
6.107914e+02	-3.395021e+01
6.143194e+02	-3.400399e+01
6.178676e+02	-3.405015e+01
6.214364e+02	-3.410413e+01
6.250258e+02	-3.415196e+01
6.286359e+02	-3.419902e+01
6.322669e+02	-3.425155e+01
6.359189e+02	-3.430906e+01
6.395919e+02	-3.435669e+01
6.432862e+02	-3.440066e+01
6.470017e+02	-3.444191e+01
6.507388e+02	-3.449983e+01
6.544974e+02	-3.455243e+01
6.582778e+02	-3.460253e+01
6.620800e+02	-3.465279e+01
6.659041e+02	-3.470844e+01
6.697504e+02	-3.476483e+01
6.736188e+02	-3.479845e+01
6.775096e+02	-3.485403e+01
6.814229e+02	-3.490084e+01
6.853587e+02	-3.495788e+01
6.893173e+02	-3.500712e+01
6.932988e+02	-3.505870e+01
6.973033e+02	-3.511355e+01
7.013309e+02	-3.514769e+01
