Frequency(Hz)	Magnitude(dB)
1.000000e+01	-1.697586e-05
1.005776e+01	-1.717253e-05
1.011585e+01	-1.737148e-05
1.017428e+01	-1.757273e-05
1.023305e+01	-1.777631e-05
1.029215e+01	-1.798226e-05
1.035160e+01	-1.819059e-05
1.041139e+01	-1.840133e-05
1.047153e+01	-1.861451e-05
1.053201e+01	-1.883017e-05
1.059284e+01	-1.904832e-05
1.065403e+01	-1.926900e-05
1.071556e+01	-1.949223e-05
1.077746e+01	-1.971806e-05
1.083971e+01	-1.994650e-05
1.090232e+01	-2.017758e-05
1.096529e+01	-2.041134e-05
1.102862e+01	-2.064781e-05
1.109232e+01	-2.088702e-05
1.115639e+01	-2.112900e-05
1.122083e+01	-2.137379e-05
1.128564e+01	-2.162141e-05
1.135083e+01	-2.187190e-05
1.141639e+01	-2.212529e-05
1.148233e+01	-2.238162e-05
1.154865e+01	-2.264092e-05
1.161536e+01	-2.290322e-05
1.168245e+01	-2.316855e-05
1.174992e+01	-2.343697e-05
1.181779e+01	-2.370849e-05
1.188605e+01	-2.398316e-05
1.195470e+01	-2.426101e-05
1.202375e+01	-2.454208e-05
1.209320e+01	-2.482641e-05
1.216305e+01	-2.511403e-05
1.223330e+01	-2.540498e-05
1.230396e+01	-2.569930e-05
1.237503e+01	-2.599704e-05
1.244651e+01	-2.629822e-05
1.251840e+01	-2.660289e-05
1.259070e+01	-2.691109e-05
1.266343e+01	-2.722286e-05
1.273657e+01	-2.753824e-05
1.281014e+01	-2.785728e-05
1.288413e+01	-2.818001e-05
1.295855e+01	-2.850649e-05
1.303339e+01	-2.883674e-05
1.310867e+01	-2.917082e-05
1.318439e+01	-2.950877e-05
1.326054e+01	-2.985064e-05
1.333713e+01	-3.019647e-05
1.341417e+01	-3.054630e-05
1.349165e+01	-3.090019e-05
1.356958e+01	-3.125817e-05
1.364795e+01	-3.162031e-05
1.372678e+01	-3.198663e-05
1.380607e+01	-3.235721e-05
1.388581e+01	-3.273207e-05
1.396602e+01	-3.311128e-05
1.404668e+01	-3.349488e-05
1.412782e+01	-3.388293e-05
1.420942e+01	-3.427547e-05
1.429149e+01	-3.467256e-05
1.437404e+01	-3.507425e-05
1.445706e+01	-3.548059e-05
1.454057e+01	-3.589164e-05
1.462455e+01	-3.630746e-05
1.470902e+01	-3.672809e-05
1.479398e+01	-3.715359e-05
1.487943e+01	-3.758402e-05
1.496537e+01	-3.801944e-05
1.505181e+01	-3.845991e-05
1.513875e+01	-3.890547e-05
1.522619e+01	-3.935620e-05
1.531414e+01	-3.981215e-05
1.540259e+01	-4.027339e-05
1.549156e+01	-4.073996e-05
1.558103e+01	-4.121194e-05
1.567103e+01	-4.168939e-05
1.576155e+01	-4.217237e-05
1.585258e+01	-4.266095e-05
1.594415e+01	-4.315519e-05
1.603624e+01	-4.365515e-05
1.612886e+01	-4.416090e-05
1.622202e+01	-4.467252e-05
1.631572e+01	-4.519006e-05
1.640996e+01	-4.571360e-05
1.650474e+01	-4.624320e-05
1.660008e+01	-4.677894e-05
1.669596e+01	-4.732088e-05
1.679239e+01	-4.786910e-05
1.688938e+01	-4.842368e-05
1.698694e+01	-4.898468e-05
1.708505e+01	-4.955217e-05
1.718373e+01	-5.012625e-05
1.728299e+01	-5.070697e-05
1.738281e+01	-5.129442e-05
1.748322e+01	-5.188868e-05
1.758420e+01	-5.248982e-05
1.768576e+01	-5.309792e-05
1.778792e+01	-5.371307e-05
1.789066e+01	-5.433535e-05
1.799399e+01	-5.496484e-05
1.809793e+01	-5.560162e-05
1.820246e+01	-5.624577e-05
1.830760e+01	-5.689739e-05
1.841334e+01	-5.755656e-05
1.851969e+01	-5.822336e-05
1.862666e+01	-5.889789e-05
1.873425e+01	-5.958024e-05
1.884246e+01	-6.027049e-05
1.895129e+01	-6.096873e-05
1.906075e+01	-6.167507e-05
1.917085e+01	-6.238958e-05
1.928158e+01	-6.311238e-05
1.939295e+01	-6.384355e-05
1.950496e+01	-6.458319e-05
1.961762e+01	-6.533140e-05
1.973093e+01	-6.608827e-05
1.984490e+01	-6.685392e-05
1.995952e+01	-6.762843e-05
2.007480e+01	-6.841192e-05
2.019076e+01	-6.920449e-05
2.030738e+01	-7.000623e-05
2.042467e+01	-7.081727e-05
2.054264e+01	-7.163770e-05
2.066130e+01	-7.246764e-05
2.078064e+01	-7.330719e-05
2.090066e+01	-7.415646e-05
2.102139e+01	-7.501558e-05
2.114280e+01	-7.588465e-05
2.126492e+01	-7.676379e-05
2.138775e+01	-7.765311e-05
2.151128e+01	-7.855273e-05
2.163553e+01	-7.946278e-05
2.176050e+01	-8.038337e-05
2.188619e+01	-8.131462e-05
2.201260e+01	-8.225667e-05
2.213974e+01	-8.320963e-05
2.226762e+01	-8.417362e-05
2.239624e+01	-8.514879e-05
2.252560e+01	-8.613525e-05
2.265571e+01	-8.713314e-05
2.278656e+01	-8.814259e-05
2.291818e+01	-8.916374e-05
2.305055e+01	-9.019672e-05
2.318369e+01	-9.124166e-05
2.331760e+01	-9.229871e-05
2.345228e+01	-9.336800e-05
2.358774e+01	-9.444969e-05
2.372398e+01	-9.554390e-05
2.386101e+01	-9.665079e-05
2.399883e+01	-9.777050e-05
2.413745e+01	-9.890319e-05
2.427686e+01	-1.000490e-04
2.441709e+01	-1.012081e-04
2.455812e+01	-1.023806e-04
2.469997e+01	-1.035667e-04
2.484263e+01	-1.047665e-04
2.498612e+01	-1.059803e-04
2.513044e+01	-1.072080e-04
2.527559e+01	-1.084501e-04
2.542158e+01	-1.097065e-04
2.556842e+01	-1.109774e-04
2.571610e+01	-1.122631e-04
2.586463e+01	-1.135637e-04
2.601403e+01	-1.148794e-04
2.616428e+01	-1.162103e-04
2.631541e+01	-1.175566e-04
2.646740e+01	-1.189185e-04
2.662028e+01	-1.202962e-04
2.677404e+01	-1.216898e-04
2.692868e+01	-1.230996e-04
2.708422e+01	-1.245257e-04
2.724066e+01	-1.259684e-04
2.739800e+01	-1.274277e-04
2.755625e+01	-1.289040e-04
2.771541e+01	-1.303973e-04
2.787550e+01	-1.319080e-04
2.803650e+01	-1.334362e-04
2.819844e+01	-1.349820e-04
2.836131e+01	-1.365458e-04
2.852513e+01	-1.381277e-04
2.868989e+01	-1.397279e-04
2.885560e+01	-1.413467e-04
2.902227e+01	-1.429842e-04
2.918990e+01	-1.446407e-04
2.935850e+01	-1.463164e-04
2.952807e+01	-1.480115e-04
2.969863e+01	-1.497262e-04
2.987016e+01	-1.514608e-04
3.004269e+01	-1.532155e-04
3.021622e+01	-1.549905e-04
3.039075e+01	-1.567861e-04
3.056628e+01	-1.586024e-04
3.074283e+01	-1.604399e-04
3.092040e+01	-1.622986e-04
3.109900e+01	-1.641788e-04
3.127862e+01	-1.660808e-04
3.145929e+01	-1.680049e-04
3.164099e+01	-1.699512e-04
3.182375e+01	-1.719201e-04
3.200756e+01	-1.739118e-04
3.219244e+01	-1.759266e-04
3.237838e+01	-1.779647e-04
3.256540e+01	-1.800264e-04
3.275349e+01	-1.821120e-04
3.294268e+01	-1.842218e-04
3.313295e+01	-1.863560e-04
3.332433e+01	-1.885150e-04
3.351681e+01	-1.906989e-04
3.371040e+01	-1.929082e-04
3.390511e+01	-1.951430e-04
3.410094e+01	-1.974038e-04
3.429791e+01	-1.996907e-04
3.449601e+01	-2.020041e-04
3.469526e+01	-2.043443e-04
3.489566e+01	-2.067117e-04
3.509721e+01	-2.091064e-04
3.529993e+01	-2.115289e-04
3.550382e+01	-2.139795e-04
3.570889e+01	-2.164584e-04
3.591515e+01	-2.189661e-04
3.612259e+01	-2.215028e-04
3.633123e+01	-2.240689e-04
3.654108e+01	-2.266647e-04
3.675214e+01	-2.292906e-04
3.696442e+01	-2.319470e-04
3.717792e+01	-2.346341e-04
3.739266e+01	-2.373523e-04
3.760864e+01	-2.401020e-04
3.782587e+01	-2.428836e-04
3.804435e+01	-2.456974e-04
3.826409e+01	-2.485438e-04
3.848510e+01	-2.514231e-04
3.870739e+01	-2.543359e-04
3.893096e+01	-2.572823e-04
3.915583e+01	-2.602629e-04
3.938199e+01	-2.632780e-04
3.960946e+01	-2.663281e-04
3.983824e+01	-2.694135e-04
4.006834e+01	-2.725346e-04
4.029978e+01	-2.756919e-04
4.053255e+01	-2.788858e-04
4.076666e+01	-2.821166e-04
4.100213e+01	-2.853849e-04
4.123896e+01	-2.886911e-04
4.147715e+01	-2.920355e-04
4.171672e+01	-2.954187e-04
4.195767e+01	-2.988411e-04
4.220002e+01	-3.023032e-04
4.244377e+01	-3.058053e-04
4.268892e+01	-3.093480e-04
4.293549e+01	-3.129318e-04
4.318348e+01	-3.165570e-04
4.343291e+01	-3.202243e-04
4.368377e+01	-3.239341e-04
4.393609e+01	-3.276868e-04
4.418986e+01	-3.314830e-04
4.444510e+01	-3.353232e-04
4.470182e+01	-3.392078e-04
4.496001e+01	-3.431375e-04
4.521970e+01	-3.471127e-04
4.548089e+01	-3.511339e-04
4.574358e+01	-3.552017e-04
4.600779e+01	-3.593166e-04
4.627353e+01	-3.634793e-04
4.654081e+01	-3.676901e-04
4.680963e+01	-3.719497e-04
4.708000e+01	-3.762587e-04
4.735193e+01	-3.806175e-04
4.762543e+01	-3.850269e-04
4.790051e+01	-3.894873e-04
4.817719e+01	-3.939994e-04
4.845545e+01	-3.985638e-04
4.873533e+01	-4.031811e-04
4.901682e+01	-4.078518e-04
4.929994e+01	-4.125767e-04
4.958470e+01	-4.173563e-04
4.987110e+01	-4.221912e-04
5.015915e+01	-4.270822e-04
5.044887e+01	-4.320298e-04
5.074026e+01	-4.370347e-04
5.103333e+01	-4.420976e-04
5.132810e+01	-4.472192e-04
5.162457e+01	-4.524001e-04
5.192275e+01	-4.576410e-04
5.222265e+01	-4.629426e-04
5.252429e+01	-4.683056e-04
5.282767e+01	-4.737308e-04
5.313280e+01	-4.792188e-04
5.343969e+01	-4.847704e-04
5.374836e+01	-4.903862e-04
5.405880e+01	-4.960672e-04
5.437105e+01	-5.018139e-04
5.468509e+01	-5.076272e-04
5.500095e+01	-5.135079e-04
5.531863e+01	-5.194567e-04
5.563815e+01	-5.254744e-04
5.595951e+01	-5.315617e-04
5.628273e+01	-5.377197e-04
5.660782e+01	-5.439489e-04
5.693479e+01	-5.502503e-04
5.726364e+01	-5.566247e-04
5.759439e+01	-5.630729e-04
5.792705e+01	-5.695958e-04
5.826164e+01	-5.761943e-04
5.859815e+01	-5.828693e-04
5.893662e+01	-5.896215e-04
5.927703e+01	-5.964520e-04
5.961941e+01	-6.033615e-04
5.996377e+01	-6.103512e-04
6.031012e+01	-6.174217e-04
6.065847e+01	-6.245742e-04
6.100883e+01	-6.318096e-04
6.136121e+01	-6.391287e-04
6.171563e+01	-6.465326e-04
6.207210e+01	-6.540223e-04
6.243063e+01	-6.615988e-04
6.279122e+01	-6.692630e-04
6.315390e+01	-6.770160e-04
6.351868e+01	-6.848588e-04
6.388556e+01	-6.927924e-04
6.425456e+01	-7.008180e-04
6.462569e+01	-7.089365e-04
6.499897e+01	-7.171490e-04
6.537440e+01	-7.254567e-04
6.575200e+01	-7.338606e-04
6.613178e+01	-7.423619e-04
6.651375e+01	-7.509616e-04
6.689793e+01	-7.596609e-04
6.728433e+01	-7.684610e-04
6.767297e+01	-7.773631e-04
6.806384e+01	-7.863682e-04
6.845698e+01	-7.954777e-04
6.885238e+01	-8.046926e-04
6.925007e+01	-8.140144e-04
6.965005e+01	-8.234440e-04
7.005235e+01	-8.329829e-04
7.045697e+01	-8.426323e-04
7.086393e+01	-8.523935e-04
7.127323e+01	-8.622677e-04
7.168490e+01	-8.722564e-04
7.209895e+01	-8.823607e-04
7.251539e+01	-8.925820e-04
7.293424e+01	-9.029217e-04
7.335551e+01	-9.133812e-04
7.377920e+01	-9.239619e-04
7.420535e+01	-9.346651e-04
7.463396e+01	-9.454922e-04
7.506504e+01	-9.564448e-04
7.549861e+01	-9.675243e-04
7.593469e+01	-9.787320e-04
7.637328e+01	-9.900696e-04
7.681441e+01	-1.001539e-03
7.725809e+01	-1.013140e-03
7.770433e+01	-1.024876e-03
7.815315e+01	-1.036748e-03
7.860456e+01	-1.048758e-03
7.905857e+01	-1.060907e-03
7.951521e+01	-1.073196e-03
7.997449e+01	-1.085628e-03
8.043642e+01	-1.098203e-03
8.090102e+01	-1.110925e-03
8.136830e+01	-1.123794e-03
8.183828e+01	-1.136811e-03
8.231097e+01	-1.149980e-03
8.278640e+01	-1.163301e-03
8.326457e+01	-1.176776e-03
8.374550e+01	-1.190408e-03
8.422921e+01	-1.204197e-03
8.471572e+01	-1.218146e-03
8.520503e+01	-1.232256e-03
8.569717e+01	-1.246530e-03
8.619215e+01	-1.260970e-03
8.669000e+01	-1.275576e-03
8.719071e+01	-1.290352e-03
8.769432e+01	-1.305299e-03
8.820084e+01	-1.320419e-03
8.871029e+01	-1.335714e-03
8.922267e+01	-1.351186e-03
8.973802e+01	-1.366837e-03
9.025634e+01	-1.382670e-03
9.077766e+01	-1.398686e-03
9.130199e+01	-1.414887e-03
9.182935e+01	-1.431277e-03
9.235975e+01	-1.447856e-03
9.289321e+01	-1.464627e-03
9.342976e+01	-1.481592e-03
9.396941e+01	-1.498753e-03
9.451217e+01	-1.516114e-03
9.505807e+01	-1.533675e-03
9.560712e+01	-1.551440e-03
9.615934e+01	-1.569411e-03
9.671476e+01	-1.587590e-03
9.727338e+01	-1.605979e-03
9.783522e+01	-1.624581e-03
9.840032e+01	-1.643399e-03
9.896867e+01	-1.662434e-03
9.954031e+01	-1.681690e-03
1.001153e+02	-1.701169e-03
1.006935e+02	-1.720874e-03
1.012751e+02	-1.740807e-03
1.018601e+02	-1.760970e-03
1.024484e+02	-1.781367e-03
1.030402e+02	-1.802001e-03
1.036353e+02	-1.822873e-03
1.042339e+02	-1.843987e-03
1.048360e+02	-1.865345e-03
1.054415e+02	-1.886951e-03
1.060505e+02	-1.908807e-03
1.066631e+02	-1.930916e-03
1.072791e+02	-1.953282e-03
1.078988e+02	-1.975906e-03
1.085220e+02	-1.998792e-03
1.091488e+02	-2.021943e-03
1.097793e+02	-2.045362e-03
1.104133e+02	-2.069053e-03
1.110511e+02	-2.093017e-03
1.116925e+02	-2.117260e-03
1.123376e+02	-2.141783e-03
1.129865e+02	-2.166590e-03
1.136391e+02	-2.191684e-03
1.142955e+02	-2.217068e-03
1.149556e+02	-2.242747e-03
1.156196e+02	-2.268723e-03
1.162874e+02	-2.295000e-03
1.169591e+02	-2.321581e-03
1.176347e+02	-2.348470e-03
1.183141e+02	-2.375670e-03
1.189975e+02	-2.403185e-03
1.196848e+02	-2.431019e-03
1.203761e+02	-2.459175e-03
1.210714e+02	-2.487657e-03
1.217707e+02	-2.516469e-03
1.224740e+02	-2.545614e-03
1.231814e+02	-2.575097e-03
1.238929e+02	-2.604921e-03
1.246085e+02	-2.635091e-03
1.253283e+02	-2.665610e-03
1.260522e+02	-2.696482e-03
1.267802e+02	-2.727712e-03
1.275125e+02	-2.759303e-03
1.282490e+02	-2.791260e-03
1.289898e+02	-2.823587e-03
1.297348e+02	-2.856288e-03
1.304842e+02	-2.889368e-03
1.312378e+02	-2.922831e-03
1.319959e+02	-2.956681e-03
1.327583e+02	-2.990923e-03
1.335251e+02	-3.025561e-03
1.342963e+02	-3.060601e-03
1.350720e+02	-3.096046e-03
1.358522e+02	-3.131902e-03
1.366368e+02	-3.168172e-03
1.374260e+02	-3.204863e-03
1.382198e+02	-3.241978e-03
1.390182e+02	-3.279523e-03
1.398211e+02	-3.317503e-03
1.406287e+02	-3.355922e-03
1.414410e+02	-3.394786e-03
1.422579e+02	-3.434100e-03
1.430796e+02	-3.473869e-03
1.439060e+02	-3.514098e-03
1.447372e+02	-3.554793e-03
1.455732e+02	-3.595960e-03
1.464141e+02	-3.637602e-03
1.472597e+02	-3.679727e-03
1.481103e+02	-3.722339e-03
1.489658e+02	-3.765445e-03
1.498262e+02	-3.809049e-03
1.506916e+02	-3.853158e-03
1.515620e+02	-3.897778e-03
1.524374e+02	-3.942914e-03
1.533179e+02	-3.988573e-03
1.542034e+02	-4.034760e-03
1.550941e+02	-4.081482e-03
1.559899e+02	-4.128745e-03
1.568909e+02	-4.176554e-03
1.577971e+02	-4.224917e-03
1.587085e+02	-4.273840e-03
1.596252e+02	-4.323328e-03
1.605472e+02	-4.373390e-03
1.614745e+02	-4.424031e-03
1.624072e+02	-4.475258e-03
1.633453e+02	-4.527078e-03
1.642887e+02	-4.579498e-03
1.652377e+02	-4.632524e-03
1.661921e+02	-4.686164e-03
1.671520e+02	-4.740425e-03
1.681175e+02	-4.795313e-03
1.690885e+02	-4.850837e-03
1.700651e+02	-4.907004e-03
1.710474e+02	-4.963820e-03
1.720354e+02	-5.021294e-03
1.730291e+02	-5.079433e-03
1.740285e+02	-5.138244e-03
1.750337e+02	-5.197737e-03
1.760446e+02	-5.257917e-03
1.770615e+02	-5.318794e-03
1.780842e+02	-5.380375e-03
1.791128e+02	-5.442669e-03
1.801473e+02	-5.505684e-03
1.811878e+02	-5.569428e-03
1.822344e+02	-5.633909e-03
1.832870e+02	-5.699136e-03
1.843456e+02	-5.765118e-03
1.854104e+02	-5.831864e-03
1.864813e+02	-5.899382e-03
1.875584e+02	-5.967680e-03
1.886418e+02	-6.036769e-03
1.897313e+02	-6.106657e-03
1.908272e+02	-6.177354e-03
1.919294e+02	-6.248869e-03
1.930380e+02	-6.321211e-03
1.941530e+02	-6.394390e-03
1.952744e+02	-6.468415e-03
1.964023e+02	-6.543297e-03
1.975367e+02	-6.619044e-03
1.986777e+02	-6.695668e-03
1.998252e+02	-6.773179e-03
2.009794e+02	-6.851586e-03
2.021403e+02	-6.930900e-03
2.033078e+02	-7.011131e-03
2.044821e+02	-7.092290e-03
2.056632e+02	-7.174388e-03
2.068511e+02	-7.257436e-03
2.080459e+02	-7.341444e-03
2.092475e+02	-7.426423e-03
2.104561e+02	-7.512386e-03
2.116717e+02	-7.599342e-03
2.128943e+02	-7.687304e-03
2.141240e+02	-7.776284e-03
2.153608e+02	-7.866292e-03
2.166047e+02	-7.957341e-03
2.178558e+02	-8.049443e-03
2.191141e+02	-8.142611e-03
2.203797e+02	-8.236855e-03
2.216526e+02	-8.332189e-03
2.229329e+02	-8.428626e-03
2.242205e+02	-8.526178e-03
2.255156e+02	-8.624857e-03
2.268182e+02	-8.724678e-03
2.281283e+02	-8.825652e-03
2.294459e+02	-8.927794e-03
2.307712e+02	-9.031117e-03
2.321041e+02	-9.135635e-03
2.334447e+02	-9.241360e-03
2.347931e+02	-9.348308e-03
2.361493e+02	-9.456493e-03
2.375133e+02	-9.565927e-03
2.388851e+02	-9.676627e-03
2.402649e+02	-9.788607e-03
2.416527e+02	-9.901880e-03
2.430484e+02	-1.001646e-02
2.444523e+02	-1.013237e-02
2.458642e+02	-1.024962e-02
2.472843e+02	-1.036822e-02
2.487126e+02	-1.048819e-02
2.501492e+02	-1.060955e-02
2.515940e+02	-1.073231e-02
2.530472e+02	-1.085650e-02
2.545088e+02	-1.098211e-02
2.559789e+02	-1.110918e-02
2.574574e+02	-1.123771e-02
2.589444e+02	-1.136774e-02
2.604401e+02	-1.149926e-02
2.619444e+02	-1.163230e-02
2.634574e+02	-1.176688e-02
2.649791e+02	-1.190302e-02
2.665096e+02	-1.204072e-02
2.680489e+02	-1.218002e-02
2.695972e+02	-1.232093e-02
2.711544e+02	-1.246347e-02
2.727205e+02	-1.260765e-02
2.742958e+02	-1.275350e-02
2.758801e+02	-1.290103e-02
2.774736e+02	-1.305026e-02
2.790762e+02	-1.320122e-02
2.806882e+02	-1.335393e-02
2.823094e+02	-1.350839e-02
2.839400e+02	-1.366465e-02
2.855800e+02	-1.382270e-02
2.872295e+02	-1.398258e-02
2.888886e+02	-1.414431e-02
2.905572e+02	-1.430790e-02
2.922354e+02	-1.447339e-02
2.939234e+02	-1.464078e-02
2.956211e+02	-1.481011e-02
2.973286e+02	-1.498139e-02
2.990459e+02	-1.515465e-02
3.007732e+02	-1.532991e-02
3.025104e+02	-1.550719e-02
3.042577e+02	-1.568652e-02
3.060151e+02	-1.586792e-02
3.077826e+02	-1.605141e-02
3.095604e+02	-1.623702e-02
3.113484e+02	-1.642478e-02
3.131467e+02	-1.661470e-02
3.149554e+02	-1.680681e-02
3.167746e+02	-1.700114e-02
3.186043e+02	-1.719771e-02
3.204445e+02	-1.739655e-02
3.222954e+02	-1.759768e-02
3.241570e+02	-1.780114e-02
3.260293e+02	-1.800694e-02
3.279124e+02	-1.821511e-02
3.298064e+02	-1.842569e-02
3.317114e+02	-1.863870e-02
3.336273e+02	-1.885416e-02
3.355544e+02	-1.907211e-02
3.374925e+02	-1.929257e-02
3.394418e+02	-1.951558e-02
3.414024e+02	-1.974116e-02
3.433744e+02	-1.996934e-02
3.453577e+02	-2.020015e-02
3.473525e+02	-2.043362e-02
3.493588e+02	-2.066978e-02
3.513766e+02	-2.090867e-02
3.534062e+02	-2.115031e-02
3.554474e+02	-2.139473e-02
3.575005e+02	-2.164198e-02
3.595654e+02	-2.189207e-02
3.616422e+02	-2.214505e-02
3.637311e+02	-2.240094e-02
3.658320e+02	-2.265978e-02
3.679450e+02	-2.292161e-02
3.700702e+02	-2.318645e-02
3.722077e+02	-2.345434e-02
3.743576e+02	-2.372532e-02
3.765199e+02	-2.399942e-02
3.786946e+02	-2.427668e-02
3.808820e+02	-2.455714e-02
3.830819e+02	-2.484082e-02
3.852946e+02	-2.512777e-02
3.875200e+02	-2.541803e-02
3.897583e+02	-2.571163e-02
3.920096e+02	-2.600861e-02
3.942738e+02	-2.630901e-02
3.965511e+02	-2.661287e-02
3.988416e+02	-2.692023e-02
4.011452e+02	-2.723113e-02
4.034622e+02	-2.754560e-02
4.057926e+02	-2.786370e-02
4.081365e+02	-2.818546e-02
4.104938e+02	-2.851092e-02
4.128648e+02	-2.884012e-02
4.152495e+02	-2.917312e-02
4.176480e+02	-2.950994e-02
4.200603e+02	-2.985065e-02
4.224866e+02	-3.019527e-02
4.249268e+02	-3.054385e-02
4.273812e+02	-3.089645e-02
4.298497e+02	-3.125310e-02
4.323325e+02	-3.161385e-02
4.348297e+02	-3.197876e-02
4.373412e+02	-3.234786e-02
4.398673e+02	-3.272120e-02
4.424079e+02	-3.309883e-02
4.449633e+02	-3.348081e-02
4.475334e+02	-3.386718e-02
4.501183e+02	-3.425798e-02
4.527182e+02	-3.465328e-02
4.553330e+02	-3.505313e-02
4.579630e+02	-3.545756e-02
4.606082e+02	-3.586665e-02
4.632687e+02	-3.628043e-02
4.659445e+02	-3.669897e-02
4.686358e+02	-3.712232e-02
4.713426e+02	-3.755052e-02
4.740650e+02	-3.798365e-02
4.768032e+02	-3.842175e-02
4.795572e+02	-3.886488e-02
4.823271e+02	-3.931309e-02
4.851130e+02	-3.976646e-02
4.879150e+02	-4.022502e-02
4.907332e+02	-4.068885e-02
4.935676e+02	-4.115800e-02
4.964185e+02	-4.163254e-02
4.992858e+02	-4.211252e-02
5.021696e+02	-4.259800e-02
5.050701e+02	-4.308906e-02
5.079874e+02	-4.358575e-02
5.109215e+02	-4.408813e-02
5.138726e+02	-4.459627e-02
5.168407e+02	-4.511024e-02
5.198259e+02	-4.563011e-02
5.228284e+02	-4.615593e-02
5.258482e+02	-4.668778e-02
5.288855e+02	-4.722572e-02
5.319403e+02	-4.776983e-02
5.350128e+02	-4.832017e-02
5.381030e+02	-4.887682e-02
5.412111e+02	-4.943984e-02
5.443371e+02	-5.000931e-02
5.474812e+02	-5.058530e-02
5.506434e+02	-5.116788e-02
5.538239e+02	-5.175714e-02
5.570228e+02	-5.235314e-02
5.602401e+02	-5.295596e-02
5.634760e+02	-5.356568e-02
5.667306e+02	-5.418238e-02
5.700040e+02	-5.480613e-02
5.732964e+02	-5.543701e-02
5.766077e+02	-5.607511e-02
5.799382e+02	-5.672051e-02
5.832879e+02	-5.737329e-02
5.866569e+02	-5.803352e-02
5.900454e+02	-5.870131e-02
5.934535e+02	-5.937672e-02
5.968813e+02	-6.005986e-02
6.003288e+02	-6.075079e-02
6.037963e+02	-6.144962e-02
6.072838e+02	-6.215644e-02
6.107914e+02	-6.287132e-02
6.143194e+02	-6.359436e-02
6.178676e+02	-6.432566e-02
6.214364e+02	-6.506530e-02
6.250258e+02	-6.581338e-02
6.286359e+02	-6.657000e-02
6.322669e+02	-6.733525e-02
6.359189e+02	-6.810923e-02
6.395919e+02	-6.889203e-02
6.432862e+02	-6.968376e-02
6.470017e+02	-7.048451e-02
6.507388e+02	-7.129438e-02
6.544974e+02	-7.211349e-02
6.582778e+02	-7.294193e-02
6.620800e+02	-7.377980e-02
6.659041e+02	-7.462721e-02
6.697504e+02	-7.548428e-02
6.736188e+02	-7.635110e-02
6.775096e+02	-7.722778e-02
6.814229e+02	-7.811444e-02
6.853587e+02	-7.901119e-02
6.893173e+02	-7.991813e-02
6.932988e+02	-8.083539e-02
6.973033e+02	-8.176308e-02
7.013309e+02	-8.270131e-02
