Frequency(Hz)	Magnitude(dB)
1.000000e+01	-2.141557e+00
1.005776e+01	-2.161043e+00
1.011585e+01	-2.180620e+00
1.017428e+01	-2.200596e+00
1.023305e+01	-2.220355e+00
1.029215e+01	-2.240651e+00
1.035160e+01	-2.260857e+00
1.041139e+01	-2.280958e+00
1.047153e+01	-2.301754e+00
1.053201e+01	-2.322253e+00
1.059284e+01	-2.343234e+00
1.065403e+01	-2.364003e+00
1.071556e+01	-2.385079e+00
1.077746e+01	-2.406312e+00
1.083971e+01	-2.427868e+00
1.090232e+01	-2.448974e+00
1.096529e+01	-2.470820e+00
1.102862e+01	-2.492572e+00
1.109232e+01	-2.514450e+00
1.115639e+01	-2.536758e+00
1.122083e+01	-2.558607e+00
1.128564e+01	-2.580979e+00
1.135083e+01	-2.603725e+00
1.141639e+01	-2.626114e+00
1.148233e+01	-2.648984e+00
1.154865e+01	-2.672158e+00
1.161536e+01	-2.694768e+00
1.168245e+01	-2.718079e+00
1.174992e+01	-2.741425e+00
1.181779e+01	-2.764914e+00
1.188605e+01	-2.788589e+00
1.195470e+01	-2.812465e+00
1.202375e+01	-2.836178e+00
1.209320e+01	-2.860513e+00
1.216305e+01	-2.884700e+00
1.223330e+01	-2.908833e+00
1.230396e+01	-2.933478e+00
1.237503e+01	-2.958151e+00
1.244651e+01	-2.982859e+00
1.251840e+01	-3.007688e+00
1.259070e+01	-3.032887e+00
1.266343e+01	-3.058021e+00
1.273657e+01	-3.083377e+00
1.281014e+01	-3.108781e+00
1.288413e+01	-3.134323e+00
1.295855e+01	-3.160305e+00
1.303339e+01	-3.186343e+00
1.310867e+01	-3.212527e+00
1.318439e+01	-3.238438e+00
1.326054e+01	-3.264687e+00
1.333713e+01	-3.291542e+00
1.341417e+01	-3.318003e+00
1.349165e+01	-3.345007e+00
1.356958e+01	-3.371925e+00
1.364795e+01	-3.398730e+00
1.372678e+01	-3.426071e+00
1.380607e+01	-3.453752e+00
1.388581e+01	-3.480994e+00
1.396602e+01	-3.508527e+00
1.404668e+01	-3.536463e+00
1.412782e+01	-3.564294e+00
1.420942e+01	-3.592634e+00
1.429149e+01	-3.620713e+00
1.437404e+01	-3.648900e+00
1.445706e+01	-3.677379e+00
1.454057e+01	-3.706290e+00
1.462455e+01	-3.734954e+00
1.470902e+01	-3.763758e+00
1.479398e+01	-3.792519e+00
1.487943e+01	-3.822248e+00
1.496537e+01	-3.851708e+00
1.505181e+01	-3.880670e+00
1.513875e+01	-3.910671e+00
1.522619e+01	-3.940345e+00
1.531414e+01	-3.970425e+00
1.540259e+01	-4.000457e+00
1.549156e+01	-4.030552e+00
1.558103e+01	-4.060821e+00
1.567103e+01	-4.091238e+00
1.576155e+01	-4.121820e+00
1.585258e+01	-4.152618e+00
1.594415e+01	-4.183482e+00
1.603624e+01	-4.214516e+00
1.612886e+01	-4.245721e+00
1.622202e+01	-4.277066e+00
1.631572e+01	-4.308443e+00
1.640996e+01	-4.340038e+00
1.650474e+01	-4.371526e+00
1.660008e+01	-4.403422e+00
1.669596e+01	-4.435352e+00
1.679239e+01	-4.467603e+00
1.688938e+01	-4.499433e+00
1.698694e+01	-4.531817e+00
1.708505e+01	-4.564206e+00
1.718373e+01	-4.596858e+00
1.728299e+01	-4.629767e+00
1.738281e+01	-4.662639e+00
1.748322e+01	-4.695779e+00
1.758420e+01	-4.728493e+00
1.768576e+01	-4.761853e+00
1.778792e+01	-4.795221e+00
1.789066e+01	-4.828953e+00
1.799399e+01	-4.862298e+00
1.809793e+01	-4.896332e+00
1.820246e+01	-4.930186e+00
1.830760e+01	-4.964077e+00
1.841334e+01	-4.998245e+00
1.851969e+01	-5.032552e+00
1.862666e+01	-5.066878e+00
1.873425e+01	-5.101380e+00
1.884246e+01	-5.136064e+00
1.895129e+01	-5.170631e+00
1.906075e+01	-5.205759e+00
1.917085e+01	-5.240920e+00
1.928158e+01	-5.275862e+00
1.939295e+01	-5.310930e+00
1.950496e+01	-5.346487e+00
1.961762e+01	-5.381899e+00
1.973093e+01	-5.417595e+00
1.984490e+01	-5.453281e+00
1.995952e+01	-5.488992e+00
2.007480e+01	-5.524981e+00
2.019076e+01	-5.560783e+00
2.030738e+01	-5.597110e+00
2.042467e+01	-5.633513e+00
2.054264e+01	-5.669889e+00
2.066130e+01	-5.706087e+00
2.078064e+01	-5.743187e+00
2.090066e+01	-5.780002e+00
2.102139e+01	-5.816639e+00
2.114280e+01	-5.853686e+00
2.126492e+01	-5.890801e+00
2.138775e+01	-5.927890e+00
2.151128e+01	-5.965365e+00
2.163553e+01	-6.002775e+00
2.176050e+01	-6.040478e+00
2.188619e+01	-6.077900e+00
2.201260e+01	-6.115618e+00
2.213974e+01	-6.153812e+00
2.226762e+01	-6.191304e+00
2.239624e+01	-6.229464e+00
2.252560e+01	-6.267456e+00
2.265571e+01	-6.305791e+00
2.278656e+01	-6.344170e+00
2.291818e+01	-6.382983e+00
2.305055e+01	-6.421558e+00
2.318369e+01	-6.460051e+00
2.331760e+01	-6.498451e+00
2.345228e+01	-6.537543e+00
2.358774e+01	-6.576580e+00
2.372398e+01	-6.615451e+00
2.386101e+01	-6.654954e+00
2.399883e+01	-6.693920e+00
2.413745e+01	-6.733437e+00
2.427686e+01	-6.772753e+00
2.441709e+01	-6.812780e+00
2.455812e+01	-6.852088e+00
2.469997e+01	-6.891979e+00
2.484263e+01	-6.931541e+00
2.498612e+01	-6.971654e+00
2.513044e+01	-7.011587e+00
2.527559e+01	-7.051666e+00
2.542158e+01	-7.091528e+00
2.556842e+01	-7.132270e+00
2.571610e+01	-7.172343e+00
2.586463e+01	-7.213048e+00
2.601403e+01	-7.253731e+00
2.616428e+01	-7.294132e+00
2.631541e+01	-7.335155e+00
2.646740e+01	-7.376053e+00
2.662028e+01	-7.416946e+00
2.677404e+01	-7.457508e+00
2.692868e+01	-7.499350e+00
2.708422e+01	-7.540253e+00
2.724066e+01	-7.581383e+00
2.739800e+01	-7.622796e+00
2.755625e+01	-7.663809e+00
2.771541e+01	-7.705705e+00
2.787550e+01	-7.746792e+00
2.803650e+01	-7.788839e+00
2.819844e+01	-7.830918e+00
2.836131e+01	-7.872068e+00
2.852513e+01	-7.914027e+00
2.868989e+01	-7.956572e+00
2.885560e+01	-7.998442e+00
2.902227e+01	-8.040528e+00
2.918990e+01	-8.083115e+00
2.935850e+01	-8.124717e+00
2.952807e+01	-8.167060e+00
2.969863e+01	-8.209885e+00
2.987016e+01	-8.252324e+00
3.004269e+01	-8.294891e+00
3.021622e+01	-8.337704e+00
3.039075e+01	-8.380270e+00
3.056628e+01	-8.422972e+00
3.074283e+01	-8.465907e+00
3.092040e+01	-8.508611e+00
3.109900e+01	-8.551780e+00
3.127862e+01	-8.595004e+00
3.145929e+01	-8.638085e+00
3.164099e+01	-8.681029e+00
3.182375e+01	-8.724397e+00
3.200756e+01	-8.767579e+00
3.219244e+01	-8.811400e+00
3.237838e+01	-8.854833e+00
3.256540e+01	-8.898207e+00
3.275349e+01	-8.942255e+00
3.294268e+01	-8.985403e+00
3.313295e+01	-9.029085e+00
3.332433e+01	-9.073176e+00
3.351681e+01	-9.117056e+00
3.371040e+01	-9.160866e+00
3.390511e+01	-9.205307e+00
3.410094e+01	-9.248785e+00
3.429791e+01	-9.292716e+00
3.449601e+01	-9.337483e+00
3.469526e+01	-9.381592e+00
3.489566e+01	-9.425829e+00
3.509721e+01	-9.470053e+00
3.529993e+01	-9.514288e+00
3.550382e+01	-9.558852e+00
3.570889e+01	-9.603670e+00
3.591515e+01	-9.648122e+00
3.612259e+01	-9.692994e+00
3.633123e+01	-9.737862e+00
3.654108e+01	-9.781826e+00
3.675214e+01	-9.826860e+00
3.696442e+01	-9.871989e+00
3.717792e+01	-9.916595e+00
3.739266e+01	-9.962057e+00
3.760864e+01	-1.000689e+01
3.782587e+01	-1.005166e+01
3.804435e+01	-1.009710e+01
3.826409e+01	-1.014170e+01
3.848510e+01	-1.018699e+01
3.870739e+01	-1.023256e+01
3.893096e+01	-1.027773e+01
3.915583e+01	-1.032306e+01
3.938199e+01	-1.036893e+01
3.960946e+01	-1.041420e+01
3.983824e+01	-1.045959e+01
4.006834e+01	-1.050489e+01
4.029978e+01	-1.055084e+01
4.053255e+01	-1.059617e+01
4.076666e+01	-1.064211e+01
4.100213e+01	-1.068750e+01
4.123896e+01	-1.073363e+01
4.147715e+01	-1.077896e+01
4.171672e+01	-1.082529e+01
4.195767e+01	-1.087169e+01
4.220002e+01	-1.091696e+01
4.244377e+01	-1.096311e+01
4.268892e+01	-1.100925e+01
4.293549e+01	-1.105509e+01
4.318348e+01	-1.110146e+01
4.343291e+01	-1.114738e+01
4.368377e+01	-1.119399e+01
4.393609e+01	-1.123982e+01
4.418986e+01	-1.128595e+01
4.444510e+01	-1.133224e+01
4.470182e+01	-1.137887e+01
4.496001e+01	-1.142483e+01
4.521970e+01	-1.147188e+01
4.548089e+01	-1.151799e+01
4.574358e+01	-1.156479e+01
4.600779e+01	-1.161183e+01
4.627353e+01	-1.165833e+01
4.654081e+01	-1.170456e+01
4.680963e+01	-1.175092e+01
4.708000e+01	-1.179815e+01
4.735193e+01	-1.184450e+01
4.762543e+01	-1.189110e+01
4.790051e+01	-1.193771e+01
4.817719e+01	-1.198542e+01
4.845545e+01	-1.203192e+01
4.873533e+01	-1.207842e+01
4.901682e+01	-1.212558e+01
4.929994e+01	-1.217246e+01
4.958470e+01	-1.221953e+01
4.987110e+01	-1.226594e+01
5.015915e+01	-1.231330e+01
5.044887e+01	-1.236111e+01
5.074026e+01	-1.240783e+01
5.103333e+01	-1.245540e+01
5.132810e+01	-1.250328e+01
5.162457e+01	-1.254941e+01
5.192275e+01	-1.259675e+01
5.222265e+01	-1.264430e+01
5.252429e+01	-1.269110e+01
5.282767e+01	-1.273911e+01
5.313280e+01	-1.278590e+01
5.343969e+01	-1.283296e+01
5.374836e+01	-1.288128e+01
5.405880e+01	-1.292888e+01
5.437105e+01	-1.297586e+01
5.468509e+01	-1.302319e+01
5.500095e+01	-1.307158e+01
5.531863e+01	-1.311877e+01
5.563815e+01	-1.316576e+01
5.595951e+01	-1.321410e+01
5.628273e+01	-1.326138e+01
5.660782e+01	-1.330929e+01
5.693479e+01	-1.335739e+01
5.726364e+01	-1.340422e+01
5.759439e+01	-1.345257e+01
5.792705e+01	-1.350038e+01
5.826164e+01	-1.354851e+01
5.859815e+01	-1.359635e+01
5.893662e+01	-1.364346e+01
5.927703e+01	-1.369127e+01
5.961941e+01	-1.373947e+01
5.996377e+01	-1.378769e+01
6.031012e+01	-1.383522e+01
6.065847e+01	-1.388325e+01
6.100883e+01	-1.393142e+01
6.136121e+01	-1.397911e+01
6.171563e+01	-1.402698e+01
6.207210e+01	-1.407503e+01
6.243063e+01	-1.412377e+01
6.279122e+01	-1.417159e+01
6.315390e+01	-1.421995e+01
6.351868e+01	-1.426825e+01
6.388556e+01	-1.431661e+01
6.425456e+01	-1.436386e+01
6.462569e+01	-1.441286e+01
6.499897e+01	-1.446160e+01
6.537440e+01	-1.450900e+01
6.575200e+01	-1.455709e+01
6.613178e+01	-1.460504e+01
6.651375e+01	-1.465275e+01
6.689793e+01	-1.470308e+01
6.728433e+01	-1.475095e+01
6.767297e+01	-1.479822e+01
6.806384e+01	-1.484799e+01
6.845698e+01	-1.489558e+01
6.885238e+01	-1.494429e+01
6.925007e+01	-1.499257e+01
6.965005e+01	-1.504027e+01
7.005235e+01	-1.509027e+01
7.045697e+01	-1.513811e+01
7.086393e+01	-1.518691e+01
7.127323e+01	-1.523399e+01
7.168490e+01	-1.528360e+01
7.209895e+01	-1.533266e+01
7.251539e+01	-1.538019e+01
7.293424e+01	-1.542880e+01
7.335551e+01	-1.547797e+01
7.377920e+01	-1.552684e+01
7.420535e+01	-1.557544e+01
7.463396e+01	-1.562429e+01
7.506504e+01	-1.567174e+01
7.549861e+01	-1.572134e+01
7.593469e+01	-1.577067e+01
7.637328e+01	-1.581819e+01
7.681441e+01	-1.586836e+01
7.725809e+01	-1.591584e+01
7.770433e+01	-1.596522e+01
7.815315e+01	-1.601392e+01
7.860456e+01	-1.606182e+01
7.905857e+01	-1.611109e+01
7.951521e+01	-1.615964e+01
7.997449e+01	-1.620798e+01
8.043642e+01	-1.625753e+01
8.090102e+01	-1.630611e+01
8.136830e+01	-1.635499e+01
8.183828e+01	-1.640335e+01
8.231097e+01	-1.645256e+01
8.278640e+01	-1.650185e+01
8.326457e+01	-1.655101e+01
8.374550e+01	-1.659968e+01
8.422921e+01	-1.664821e+01
8.471572e+01	-1.669757e+01
8.520503e+01	-1.674629e+01
8.569717e+01	-1.679622e+01
8.619215e+01	-1.684448e+01
8.669000e+01	-1.689390e+01
8.719071e+01	-1.694416e+01
8.769432e+01	-1.699128e+01
8.820084e+01	-1.704034e+01
8.871029e+01	-1.708925e+01
8.922267e+01	-1.713962e+01
8.973802e+01	-1.718833e+01
9.025634e+01	-1.723688e+01
9.077766e+01	-1.728647e+01
9.130199e+01	-1.733509e+01
9.182935e+01	-1.738486e+01
9.235975e+01	-1.743364e+01
9.289321e+01	-1.748211e+01
9.342976e+01	-1.753113e+01
9.396941e+01	-1.758102e+01
9.451217e+01	-1.762880e+01
9.505807e+01	-1.767941e+01
9.560712e+01	-1.772793e+01
9.615934e+01	-1.777718e+01
9.671476e+01	-1.782565e+01
9.727338e+01	-1.787783e+01
9.783522e+01	-1.792480e+01
9.840032e+01	-1.797437e+01
9.896867e+01	-1.802303e+01
9.954031e+01	-1.807235e+01
1.001153e+02	-1.812270e+01
1.006935e+02	-1.817148e+01
1.012751e+02	-1.822089e+01
1.018601e+02	-1.827063e+01
1.024484e+02	-1.831833e+01
1.030402e+02	-1.836799e+01
1.036353e+02	-1.841798e+01
1.042339e+02	-1.846629e+01
1.048360e+02	-1.851586e+01
1.054415e+02	-1.856614e+01
1.060505e+02	-1.861453e+01
1.066631e+02	-1.866530e+01
1.072791e+02	-1.871546e+01
1.078988e+02	-1.876390e+01
1.085220e+02	-1.881290e+01
1.091488e+02	-1.886144e+01
1.097793e+02	-1.891215e+01
1.104133e+02	-1.896118e+01
1.110511e+02	-1.901076e+01
1.116925e+02	-1.906001e+01
1.123376e+02	-1.910980e+01
1.129865e+02	-1.915796e+01
1.136391e+02	-1.920735e+01
1.142955e+02	-1.925714e+01
1.149556e+02	-1.930756e+01
1.156196e+02	-1.935710e+01
1.162874e+02	-1.940513e+01
1.169591e+02	-1.945578e+01
1.176347e+02	-1.950448e+01
1.183141e+02	-1.955388e+01
1.189975e+02	-1.960238e+01
1.196848e+02	-1.965293e+01
1.203761e+02	-1.970216e+01
1.210714e+02	-1.975299e+01
1.217707e+02	-1.980092e+01
1.224740e+02	-1.985068e+01
1.231814e+02	-1.989992e+01
1.238929e+02	-1.995029e+01
1.246085e+02	-1.999942e+01
1.253283e+02	-2.004915e+01
1.260522e+02	-2.009913e+01
1.267802e+02	-2.014860e+01
1.275125e+02	-2.019690e+01
1.282490e+02	-2.024870e+01
1.289898e+02	-2.029666e+01
1.297348e+02	-2.034765e+01
1.304842e+02	-2.039697e+01
1.312378e+02	-2.044527e+01
1.319959e+02	-2.049557e+01
1.327583e+02	-2.054606e+01
1.335251e+02	-2.059652e+01
1.342963e+02	-2.064439e+01
1.350720e+02	-2.069500e+01
1.358522e+02	-2.074246e+01
1.366368e+02	-2.079120e+01
1.374260e+02	-2.084281e+01
1.382198e+02	-2.089301e+01
1.390182e+02	-2.094123e+01
1.398211e+02	-2.099258e+01
1.406287e+02	-2.104174e+01
1.414410e+02	-2.109126e+01
1.422579e+02	-2.113920e+01
1.430796e+02	-2.119184e+01
1.439060e+02	-2.124109e+01
1.447372e+02	-2.129036e+01
1.455732e+02	-2.133774e+01
1.464141e+02	-2.139035e+01
1.472597e+02	-2.143719e+01
1.481103e+02	-2.148798e+01
1.489658e+02	-2.153844e+01
1.498262e+02	-2.158650e+01
1.506916e+02	-2.163743e+01
1.515620e+02	-2.168707e+01
1.524374e+02	-2.173725e+01
1.533179e+02	-2.178521e+01
1.542034e+02	-2.183602e+01
1.550941e+02	-2.188654e+01
1.559899e+02	-2.193574e+01
1.568909e+02	-2.198262e+01
1.577971e+02	-2.203596e+01
1.587085e+02	-2.208786e+01
1.596252e+02	-2.213429e+01
1.605472e+02	-2.218475e+01
1.614745e+02	-2.223496e+01
1.624072e+02	-2.228294e+01
1.633453e+02	-2.233419e+01
1.642887e+02	-2.238514e+01
1.652377e+02	-2.243356e+01
1.661921e+02	-2.248309e+01
1.671520e+02	-2.253531e+01
1.681175e+02	-2.258145e+01
1.690885e+02	-2.263156e+01
1.700651e+02	-2.267997e+01
1.710474e+02	-2.273208e+01
1.720354e+02	-2.278259e+01
1.730291e+02	-2.283204e+01
1.740285e+02	-2.288314e+01
1.750337e+02	-2.293088e+01
1.760446e+02	-2.297934e+01
1.770615e+02	-2.302858e+01
1.780842e+02	-2.308030e+01
1.791128e+02	-2.312860e+01
1.801473e+02	-2.317797e+01
1.811878e+02	-2.322989e+01
1.822344e+02	-2.327974e+01
1.832870e+02	-2.332933e+01
1.843456e+02	-2.337868e+01
1.854104e+02	-2.342826e+01
1.864813e+02	-2.347935e+01
1.875584e+02	-2.352757e+01
1.886418e+02	-2.357989e+01
1.897313e+02	-2.362742e+01
1.908272e+02	-2.367903e+01
1.919294e+02	-2.372750e+01
1.930380e+02	-2.377869e+01
1.941530e+02	-2.382839e+01
1.952744e+02	-2.387585e+01
1.964023e+02	-2.392724e+01
1.975367e+02	-2.397688e+01
1.986777e+02	-2.402534e+01
1.998252e+02	-2.407713e+01
2.009794e+02	-2.412609e+01
2.021403e+02	-2.417872e+01
2.033078e+02	-2.422475e+01
2.044821e+02	-2.427646e+01
2.056632e+02	-2.432707e+01
2.068511e+02	-2.437552e+01
2.080459e+02	-2.442643e+01
2.092475e+02	-2.447525e+01
2.104561e+02	-2.452624e+01
2.116717e+02	-2.457657e+01
2.128943e+02	-2.462633e+01
2.141240e+02	-2.467724e+01
2.153608e+02	-2.472376e+01
2.166047e+02	-2.477488e+01
2.178558e+02	-2.482358e+01
2.191141e+02	-2.487845e+01
2.203797e+02	-2.492564e+01
2.216526e+02	-2.497491e+01
2.229329e+02	-2.502460e+01
2.242205e+02	-2.507482e+01
2.255156e+02	-2.512300e+01
2.268182e+02	-2.517549e+01
2.281283e+02	-2.522569e+01
2.294459e+02	-2.527466e+01
2.307712e+02	-2.532346e+01
2.321041e+02	-2.537591e+01
2.334447e+02	-2.542657e+01
2.347931e+02	-2.547407e+01
2.361493e+02	-2.552218e+01
2.375133e+02	-2.557178e+01
2.388851e+02	-2.562503e+01
2.402649e+02	-2.567518e+01
2.416527e+02	-2.572381e+01
2.430484e+02	-2.577669e+01
2.444523e+02	-2.582415e+01
2.458642e+02	-2.587317e+01
2.472843e+02	-2.592176e+01
2.487126e+02	-2.597466e+01
2.501492e+02	-2.602148e+01
2.515940e+02	-2.607282e+01
2.530472e+02	-2.612021e+01
2.545088e+02	-2.617182e+01
2.559789e+02	-2.622124e+01
2.574574e+02	-2.627045e+01
2.589444e+02	-2.631930e+01
2.604401e+02	-2.637333e+01
2.619444e+02	-2.642259e+01
2.634574e+02	-2.647531e+01
2.649791e+02	-2.652546e+01
2.665096e+02	-2.657484e+01
2.680489e+02	-2.662102e+01
2.695972e+02	-2.667010e+01
2.711544e+02	-2.672648e+01
2.727205e+02	-2.677031e+01
2.742958e+02	-2.682464e+01
2.758801e+02	-2.687125e+01
2.774736e+02	-2.692017e+01
2.790762e+02	-2.697372e+01
2.806882e+02	-2.702313e+01
2.823094e+02	-2.707573e+01
2.839400e+02	-2.712321e+01
2.855800e+02	-2.717228e+01
2.872295e+02	-2.722160e+01
2.888886e+02	-2.727341e+01
2.905572e+02	-2.732618e+01
2.922354e+02	-2.737210e+01
2.939234e+02	-2.742211e+01
2.956211e+02	-2.747523e+01
2.973286e+02	-2.752359e+01
2.990459e+02	-2.756969e+01
3.007732e+02	-2.762283e+01
3.025104e+02	-2.767562e+01
3.042577e+02	-2.772204e+01
3.060151e+02	-2.777004e+01
3.077826e+02	-2.782692e+01
3.095604e+02	-2.787231e+01
3.113484e+02	-2.792616e+01
3.131467e+02	-2.797279e+01
3.149554e+02	-2.802331e+01
3.167746e+02	-2.807155e+01
3.186043e+02	-2.812153e+01
3.204445e+02	-2.817346e+01
3.222954e+02	-2.822139e+01
3.241570e+02	-2.827487e+01
3.260293e+02	-2.832804e+01
3.279124e+02	-2.837151e+01
3.298064e+02	-2.842258e+01
3.317114e+02	-2.847453e+01
3.336273e+02	-2.852467e+01
3.355544e+02	-2.857272e+01
3.374925e+02	-2.862473e+01
3.394418e+02	-2.867693e+01
3.414024e+02	-2.872159e+01
3.433744e+02	-2.877534e+01
3.453577e+02	-2.882580e+01
3.473525e+02	-2.887703e+01
3.493588e+02	-2.892521e+01
3.513766e+02	-2.897658e+01
3.534062e+02	-2.902337e+01
3.554474e+02	-2.907298e+01
3.575005e+02	-2.911988e+01
3.595654e+02	-2.917622e+01
3.616422e+02	-2.922060e+01
3.637311e+02	-2.927247e+01
3.658320e+02	-2.932607e+01
3.679450e+02	-2.938107e+01
3.700702e+02	-2.942355e+01
3.722077e+02	-2.947325e+01
3.743576e+02	-2.952327e+01
3.765199e+02	-2.957602e+01
3.786946e+02	-2.962408e+01
3.808820e+02	-2.967163e+01
3.830819e+02	-2.972457e+01
3.852946e+02	-2.977177e+01
3.875200e+02	-2.982607e+01
3.897583e+02	-2.987655e+01
3.920096e+02	-2.992618e+01
3.942738e+02	-2.997798e+01
3.965511e+02	-3.002144e+01
3.988416e+02	-3.007749e+01
4.011452e+02	-3.012515e+01
4.034622e+02	-3.017535e+01
4.057926e+02	-3.022760e+01
4.081365e+02	-3.027455e+01
4.104938e+02	-3.032570e+01
4.128648e+02	-3.037256e+01
4.152495e+02	-3.042471e+01
4.176480e+02	-3.048003e+01
4.200603e+02	-3.052696e+01
4.224866e+02	-3.057919e+01
4.249268e+02	-3.063005e+01
4.273812e+02	-3.067382e+01
4.298497e+02	-3.072533e+01
4.323325e+02	-3.077598e+01
4.348297e+02	-3.083104e+01
4.373412e+02	-3.087717e+01
4.398673e+02	-3.093033e+01
4.424079e+02	-3.097914e+01
4.449633e+02	-3.102825e+01
4.475334e+02	-3.108013e+01
4.501183e+02	-3.112689e+01
4.527182e+02	-3.117544e+01
4.553330e+02	-3.123391e+01
4.579630e+02	-3.128363e+01
4.606082e+02	-3.133069e+01
4.632687e+02	-3.137857e+01
4.659445e+02	-3.143108e+01
4.686358e+02	-3.148667e+01
4.713426e+02	-3.153343e+01
4.740650e+02	-3.158236e+01
4.768032e+02	-3.163182e+01
4.795572e+02	-3.168204e+01
4.823271e+02	-3.173430e+01
4.851130e+02	-3.178069e+01
4.879150e+02	-3.183233e+01
4.907332e+02	-3.187934e+01
4.935676e+02	-3.193319e+01
4.964185e+02	-3.198420e+01
4.992858e+02	-3.203077e+01
5.021696e+02	-3.207513e+01
5.050701e+02	-3.213366e+01
5.079874e+02	-3.218436e+01
5.109215e+02	-3.222950e+01
5.138726e+02	-3.228207e+01
5.168407e+02	-3.233055e+01
5.198259e+02	-3.238596e+01
5.228284e+02	-3.243403e+01
5.258482e+02	-3.248212e+01
5.288855e+02	-3.253800e+01
5.319403e+02	-3.257951e+01
5.350128e+02	-3.263918e+01
5.381030e+02	-3.268235e+01
5.412111e+02	-3.273612e+01
5.443371e+02	-3.278328e+01
5.474812e+02	-3.283578e+01
5.506434e+02	-3.288785e+01
5.538239e+02	-3.293674e+01
5.570228e+02	-3.298821e+01
5.602401e+02	-3.302967e+01
5.634760e+02	-3.308896e+01
5.667306e+02	-3.313537e+01
5.700040e+02	-3.319360e+01
5.732964e+02	-3.323576e+01
5.766077e+02	-3.328822e+01
5.799382e+02	-3.333683e+01
5.832879e+02	-3.338761e+01
5.866569e+02	-3.343353e+01
5.900454e+02	-3.348611e+01
5.934535e+02	-3.354156e+01
5.968813e+02	-3.359140e+01
6.003288e+02	-3.364067e+01
6.037963e+02	-3.369401e+01
6.072838e+02	-3.373674e+01
6.107914e+02	-3.379655e+01
6.143194e+02	-3.384848e+01
6.178676e+02	-3.389190e+01
6.214364e+02	-3.394542e+01
6.250258e+02	-3.399598e+01
6.286359e+02	-3.404626e+01
6.322669e+02	-3.409276e+01
6.359189e+02	-3.413953e+01
6.395919e+02	-3.419808e+01
6.432862e+02	-3.424756e+01
6.470017e+02	-3.429431e+01
6.507388e+02	-3.434596e+01
6.544974e+02	-3.439437e+01
6.582778e+02	-3.444516e+01
6.620800e+02	-3.450263e+01
6.659041e+02	-3.454995e+01
6.697504e+02	-3.460175e+01
6.736188e+02	-3.465228e+01
6.775096e+02	-3.469692e+01
6.814229e+02	-3.474604e+01
6.853587e+02	-3.479937e+01
6.893173e+02	-3.484912e+01
6.932988e+02	-3.489629e+01
6.973033e+02	-3.494573e+01
7.013309e+02	-3.499655e+01
