Frequency(Hz)	Magnitude(dB)
1.000000e+01	-2.041223e+00
1.005776e+01	-2.060200e+00
1.011585e+01	-2.079110e+00
1.017428e+01	-2.098197e+00
1.023305e+01	-2.117259e+00
1.029215e+01	-2.136928e+00
1.035160e+01	-2.156143e+00
1.041139e+01	-2.175758e+00
1.047153e+01	-2.195692e+00
1.053201e+01	-2.215639e+00
1.059284e+01	-2.235496e+00
1.065403e+01	-2.255945e+00
1.071556e+01	-2.276104e+00
1.077746e+01	-2.296788e+00
1.083971e+01	-2.317196e+00
1.090232e+01	-2.338001e+00
1.096529e+01	-2.359109e+00
1.102862e+01	-2.379945e+00
1.109232e+01	-2.401048e+00
1.115639e+01	-2.422386e+00
1.122083e+01	-2.443791e+00
1.128564e+01	-2.465385e+00
1.135083e+01	-2.487283e+00
1.141639e+01	-2.509111e+00
1.148233e+01	-2.531082e+00
1.154865e+01	-2.553232e+00
1.161536e+01	-2.575658e+00
1.168245e+01	-2.597997e+00
1.174992e+01	-2.620713e+00
1.181779e+01	-2.643459e+00
1.188605e+01	-2.666237e+00
1.195470e+01	-2.689076e+00
1.202375e+01	-2.712380e+00
1.209320e+01	-2.735735e+00
1.216305e+01	-2.759084e+00
1.223330e+01	-2.782878e+00
1.230396e+01	-2.806471e+00
1.237503e+01	-2.830261e+00
1.244651e+01	-2.854547e+00
1.251840e+01	-2.878714e+00
1.259070e+01	-2.902965e+00
1.266343e+01	-2.927385e+00
1.273657e+01	-2.951912e+00
1.281014e+01	-2.976885e+00
1.288413e+01	-3.001580e+00
1.295855e+01	-3.026674e+00
1.303339e+01	-3.051724e+00
1.310867e+01	-3.077092e+00
1.318439e+01	-3.102701e+00
1.326054e+01	-3.128345e+00
1.333713e+01	-3.153906e+00
1.341417e+01	-3.179856e+00
1.349165e+01	-3.205881e+00
1.356958e+01	-3.232169e+00
1.364795e+01	-3.258425e+00
1.372678e+01	-3.284718e+00
1.380607e+01	-3.311406e+00
1.388581e+01	-3.338501e+00
1.396602e+01	-3.365288e+00
1.404668e+01	-3.392347e+00
1.412782e+01	-3.419470e+00
1.420942e+01	-3.446768e+00
1.429149e+01	-3.474411e+00
1.437404e+01	-3.501933e+00
1.445706e+01	-3.529691e+00
1.454057e+01	-3.557390e+00
1.462455e+01	-3.585690e+00
1.470902e+01	-3.613622e+00
1.479398e+01	-3.642282e+00
1.487943e+01	-3.670705e+00
1.496537e+01	-3.699471e+00
1.505181e+01	-3.728026e+00
1.513875e+01	-3.756819e+00
1.522619e+01	-3.785904e+00
1.531414e+01	-3.815249e+00
1.540259e+01	-3.844339e+00
1.549156e+01	-3.873850e+00
1.558103e+01	-3.903375e+00
1.567103e+01	-3.933155e+00
1.576155e+01	-3.963167e+00
1.585258e+01	-3.993023e+00
1.594415e+01	-4.023106e+00
1.603624e+01	-4.053280e+00
1.612886e+01	-4.083766e+00
1.622202e+01	-4.114323e+00
1.631572e+01	-4.145272e+00
1.640996e+01	-4.175766e+00
1.650474e+01	-4.207176e+00
1.660008e+01	-4.238216e+00
1.669596e+01	-4.269435e+00
1.679239e+01	-4.300679e+00
1.688938e+01	-4.332180e+00
1.698694e+01	-4.363881e+00
1.708505e+01	-4.395540e+00
1.718373e+01	-4.427523e+00
1.728299e+01	-4.459251e+00
1.738281e+01	-4.491728e+00
1.748322e+01	-4.523874e+00
1.758420e+01	-4.556267e+00
1.768576e+01	-4.589203e+00
1.778792e+01	-4.621703e+00
1.789066e+01	-4.654584e+00
1.799399e+01	-4.687530e+00
1.809793e+01	-4.720595e+00
1.820246e+01	-4.753703e+00
1.830760e+01	-4.787282e+00
1.841334e+01	-4.820575e+00
1.851969e+01	-4.854270e+00
1.862666e+01	-4.888024e+00
1.873425e+01	-4.921848e+00
1.884246e+01	-4.955872e+00
1.895129e+01	-4.990139e+00
1.906075e+01	-5.024125e+00
1.917085e+01	-5.058389e+00
1.928158e+01	-5.092764e+00
1.939295e+01	-5.127463e+00
1.950496e+01	-5.161972e+00
1.961762e+01	-5.197000e+00
1.973093e+01	-5.232112e+00
1.984490e+01	-5.267410e+00
1.995952e+01	-5.302283e+00
2.007480e+01	-5.337798e+00
2.019076e+01	-5.373466e+00
2.030738e+01	-5.408611e+00
2.042467e+01	-5.444547e+00
2.054264e+01	-5.480244e+00
2.066130e+01	-5.516068e+00
2.078064e+01	-5.551995e+00
2.090066e+01	-5.588379e+00
2.102139e+01	-5.624850e+00
2.114280e+01	-5.660963e+00
2.126492e+01	-5.697386e+00
2.138775e+01	-5.734185e+00
2.151128e+01	-5.771259e+00
2.163553e+01	-5.807500e+00
2.176050e+01	-5.844609e+00
2.188619e+01	-5.881729e+00
2.201260e+01	-5.918677e+00
2.213974e+01	-5.956415e+00
2.226762e+01	-5.993313e+00
2.239624e+01	-6.030861e+00
2.252560e+01	-6.068632e+00
2.265571e+01	-6.106310e+00
2.278656e+01	-6.144069e+00
2.291818e+01	-6.182262e+00
2.305055e+01	-6.220021e+00
2.318369e+01	-6.258202e+00
2.331760e+01	-6.296517e+00
2.345228e+01	-6.335181e+00
2.358774e+01	-6.373383e+00
2.372398e+01	-6.411838e+00
2.386101e+01	-6.450591e+00
2.399883e+01	-6.489026e+00
2.413745e+01	-6.528024e+00
2.427686e+01	-6.567047e+00
2.441709e+01	-6.606041e+00
2.455812e+01	-6.645270e+00
2.469997e+01	-6.684615e+00
2.484263e+01	-6.723485e+00
2.498612e+01	-6.763321e+00
2.513044e+01	-6.802792e+00
2.527559e+01	-6.842038e+00
2.542158e+01	-6.882016e+00
2.556842e+01	-6.921986e+00
2.571610e+01	-6.962046e+00
2.586463e+01	-7.001911e+00
2.601403e+01	-7.042077e+00
2.616428e+01	-7.081965e+00
2.631541e+01	-7.122339e+00
2.646740e+01	-7.162880e+00
2.662028e+01	-7.203250e+00
2.677404e+01	-7.243898e+00
2.692868e+01	-7.284425e+00
2.708422e+01	-7.325332e+00
2.724066e+01	-7.365906e+00
2.739800e+01	-7.406655e+00
2.755625e+01	-7.447978e+00
2.771541e+01	-7.488773e+00
2.787550e+01	-7.529840e+00
2.803650e+01	-7.571261e+00
2.819844e+01	-7.612329e+00
2.836131e+01	-7.654017e+00
2.852513e+01	-7.695906e+00
2.868989e+01	-7.736723e+00
2.885560e+01	-7.778592e+00
2.902227e+01	-7.820149e+00
2.918990e+01	-7.862066e+00
2.935850e+01	-7.903922e+00
2.952807e+01	-7.946111e+00
2.969863e+01	-7.987999e+00
2.987016e+01	-8.030042e+00
3.004269e+01	-8.072119e+00
3.021622e+01	-8.114721e+00
3.039075e+01	-8.157047e+00
3.056628e+01	-8.199145e+00
3.074283e+01	-8.242118e+00
3.092040e+01	-8.284579e+00
3.109900e+01	-8.326920e+00
3.127862e+01	-8.369317e+00
3.145929e+01	-8.412614e+00
3.164099e+01	-8.455314e+00
3.182375e+01	-8.498161e+00
3.200756e+01	-8.541273e+00
3.219244e+01	-8.583923e+00
3.237838e+01	-8.627599e+00
3.256540e+01	-8.670692e+00
3.275349e+01	-8.713819e+00
3.294268e+01	-8.757232e+00
3.313295e+01	-8.800838e+00
3.332433e+01	-8.844265e+00
3.351681e+01	-8.887522e+00
3.371040e+01	-8.931059e+00
3.390511e+01	-8.974819e+00
3.410094e+01	-9.018631e+00
3.429791e+01	-9.062608e+00
3.449601e+01	-9.106417e+00
3.469526e+01	-9.149868e+00
3.489566e+01	-9.194415e+00
3.509721e+01	-9.238286e+00
3.529993e+01	-9.282857e+00
3.550382e+01	-9.326252e+00
3.570889e+01	-9.371218e+00
3.591515e+01	-9.415042e+00
3.612259e+01	-9.459333e+00
3.633123e+01	-9.503628e+00
3.654108e+01	-9.548238e+00
3.675214e+01	-9.592651e+00
3.696442e+01	-9.637345e+00
3.717792e+01	-9.681973e+00
3.739266e+01	-9.726508e+00
3.760864e+01	-9.771434e+00
3.782587e+01	-9.815817e+00
3.804435e+01	-9.860118e+00
3.826409e+01	-9.905705e+00
3.848510e+01	-9.950367e+00
3.870739e+01	-9.996152e+00
3.893096e+01	-1.004113e+01
3.915583e+01	-1.008572e+01
3.938199e+01	-1.013098e+01
3.960946e+01	-1.017585e+01
3.983824e+01	-1.022132e+01
4.006834e+01	-1.026609e+01
4.029978e+01	-1.031210e+01
4.053255e+01	-1.035720e+01
4.076666e+01	-1.040314e+01
4.100213e+01	-1.044867e+01
4.123896e+01	-1.049401e+01
4.147715e+01	-1.053902e+01
4.171672e+01	-1.058487e+01
4.195767e+01	-1.063049e+01
4.220002e+01	-1.067628e+01
4.244377e+01	-1.072227e+01
4.268892e+01	-1.076855e+01
4.293549e+01	-1.081391e+01
4.318348e+01	-1.085961e+01
4.343291e+01	-1.090613e+01
4.368377e+01	-1.095195e+01
4.393609e+01	-1.099763e+01
4.418986e+01	-1.104388e+01
4.444510e+01	-1.109019e+01
4.470182e+01	-1.113584e+01
4.496001e+01	-1.118246e+01
4.521970e+01	-1.122849e+01
4.548089e+01	-1.127445e+01
4.574358e+01	-1.132161e+01
4.600779e+01	-1.136818e+01
4.627353e+01	-1.141394e+01
4.654081e+01	-1.145998e+01
4.680963e+01	-1.150692e+01
4.708000e+01	-1.155307e+01
4.735193e+01	-1.159984e+01
4.762543e+01	-1.164682e+01
4.790051e+01	-1.169368e+01
4.817719e+01	-1.173972e+01
4.845545e+01	-1.178618e+01
4.873533e+01	-1.183332e+01
4.901682e+01	-1.187997e+01
4.929994e+01	-1.192694e+01
4.958470e+01	-1.197393e+01
4.987110e+01	-1.202052e+01
5.015915e+01	-1.206735e+01
5.044887e+01	-1.211415e+01
5.074026e+01	-1.216120e+01
5.103333e+01	-1.220891e+01
5.132810e+01	-1.225529e+01
5.162457e+01	-1.230203e+01
5.192275e+01	-1.234853e+01
5.222265e+01	-1.239611e+01
5.252429e+01	-1.244416e+01
5.282767e+01	-1.249097e+01
5.313280e+01	-1.253832e+01
5.343969e+01	-1.258582e+01
5.374836e+01	-1.263279e+01
5.405880e+01	-1.267901e+01
5.437105e+01	-1.272749e+01
5.468509e+01	-1.277455e+01
5.500095e+01	-1.282184e+01
5.531863e+01	-1.286928e+01
5.563815e+01	-1.291715e+01
5.595951e+01	-1.296409e+01
5.628273e+01	-1.301159e+01
5.660782e+01	-1.305945e+01
5.693479e+01	-1.310725e+01
5.726364e+01	-1.315477e+01
5.759439e+01	-1.320267e+01
5.792705e+01	-1.325000e+01
5.826164e+01	-1.329815e+01
5.859815e+01	-1.334543e+01
5.893662e+01	-1.339369e+01
5.927703e+01	-1.344172e+01
5.961941e+01	-1.348841e+01
5.996377e+01	-1.353653e+01
6.031012e+01	-1.358444e+01
6.065847e+01	-1.363197e+01
6.100883e+01	-1.367996e+01
6.136121e+01	-1.372790e+01
6.171563e+01	-1.377604e+01
6.207210e+01	-1.382365e+01
6.243063e+01	-1.387192e+01
6.279122e+01	-1.391989e+01
6.315390e+01	-1.396786e+01
6.351868e+01	-1.401550e+01
6.388556e+01	-1.406407e+01
6.425456e+01	-1.411236e+01
6.462569e+01	-1.416014e+01
6.499897e+01	-1.420830e+01
6.537440e+01	-1.425552e+01
6.575200e+01	-1.430412e+01
6.613178e+01	-1.435270e+01
6.651375e+01	-1.440160e+01
6.689793e+01	-1.444876e+01
6.728433e+01	-1.449761e+01
6.767297e+01	-1.454598e+01
6.806384e+01	-1.459302e+01
6.845698e+01	-1.464246e+01
6.885238e+01	-1.469041e+01
6.925007e+01	-1.473899e+01
6.965005e+01	-1.478718e+01
7.005235e+01	-1.483449e+01
7.045697e+01	-1.488323e+01
7.086393e+01	-1.493244e+01
7.127323e+01	-1.498085e+01
7.168490e+01	-1.502778e+01
7.209895e+01	-1.507797e+01
7.251539e+01	-1.512598e+01
7.293424e+01	-1.517506e+01
7.335551e+01	-1.522405e+01
7.377920e+01	-1.527157e+01
7.420535e+01	-1.532033e+01
7.463396e+01	-1.536851e+01
7.506504e+01	-1.541753e+01
7.549861e+01	-1.546698e+01
7.593469e+01	-1.551530e+01
7.637328e+01	-1.556316e+01
7.681441e+01	-1.561209e+01
7.725809e+01	-1.566100e+01
7.770433e+01	-1.570873e+01
7.815315e+01	-1.575778e+01
7.860456e+01	-1.580659e+01
7.905857e+01	-1.585517e+01
7.951521e+01	-1.590377e+01
7.997449e+01	-1.595258e+01
8.043642e+01	-1.600147e+01
8.090102e+01	-1.605073e+01
8.136830e+01	-1.609870e+01
8.183828e+01	-1.614792e+01
8.231097e+01	-1.619675e+01
8.278640e+01	-1.624445e+01
8.326457e+01	-1.629376e+01
8.374550e+01	-1.634208e+01
8.422921e+01	-1.639137e+01
8.471572e+01	-1.644108e+01
8.520503e+01	-1.648970e+01
8.569717e+01	-1.653839e+01
8.619215e+01	-1.658761e+01
8.669000e+01	-1.663710e+01
8.719071e+01	-1.668484e+01
8.769432e+01	-1.673421e+01
8.820084e+01	-1.678383e+01
8.871029e+01	-1.683384e+01
8.922267e+01	-1.688182e+01
8.973802e+01	-1.693074e+01
9.025634e+01	-1.697972e+01
9.077766e+01	-1.702785e+01
9.130199e+01	-1.707732e+01
9.182935e+01	-1.712695e+01
9.235975e+01	-1.717713e+01
9.289321e+01	-1.722478e+01
9.342976e+01	-1.727435e+01
9.396941e+01	-1.732225e+01
9.451217e+01	-1.737145e+01
9.505807e+01	-1.742192e+01
9.560712e+01	-1.747142e+01
9.615934e+01	-1.751971e+01
9.671476e+01	-1.756939e+01
9.727338e+01	-1.761765e+01
9.783522e+01	-1.766661e+01
9.840032e+01	-1.771573e+01
9.896867e+01	-1.776537e+01
9.954031e+01	-1.781282e+01
1.001153e+02	-1.786410e+01
1.006935e+02	-1.791245e+01
1.012751e+02	-1.796296e+01
1.018601e+02	-1.801116e+01
1.024484e+02	-1.806136e+01
1.030402e+02	-1.810864e+01
1.036353e+02	-1.816043e+01
1.042339e+02	-1.820775e+01
1.048360e+02	-1.825683e+01
1.054415e+02	-1.830644e+01
1.060505e+02	-1.835639e+01
1.066631e+02	-1.840617e+01
1.072791e+02	-1.845458e+01
1.078988e+02	-1.850483e+01
1.085220e+02	-1.855433e+01
1.091488e+02	-1.860295e+01
1.097793e+02	-1.865232e+01
1.104133e+02	-1.870224e+01
1.110511e+02	-1.875216e+01
1.116925e+02	-1.880019e+01
1.123376e+02	-1.884911e+01
1.129865e+02	-1.889988e+01
1.136391e+02	-1.894783e+01
1.142955e+02	-1.899703e+01
1.149556e+02	-1.904798e+01
1.156196e+02	-1.909665e+01
1.162874e+02	-1.914656e+01
1.169591e+02	-1.919528e+01
1.176347e+02	-1.924580e+01
1.183141e+02	-1.929542e+01
1.189975e+02	-1.934397e+01
1.196848e+02	-1.939264e+01
1.203761e+02	-1.944282e+01
1.210714e+02	-1.949361e+01
1.217707e+02	-1.954162e+01
1.224740e+02	-1.958971e+01
1.231814e+02	-1.964103e+01
1.238929e+02	-1.968947e+01
1.246085e+02	-1.973904e+01
1.253283e+02	-1.978986e+01
1.260522e+02	-1.983820e+01
1.267802e+02	-1.988718e+01
1.275125e+02	-1.993931e+01
1.282490e+02	-1.998790e+01
1.289898e+02	-2.003531e+01
1.297348e+02	-2.008739e+01
1.304842e+02	-2.013611e+01
1.312378e+02	-2.018627e+01
1.319959e+02	-2.023466e+01
1.327583e+02	-2.028693e+01
1.335251e+02	-2.033447e+01
1.342963e+02	-2.038420e+01
1.350720e+02	-2.043363e+01
1.358522e+02	-2.048356e+01
1.366368e+02	-2.053222e+01
1.374260e+02	-2.058326e+01
1.382198e+02	-2.063265e+01
1.390182e+02	-2.068193e+01
1.398211e+02	-2.073206e+01
1.406287e+02	-2.077994e+01
1.414410e+02	-2.083120e+01
1.422579e+02	-2.088055e+01
1.430796e+02	-2.092941e+01
1.439060e+02	-2.097811e+01
1.447372e+02	-2.102667e+01
1.455732e+02	-2.107851e+01
1.464141e+02	-2.112642e+01
1.472597e+02	-2.118031e+01
1.481103e+02	-2.122851e+01
1.489658e+02	-2.127688e+01
1.498262e+02	-2.132755e+01
1.506916e+02	-2.137677e+01
1.515620e+02	-2.142712e+01
1.524374e+02	-2.147635e+01
1.533179e+02	-2.152612e+01
1.542034e+02	-2.157504e+01
1.550941e+02	-2.162569e+01
1.559899e+02	-2.167694e+01
1.568909e+02	-2.172531e+01
1.577971e+02	-2.177383e+01
1.587085e+02	-2.182257e+01
1.596252e+02	-2.187535e+01
1.605472e+02	-2.192538e+01
1.614745e+02	-2.197394e+01
1.624072e+02	-2.202305e+01
1.633453e+02	-2.207358e+01
1.642887e+02	-2.212434e+01
1.652377e+02	-2.217258e+01
1.661921e+02	-2.222309e+01
1.671520e+02	-2.227267e+01
1.681175e+02	-2.232258e+01
1.690885e+02	-2.236932e+01
1.700651e+02	-2.241728e+01
1.710474e+02	-2.246992e+01
1.720354e+02	-2.251956e+01
1.730291e+02	-2.256898e+01
1.740285e+02	-2.261997e+01
1.750337e+02	-2.267010e+01
1.760446e+02	-2.271797e+01
1.770615e+02	-2.276955e+01
1.780842e+02	-2.282084e+01
1.791128e+02	-2.286790e+01
1.801473e+02	-2.291961e+01
1.811878e+02	-2.296675e+01
1.822344e+02	-2.301550e+01
1.832870e+02	-2.306790e+01
1.843456e+02	-2.311607e+01
1.854104e+02	-2.316737e+01
1.864813e+02	-2.321635e+01
1.875584e+02	-2.326674e+01
1.886418e+02	-2.331571e+01
1.897313e+02	-2.336857e+01
1.908272e+02	-2.341429e+01
1.919294e+02	-2.346739e+01
1.930380e+02	-2.351660e+01
1.941530e+02	-2.356731e+01
1.952744e+02	-2.361517e+01
1.964023e+02	-2.366516e+01
1.975367e+02	-2.371518e+01
1.986777e+02	-2.376442e+01
1.998252e+02	-2.381559e+01
2.009794e+02	-2.386713e+01
2.021403e+02	-2.391626e+01
2.033078e+02	-2.396493e+01
2.044821e+02	-2.401405e+01
2.056632e+02	-2.406422e+01
2.068511e+02	-2.411482e+01
2.080459e+02	-2.416541e+01
2.092475e+02	-2.421555e+01
2.104561e+02	-2.426487e+01
2.116717e+02	-2.431590e+01
2.128943e+02	-2.436074e+01
2.141240e+02	-2.441257e+01
2.153608e+02	-2.446510e+01
2.166047e+02	-2.451240e+01
2.178558e+02	-2.456410e+01
2.191141e+02	-2.461284e+01
2.203797e+02	-2.466181e+01
2.216526e+02	-2.471378e+01
2.229329e+02	-2.475981e+01
2.242205e+02	-2.481390e+01
2.255156e+02	-2.486376e+01
2.268182e+02	-2.491419e+01
2.281283e+02	-2.496474e+01
2.294459e+02	-2.501303e+01
2.307712e+02	-2.506508e+01
2.321041e+02	-2.511290e+01
2.334447e+02	-2.516205e+01
2.347931e+02	-2.521350e+01
2.361493e+02	-2.526172e+01
2.375133e+02	-2.531033e+01
2.388851e+02	-2.536441e+01
2.402649e+02	-2.541007e+01
2.416527e+02	-2.546247e+01
2.430484e+02	-2.551139e+01
2.444523e+02	-2.556206e+01
2.458642e+02	-2.560845e+01
2.472843e+02	-2.566435e+01
2.487126e+02	-2.571089e+01
2.501492e+02	-2.576042e+01
2.515940e+02	-2.581145e+01
2.530472e+02	-2.586054e+01
2.545088e+02	-2.591153e+01
2.559789e+02	-2.596070e+01
2.574574e+02	-2.601014e+01
2.589444e+02	-2.606169e+01
2.604401e+02	-2.611170e+01
2.619444e+02	-2.616211e+01
2.634574e+02	-2.621182e+01
2.649791e+02	-2.626303e+01
2.665096e+02	-2.631063e+01
2.680489e+02	-2.636254e+01
2.695972e+02	-2.641152e+01
2.711544e+02	-2.645779e+01
2.727205e+02	-2.651359e+01
2.742958e+02	-2.655949e+01
2.758801e+02	-2.661125e+01
2.774736e+02	-2.666084e+01
2.790762e+02	-2.670746e+01
2.806882e+02	-2.676122e+01
2.823094e+02	-2.680971e+01
2.839400e+02	-2.686379e+01
2.855800e+02	-2.690820e+01
2.872295e+02	-2.695958e+01
2.888886e+02	-2.701224e+01
2.905572e+02	-2.705887e+01
2.922354e+02	-2.710944e+01
2.939234e+02	-2.715956e+01
2.956211e+02	-2.721217e+01
2.973286e+02	-2.726049e+01
2.990459e+02	-2.731050e+01
3.007732e+02	-2.735980e+01
3.025104e+02	-2.741043e+01
3.042577e+02	-2.746066e+01
3.060151e+02	-2.750793e+01
3.077826e+02	-2.755871e+01
3.095604e+02	-2.761197e+01
3.113484e+02	-2.766355e+01
3.131467e+02	-2.771153e+01
3.149554e+02	-2.776149e+01
3.167746e+02	-2.780622e+01
3.186043e+02	-2.786325e+01
3.204445e+02	-2.791214e+01
3.222954e+02	-2.796346e+01
3.241570e+02	-2.800995e+01
3.260293e+02	-2.805798e+01
3.279124e+02	-2.811527e+01
3.298064e+02	-2.815899e+01
3.317114e+02	-2.821217e+01
3.336273e+02	-2.826026e+01
3.355544e+02	-2.830860e+01
3.374925e+02	-2.836124e+01
3.394418e+02	-2.841222e+01
3.414024e+02	-2.846028e+01
3.433744e+02	-2.851214e+01
3.453577e+02	-2.856026e+01
3.473525e+02	-2.861498e+01
3.493588e+02	-2.866151e+01
3.513766e+02	-2.871518e+01
3.534062e+02	-2.876149e+01
3.554474e+02	-2.881005e+01
3.575005e+02	-2.886311e+01
3.595654e+02	-2.891065e+01
3.616422e+02	-2.896125e+01
3.637311e+02	-2.900865e+01
3.658320e+02	-2.905600e+01
3.679450e+02	-2.911350e+01
3.700702e+02	-2.915928e+01
3.722077e+02	-2.921358e+01
3.743576e+02	-2.926479e+01
3.765199e+02	-2.931183e+01
3.786946e+02	-2.936397e+01
3.808820e+02	-2.940760e+01
3.830819e+02	-2.946264e+01
3.852946e+02	-2.951243e+01
3.875200e+02	-2.956074e+01
3.897583e+02	-2.961511e+01
3.920096e+02	-2.965948e+01
3.942738e+02	-2.971549e+01
3.965511e+02	-2.975932e+01
3.988416e+02	-2.981206e+01
4.011452e+02	-2.986369e+01
4.034622e+02	-2.991533e+01
4.057926e+02	-2.996360e+01
4.081365e+02	-3.000850e+01
4.104938e+02	-3.006289e+01
4.128648e+02	-3.011266e+01
4.152495e+02	-3.016128e+01
4.176480e+02	-3.021527e+01
4.200603e+02	-3.026452e+01
4.224866e+02	-3.031784e+01
4.249268e+02	-3.036136e+01
4.273812e+02	-3.040996e+01
4.298497e+02	-3.046166e+01
4.323325e+02	-3.051358e+01
4.348297e+02	-3.056282e+01
4.373412e+02	-3.061732e+01
4.398673e+02	-3.065952e+01
4.424079e+02	-3.071248e+01
4.449633e+02	-3.076495e+01
4.475334e+02	-3.080893e+01
4.501183e+02	-3.086323e+01
4.527182e+02	-3.091339e+01
4.553330e+02	-3.096651e+01
4.579630e+02	-3.101444e+01
4.606082e+02	-3.106448e+01
4.632687e+02	-3.111689e+01
4.659445e+02	-3.116427e+01
4.686358e+02	-3.121799e+01
4.713426e+02	-3.126736e+01
4.740650e+02	-3.131274e+01
4.768032e+02	-3.136829e+01
4.795572e+02	-3.141427e+01
4.823271e+02	-3.146642e+01
4.851130e+02	-3.152185e+01
4.879150e+02	-3.156942e+01
4.907332e+02	-3.161349e+01
4.935676e+02	-3.166831e+01
4.964185e+02	-3.172418e+01
4.992858e+02	-3.176463e+01
5.021696e+02	-3.181566e+01
5.050701e+02	-3.187299e+01
5.079874e+02	-3.192272e+01
5.109215e+02	-3.197152e+01
5.138726e+02	-3.202319e+01
5.168407e+02	-3.207296e+01
5.198259e+02	-3.212296e+01
5.228284e+02	-3.216687e+01
5.258482e+02	-3.222048e+01
5.288855e+02	-3.227149e+01
5.319403e+02	-3.232056e+01
5.350128e+02	-3.237011e+01
5.381030e+02	-3.242212e+01
5.412111e+02	-3.247086e+01
5.443371e+02	-3.252037e+01
5.474812e+02	-3.256881e+01
5.506434e+02	-3.262677e+01
5.538239e+02	-3.266346e+01
5.570228e+02	-3.272369e+01
5.602401e+02	-3.276325e+01
5.634760e+02	-3.282251e+01
5.667306e+02	-3.287501e+01
5.700040e+02	-3.291381e+01
5.732964e+02	-3.297245e+01
5.766077e+02	-3.303312e+01
5.799382e+02	-3.307640e+01
5.832879e+02	-3.311776e+01
5.866569e+02	-3.318318e+01
5.900454e+02	-3.321973e+01
5.934535e+02	-3.327894e+01
5.968813e+02	-3.332443e+01
6.003288e+02	-3.338141e+01
6.037963e+02	-3.342415e+01
6.072838e+02	-3.347382e+01
6.107914e+02	-3.353318e+01
6.143194e+02	-3.357287e+01
6.178676e+02	-3.362975e+01
6.214364e+02	-3.367357e+01
6.250258e+02	-3.372695e+01
6.286359e+02	-3.377369e+01
6.322669e+02	-3.382583e+01
6.359189e+02	-3.388120e+01
6.395919e+02	-3.393405e+01
6.432862e+02	-3.398530e+01
6.470017e+02	-3.403248e+01
6.507388e+02	-3.407247e+01
6.544974e+02	-3.412659e+01
6.582778e+02	-3.417324e+01
6.620800e+02	-3.422718e+01
6.659041e+02	-3.428419e+01
6.697504e+02	-3.433346e+01
6.736188e+02	-3.437975e+01
6.775096e+02	-3.443457e+01
6.814229e+02	-3.448031e+01
6.853587e+02	-3.453124e+01
6.893173e+02	-3.458446e+01
6.932988e+02	-3.463017e+01
6.973033e+02	-3.468220e+01
7.013309e+02	-3.474434e+01
