Frequency(Hz)	Magnitude(dB)
1.000000e+01	-1.964340e+00
1.005776e+01	-1.982489e+00
1.011585e+01	-2.000747e+00
1.017428e+01	-2.019499e+00
1.023305e+01	-2.038018e+00
1.029215e+01	-2.057062e+00
1.035160e+01	-2.075671e+00
1.041139e+01	-2.095006e+00
1.047153e+01	-2.114062e+00
1.053201e+01	-2.133587e+00
1.059284e+01	-2.153079e+00
1.065403e+01	-2.172699e+00
1.071556e+01	-2.192234e+00
1.077746e+01	-2.212433e+00
1.083971e+01	-2.232242e+00
1.090232e+01	-2.252387e+00
1.096529e+01	-2.272956e+00
1.102862e+01	-2.293367e+00
1.109232e+01	-2.313851e+00
1.115639e+01	-2.334674e+00
1.122083e+01	-2.355578e+00
1.128564e+01	-2.376463e+00
1.135083e+01	-2.397475e+00
1.141639e+01	-2.418851e+00
1.148233e+01	-2.440493e+00
1.154865e+01	-2.461906e+00
1.161536e+01	-2.483760e+00
1.168245e+01	-2.505558e+00
1.174992e+01	-2.527454e+00
1.181779e+01	-2.549527e+00
1.188605e+01	-2.571647e+00
1.195470e+01	-2.594403e+00
1.202375e+01	-2.616859e+00
1.209320e+01	-2.639443e+00
1.216305e+01	-2.662497e+00
1.223330e+01	-2.685643e+00
1.230396e+01	-2.708581e+00
1.237503e+01	-2.731920e+00
1.244651e+01	-2.755261e+00
1.251840e+01	-2.778906e+00
1.259070e+01	-2.802650e+00
1.266343e+01	-2.826346e+00
1.273657e+01	-2.850619e+00
1.281014e+01	-2.874816e+00
1.288413e+01	-2.898943e+00
1.295855e+01	-2.923501e+00
1.303339e+01	-2.947887e+00
1.310867e+01	-2.972925e+00
1.318439e+01	-2.997465e+00
1.326054e+01	-3.022596e+00
1.333713e+01	-3.047440e+00
1.341417e+01	-3.073123e+00
1.349165e+01	-3.098455e+00
1.356958e+01	-3.123980e+00
1.364795e+01	-3.149878e+00
1.372678e+01	-3.175588e+00
1.380607e+01	-3.201652e+00
1.388581e+01	-3.227868e+00
1.396602e+01	-3.253912e+00
1.404668e+01	-3.280674e+00
1.412782e+01	-3.307345e+00
1.420942e+01	-3.333990e+00
1.429149e+01	-3.360816e+00
1.437404e+01	-3.387913e+00
1.445706e+01	-3.415042e+00
1.454057e+01	-3.442458e+00
1.462455e+01	-3.469656e+00
1.470902e+01	-3.497307e+00
1.479398e+01	-3.525026e+00
1.487943e+01	-3.552873e+00
1.496537e+01	-3.580914e+00
1.505181e+01	-3.609109e+00
1.513875e+01	-3.637332e+00
1.522619e+01	-3.665956e+00
1.531414e+01	-3.694397e+00
1.540259e+01	-3.723098e+00
1.549156e+01	-3.751982e+00
1.558103e+01	-3.781113e+00
1.567103e+01	-3.810351e+00
1.576155e+01	-3.839584e+00
1.585258e+01	-3.868808e+00
1.594415e+01	-3.898230e+00
1.603624e+01	-3.928339e+00
1.612886e+01	-3.958052e+00
1.622202e+01	-3.988042e+00
1.631572e+01	-4.018083e+00
1.640996e+01	-4.048511e+00
1.650474e+01	-4.078814e+00
1.660008e+01	-4.109408e+00
1.669596e+01	-4.140129e+00
1.679239e+01	-4.170712e+00
1.688938e+01	-4.202021e+00
1.698694e+01	-4.233012e+00
1.708505e+01	-4.264245e+00
1.718373e+01	-4.295272e+00
1.728299e+01	-4.326903e+00
1.738281e+01	-4.358623e+00
1.748322e+01	-4.390350e+00
1.758420e+01	-4.422176e+00
1.768576e+01	-4.454105e+00
1.778792e+01	-4.486450e+00
1.789066e+01	-4.518910e+00
1.799399e+01	-4.551176e+00
1.809793e+01	-4.583891e+00
1.820246e+01	-4.616428e+00
1.830760e+01	-4.649261e+00
1.841334e+01	-4.682039e+00
1.851969e+01	-4.715166e+00
1.862666e+01	-4.748187e+00
1.873425e+01	-4.781624e+00
1.884246e+01	-4.815204e+00
1.895129e+01	-4.848798e+00
1.906075e+01	-4.882441e+00
1.917085e+01	-4.916162e+00
1.928158e+01	-4.950130e+00
1.939295e+01	-4.984155e+00
1.950496e+01	-5.018555e+00
1.961762e+01	-5.052827e+00
1.973093e+01	-5.087200e+00
1.984490e+01	-5.121960e+00
1.995952e+01	-5.156310e+00
2.007480e+01	-5.191162e+00
2.019076e+01	-5.226293e+00
2.030738e+01	-5.261542e+00
2.042467e+01	-5.296417e+00
2.054264e+01	-5.331984e+00
2.066130e+01	-5.367358e+00
2.078064e+01	-5.402584e+00
2.090066e+01	-5.438782e+00
2.102139e+01	-5.474516e+00
2.114280e+01	-5.510276e+00
2.126492e+01	-5.545995e+00
2.138775e+01	-5.582071e+00
2.151128e+01	-5.618705e+00
2.163553e+01	-5.654795e+00
2.176050e+01	-5.691411e+00
2.188619e+01	-5.728292e+00
2.201260e+01	-5.764729e+00
2.213974e+01	-5.801955e+00
2.226762e+01	-5.838454e+00
2.239624e+01	-5.875683e+00
2.252560e+01	-5.912683e+00
2.265571e+01	-5.949960e+00
2.278656e+01	-5.987315e+00
2.291818e+01	-6.024865e+00
2.305055e+01	-6.062216e+00
2.318369e+01	-6.100042e+00
2.331760e+01	-6.137569e+00
2.345228e+01	-6.175802e+00
2.358774e+01	-6.214007e+00
2.372398e+01	-6.251747e+00
2.386101e+01	-6.289908e+00
2.399883e+01	-6.328078e+00
2.413745e+01	-6.367284e+00
2.427686e+01	-6.405310e+00
2.441709e+01	-6.443956e+00
2.455812e+01	-6.482939e+00
2.469997e+01	-6.521551e+00
2.484263e+01	-6.560591e+00
2.498612e+01	-6.599642e+00
2.513044e+01	-6.638546e+00
2.527559e+01	-6.678195e+00
2.542158e+01	-6.717186e+00
2.556842e+01	-6.756606e+00
2.571610e+01	-6.796121e+00
2.586463e+01	-6.835818e+00
2.601403e+01	-6.875602e+00
2.616428e+01	-6.915019e+00
2.631541e+01	-6.955077e+00
2.646740e+01	-6.994974e+00
2.662028e+01	-7.035329e+00
2.677404e+01	-7.075498e+00
2.692868e+01	-7.116195e+00
2.708422e+01	-7.156004e+00
2.724066e+01	-7.196609e+00
2.739800e+01	-7.236853e+00
2.755625e+01	-7.277662e+00
2.771541e+01	-7.318260e+00
2.787550e+01	-7.358670e+00
2.803650e+01	-7.399907e+00
2.819844e+01	-7.441093e+00
2.836131e+01	-7.482255e+00
2.852513e+01	-7.522898e+00
2.868989e+01	-7.564496e+00
2.885560e+01	-7.605785e+00
2.902227e+01	-7.647100e+00
2.918990e+01	-7.688470e+00
2.935850e+01	-7.729901e+00
2.952807e+01	-7.771968e+00
2.969863e+01	-7.813387e+00
2.987016e+01	-7.855591e+00
3.004269e+01	-7.897142e+00
3.021622e+01	-7.939195e+00
3.039075e+01	-7.980960e+00
3.056628e+01	-8.023197e+00
3.074283e+01	-8.064884e+00
3.092040e+01	-8.107465e+00
3.109900e+01	-8.150007e+00
3.127862e+01	-8.192271e+00
3.145929e+01	-8.234757e+00
3.164099e+01	-8.277822e+00
3.182375e+01	-8.320088e+00
3.200756e+01	-8.362798e+00
3.219244e+01	-8.405593e+00
3.237838e+01	-8.448347e+00
3.256540e+01	-8.490854e+00
3.275349e+01	-8.534054e+00
3.294268e+01	-8.577233e+00
3.313295e+01	-8.620185e+00
3.332433e+01	-8.663761e+00
3.351681e+01	-8.706877e+00
3.371040e+01	-8.749844e+00
3.390511e+01	-8.793708e+00
3.410094e+01	-8.836425e+00
3.429791e+01	-8.880587e+00
3.449601e+01	-8.924041e+00
3.469526e+01	-8.967777e+00
3.489566e+01	-9.011123e+00
3.509721e+01	-9.055226e+00
3.529993e+01	-9.098944e+00
3.550382e+01	-9.142794e+00
3.570889e+01	-9.186942e+00
3.591515e+01	-9.230568e+00
3.612259e+01	-9.275304e+00
3.633123e+01	-9.319364e+00
3.654108e+01	-9.363317e+00
3.675214e+01	-9.407356e+00
3.696442e+01	-9.451237e+00
3.717792e+01	-9.496149e+00
3.739266e+01	-9.540703e+00
3.760864e+01	-9.585245e+00
3.782587e+01	-9.629703e+00
3.804435e+01	-9.674601e+00
3.826409e+01	-9.719212e+00
3.848510e+01	-9.763922e+00
3.870739e+01	-9.808938e+00
3.893096e+01	-9.853085e+00
3.915583e+01	-9.898321e+00
3.938199e+01	-9.943208e+00
3.960946e+01	-9.988096e+00
3.983824e+01	-1.003316e+01
4.006834e+01	-1.007815e+01
4.029978e+01	-1.012353e+01
4.053255e+01	-1.016825e+01
4.076666e+01	-1.021404e+01
4.100213e+01	-1.025908e+01
4.123896e+01	-1.030447e+01
4.147715e+01	-1.034994e+01
4.171672e+01	-1.039525e+01
4.195767e+01	-1.044044e+01
4.220002e+01	-1.048598e+01
4.244377e+01	-1.053282e+01
4.268892e+01	-1.057726e+01
4.293549e+01	-1.062293e+01
4.318348e+01	-1.066982e+01
4.343291e+01	-1.071477e+01
4.368377e+01	-1.076116e+01
4.393609e+01	-1.080592e+01
4.418986e+01	-1.085208e+01
4.444510e+01	-1.089813e+01
4.470182e+01	-1.094400e+01
4.496001e+01	-1.099057e+01
4.521970e+01	-1.103643e+01
4.548089e+01	-1.108233e+01
4.574358e+01	-1.112850e+01
4.600779e+01	-1.117468e+01
4.627353e+01	-1.122051e+01
4.654081e+01	-1.126690e+01
4.680963e+01	-1.131325e+01
4.708000e+01	-1.135978e+01
4.735193e+01	-1.140585e+01
4.762543e+01	-1.145279e+01
4.790051e+01	-1.149848e+01
4.817719e+01	-1.154575e+01
4.845545e+01	-1.159116e+01
4.873533e+01	-1.163872e+01
4.901682e+01	-1.168545e+01
4.929994e+01	-1.173202e+01
4.958470e+01	-1.177887e+01
4.987110e+01	-1.182511e+01
5.015915e+01	-1.187234e+01
5.044887e+01	-1.191898e+01
5.074026e+01	-1.196572e+01
5.103333e+01	-1.201251e+01
5.132810e+01	-1.205952e+01
5.162457e+01	-1.210659e+01
5.192275e+01	-1.215378e+01
5.222265e+01	-1.220016e+01
5.252429e+01	-1.224781e+01
5.282767e+01	-1.229479e+01
5.313280e+01	-1.234127e+01
5.343969e+01	-1.238877e+01
5.374836e+01	-1.243705e+01
5.405880e+01	-1.248255e+01
5.437105e+01	-1.253050e+01
5.468509e+01	-1.257748e+01
5.500095e+01	-1.262480e+01
5.531863e+01	-1.267199e+01
5.563815e+01	-1.271927e+01
5.595951e+01	-1.276680e+01
5.628273e+01	-1.281420e+01
5.660782e+01	-1.286186e+01
5.693479e+01	-1.290891e+01
5.726364e+01	-1.295659e+01
5.759439e+01	-1.300402e+01
5.792705e+01	-1.305074e+01
5.826164e+01	-1.309907e+01
5.859815e+01	-1.314643e+01
5.893662e+01	-1.319429e+01
5.927703e+01	-1.324197e+01
5.961941e+01	-1.328918e+01
5.996377e+01	-1.333693e+01
6.031012e+01	-1.338442e+01
6.065847e+01	-1.343228e+01
6.100883e+01	-1.348106e+01
6.136121e+01	-1.352871e+01
6.171563e+01	-1.357650e+01
6.207210e+01	-1.362428e+01
6.243063e+01	-1.367296e+01
6.279122e+01	-1.372075e+01
6.315390e+01	-1.376775e+01
6.351868e+01	-1.381594e+01
6.388556e+01	-1.386379e+01
6.425456e+01	-1.391228e+01
6.462569e+01	-1.395994e+01
6.499897e+01	-1.400734e+01
6.537440e+01	-1.405492e+01
6.575200e+01	-1.410400e+01
6.613178e+01	-1.415255e+01
6.651375e+01	-1.420049e+01
6.689793e+01	-1.424789e+01
6.728433e+01	-1.429679e+01
6.767297e+01	-1.434470e+01
6.806384e+01	-1.439262e+01
6.845698e+01	-1.444147e+01
6.885238e+01	-1.448891e+01
6.925007e+01	-1.453804e+01
6.965005e+01	-1.458528e+01
7.005235e+01	-1.463373e+01
7.045697e+01	-1.468240e+01
7.086393e+01	-1.473037e+01
7.127323e+01	-1.477881e+01
7.168490e+01	-1.482742e+01
7.209895e+01	-1.487576e+01
7.251539e+01	-1.492375e+01
7.293424e+01	-1.497337e+01
7.335551e+01	-1.502063e+01
7.377920e+01	-1.506941e+01
7.420535e+01	-1.511812e+01
7.463396e+01	-1.516618e+01
7.506504e+01	-1.521502e+01
7.549861e+01	-1.526365e+01
7.593469e+01	-1.531341e+01
7.637328e+01	-1.536069e+01
7.681441e+01	-1.540942e+01
7.725809e+01	-1.545762e+01
7.770433e+01	-1.550737e+01
7.815315e+01	-1.555517e+01
7.860456e+01	-1.560247e+01
7.905857e+01	-1.565153e+01
7.951521e+01	-1.570083e+01
7.997449e+01	-1.575014e+01
8.043642e+01	-1.579858e+01
8.090102e+01	-1.584813e+01
8.136830e+01	-1.589591e+01
8.183828e+01	-1.594499e+01
8.231097e+01	-1.599391e+01
8.278640e+01	-1.604281e+01
8.326457e+01	-1.609033e+01
8.374550e+01	-1.613959e+01
8.422921e+01	-1.618930e+01
8.471572e+01	-1.623769e+01
8.520503e+01	-1.628631e+01
8.569717e+01	-1.633507e+01
8.619215e+01	-1.638360e+01
8.669000e+01	-1.643291e+01
8.719071e+01	-1.648336e+01
8.769432e+01	-1.653159e+01
8.820084e+01	-1.658001e+01
8.871029e+01	-1.662910e+01
8.922267e+01	-1.667791e+01
8.973802e+01	-1.672582e+01
9.025634e+01	-1.677528e+01
9.077766e+01	-1.682406e+01
9.130199e+01	-1.687410e+01
9.182935e+01	-1.692153e+01
9.235975e+01	-1.697191e+01
9.289321e+01	-1.702201e+01
9.342976e+01	-1.706962e+01
9.396941e+01	-1.711771e+01
9.451217e+01	-1.716614e+01
9.505807e+01	-1.721675e+01
9.560712e+01	-1.726602e+01
9.615934e+01	-1.731441e+01
9.671476e+01	-1.736436e+01
9.727338e+01	-1.741439e+01
9.783522e+01	-1.746282e+01
9.840032e+01	-1.751130e+01
9.896867e+01	-1.756060e+01
9.954031e+01	-1.760956e+01
1.001153e+02	-1.765864e+01
1.006935e+02	-1.770909e+01
1.012751e+02	-1.775825e+01
1.018601e+02	-1.780615e+01
1.024484e+02	-1.785465e+01
1.030402e+02	-1.790512e+01
1.036353e+02	-1.795315e+01
1.042339e+02	-1.800309e+01
1.048360e+02	-1.805209e+01
1.054415e+02	-1.810240e+01
1.060505e+02	-1.815110e+01
1.066631e+02	-1.820020e+01
1.072791e+02	-1.825095e+01
1.078988e+02	-1.829748e+01
1.085220e+02	-1.834688e+01
1.091488e+02	-1.839747e+01
1.097793e+02	-1.844662e+01
1.104133e+02	-1.849642e+01
1.110511e+02	-1.854559e+01
1.116925e+02	-1.859518e+01
1.123376e+02	-1.864462e+01
1.129865e+02	-1.869416e+01
1.136391e+02	-1.874292e+01
1.142955e+02	-1.879150e+01
1.149556e+02	-1.884094e+01
1.156196e+02	-1.889153e+01
1.162874e+02	-1.894073e+01
1.169591e+02	-1.898926e+01
1.176347e+02	-1.903992e+01
1.183141e+02	-1.908877e+01
1.189975e+02	-1.913789e+01
1.196848e+02	-1.918690e+01
1.203761e+02	-1.923607e+01
1.210714e+02	-1.928581e+01
1.217707e+02	-1.933561e+01
1.224740e+02	-1.938466e+01
1.231814e+02	-1.943394e+01
1.238929e+02	-1.948536e+01
1.246085e+02	-1.953523e+01
1.253283e+02	-1.958171e+01
1.260522e+02	-1.963397e+01
1.267802e+02	-1.968284e+01
1.275125e+02	-1.973181e+01
1.282490e+02	-1.978096e+01
1.289898e+02	-1.983065e+01
1.297348e+02	-1.988179e+01
1.304842e+02	-1.993023e+01
1.312378e+02	-1.997838e+01
1.319959e+02	-2.002910e+01
1.327583e+02	-2.007803e+01
1.335251e+02	-2.012880e+01
1.342963e+02	-2.017659e+01
1.350720e+02	-2.022719e+01
1.358522e+02	-2.027566e+01
1.366368e+02	-2.032676e+01
1.374260e+02	-2.037559e+01
1.382198e+02	-2.042462e+01
1.390182e+02	-2.047619e+01
1.398211e+02	-2.052405e+01
1.406287e+02	-2.057362e+01
1.414410e+02	-2.062392e+01
1.422579e+02	-2.067404e+01
1.430796e+02	-2.072451e+01
1.439060e+02	-2.077173e+01
1.447372e+02	-2.082271e+01
1.455732e+02	-2.087177e+01
1.464141e+02	-2.092182e+01
1.472597e+02	-2.097201e+01
1.481103e+02	-2.102150e+01
1.489658e+02	-2.106934e+01
1.498262e+02	-2.111889e+01
1.506916e+02	-2.117097e+01
1.515620e+02	-2.121859e+01
1.524374e+02	-2.126902e+01
1.533179e+02	-2.131865e+01
1.542034e+02	-2.136782e+01
1.550941e+02	-2.141881e+01
1.559899e+02	-2.146639e+01
1.568909e+02	-2.151787e+01
1.577971e+02	-2.156556e+01
1.587085e+02	-2.161675e+01
1.596252e+02	-2.166723e+01
1.605472e+02	-2.171866e+01
1.614745e+02	-2.176580e+01
1.624072e+02	-2.181658e+01
1.633453e+02	-2.186427e+01
1.642887e+02	-2.191681e+01
1.652377e+02	-2.196558e+01
1.661921e+02	-2.201582e+01
1.671520e+02	-2.206599e+01
1.681175e+02	-2.211188e+01
1.690885e+02	-2.216392e+01
1.700651e+02	-2.221218e+01
1.710474e+02	-2.226526e+01
1.720354e+02	-2.231140e+01
1.730291e+02	-2.236249e+01
1.740285e+02	-2.241283e+01
1.750337e+02	-2.246043e+01
1.760446e+02	-2.251284e+01
1.770615e+02	-2.256100e+01
1.780842e+02	-2.261227e+01
1.791128e+02	-2.266204e+01
1.801473e+02	-2.271053e+01
1.811878e+02	-2.275991e+01
1.822344e+02	-2.281169e+01
1.832870e+02	-2.286059e+01
1.843456e+02	-2.290842e+01
1.854104e+02	-2.295921e+01
1.864813e+02	-2.301095e+01
1.875584e+02	-2.305607e+01
1.886418e+02	-2.310867e+01
1.897313e+02	-2.315929e+01
1.908272e+02	-2.320876e+01
1.919294e+02	-2.325913e+01
1.930380e+02	-2.330786e+01
1.941530e+02	-2.335825e+01
1.952744e+02	-2.341044e+01
1.964023e+02	-2.345912e+01
1.975367e+02	-2.350869e+01
1.986777e+02	-2.355767e+01
1.998252e+02	-2.360758e+01
2.009794e+02	-2.365669e+01
2.021403e+02	-2.370597e+01
2.033078e+02	-2.375653e+01
2.044821e+02	-2.380650e+01
2.056632e+02	-2.385655e+01
2.068511e+02	-2.390804e+01
2.080459e+02	-2.395718e+01
2.092475e+02	-2.400422e+01
2.104561e+02	-2.405508e+01
2.116717e+02	-2.410515e+01
2.128943e+02	-2.415549e+01
2.141240e+02	-2.420540e+01
2.153608e+02	-2.425464e+01
2.166047e+02	-2.430439e+01
2.178558e+02	-2.435609e+01
2.191141e+02	-2.440539e+01
2.203797e+02	-2.445873e+01
2.216526e+02	-2.450654e+01
2.229329e+02	-2.455251e+01
2.242205e+02	-2.460697e+01
2.255156e+02	-2.465582e+01
2.268182e+02	-2.470529e+01
2.281283e+02	-2.475787e+01
2.294459e+02	-2.480579e+01
2.307712e+02	-2.485326e+01
2.321041e+02	-2.490290e+01
2.334447e+02	-2.495780e+01
2.347931e+02	-2.500319e+01
2.361493e+02	-2.505614e+01
2.375133e+02	-2.510430e+01
2.388851e+02	-2.515469e+01
2.402649e+02	-2.520300e+01
2.416527e+02	-2.525221e+01
2.430484e+02	-2.530365e+01
2.444523e+02	-2.535067e+01
2.458642e+02	-2.540432e+01
2.472843e+02	-2.545300e+01
2.487126e+02	-2.550110e+01
2.501492e+02	-2.555329e+01
2.515940e+02	-2.560547e+01
2.530472e+02	-2.565237e+01
2.545088e+02	-2.570000e+01
2.559789e+02	-2.575529e+01
2.574574e+02	-2.580682e+01
2.589444e+02	-2.585366e+01
2.604401e+02	-2.590772e+01
2.619444e+02	-2.594656e+01
2.634574e+02	-2.600173e+01
2.649791e+02	-2.605319e+01
2.665096e+02	-2.610141e+01
2.680489e+02	-2.615310e+01
2.695972e+02	-2.620370e+01
2.711544e+02	-2.625183e+01
2.727205e+02	-2.630416e+01
2.742958e+02	-2.635252e+01
2.758801e+02	-2.640058e+01
2.774736e+02	-2.645202e+01
2.790762e+02	-2.650236e+01
2.806882e+02	-2.655131e+01
2.823094e+02	-2.660430e+01
2.839400e+02	-2.664849e+01
2.855800e+02	-2.670200e+01
2.872295e+02	-2.675520e+01
2.888886e+02	-2.680264e+01
2.905572e+02	-2.685395e+01
2.922354e+02	-2.690114e+01
2.939234e+02	-2.695446e+01
2.956211e+02	-2.700354e+01
2.973286e+02	-2.705254e+01
2.990459e+02	-2.709984e+01
3.007732e+02	-2.715366e+01
3.025104e+02	-2.720130e+01
3.042577e+02	-2.725038e+01
3.060151e+02	-2.730303e+01
3.077826e+02	-2.735222e+01
3.095604e+02	-2.739849e+01
3.113484e+02	-2.745077e+01
3.131467e+02	-2.750205e+01
3.149554e+02	-2.755101e+01
3.167746e+02	-2.759692e+01
3.186043e+02	-2.765271e+01
3.204445e+02	-2.770053e+01
3.222954e+02	-2.774948e+01
3.241570e+02	-2.780337e+01
3.260293e+02	-2.784559e+01
3.279124e+02	-2.790391e+01
3.298064e+02	-2.795393e+01
3.317114e+02	-2.800038e+01
3.336273e+02	-2.805491e+01
3.355544e+02	-2.810219e+01
3.374925e+02	-2.815137e+01
3.394418e+02	-2.819801e+01
3.414024e+02	-2.825512e+01
3.433744e+02	-2.830075e+01
3.453577e+02	-2.835757e+01
3.473525e+02	-2.840348e+01
3.493588e+02	-2.845606e+01
3.513766e+02	-2.849963e+01
3.534062e+02	-2.855142e+01
3.554474e+02	-2.860390e+01
3.575005e+02	-2.864812e+01
3.595654e+02	-2.870025e+01
3.616422e+02	-2.875282e+01
3.637311e+02	-2.880366e+01
3.658320e+02	-2.885155e+01
3.679450e+02	-2.890018e+01
3.700702e+02	-2.895029e+01
3.722077e+02	-2.900270e+01
3.743576e+02	-2.905341e+01
3.765199e+02	-2.910438e+01
3.786946e+02	-2.915372e+01
3.808820e+02	-2.920542e+01
3.830819e+02	-2.925431e+01
3.852946e+02	-2.930214e+01
3.875200e+02	-2.935822e+01
3.897583e+02	-2.940338e+01
3.920096e+02	-2.944985e+01
3.942738e+02	-2.950376e+01
3.965511e+02	-2.954935e+01
3.988416e+02	-2.959976e+01
4.011452e+02	-2.965162e+01
4.034622e+02	-2.970903e+01
4.057926e+02	-2.975622e+01
4.081365e+02	-2.980328e+01
4.104938e+02	-2.985680e+01
4.128648e+02	-2.990054e+01
4.152495e+02	-2.995859e+01
4.176480e+02	-3.000534e+01
4.200603e+02	-3.005289e+01
4.224866e+02	-3.010828e+01
4.249268e+02	-3.014965e+01
4.273812e+02	-3.020471e+01
4.298497e+02	-3.025857e+01
4.323325e+02	-3.030468e+01
4.348297e+02	-3.035421e+01
4.373412e+02	-3.040404e+01
4.398673e+02	-3.045177e+01
4.424079e+02	-3.050095e+01
4.449633e+02	-3.055370e+01
4.475334e+02	-3.060918e+01
4.501183e+02	-3.065349e+01
4.527182e+02	-3.070454e+01
4.553330e+02	-3.075840e+01
4.579630e+02	-3.080350e+01
4.606082e+02	-3.085562e+01
4.632687e+02	-3.091178e+01
4.659445e+02	-3.095156e+01
4.686358e+02	-3.101155e+01
4.713426e+02	-3.105382e+01
4.740650e+02	-3.110941e+01
4.768032e+02	-3.115359e+01
4.795572e+02	-3.120829e+01
4.823271e+02	-3.125628e+01
4.851130e+02	-3.130950e+01
4.879150e+02	-3.135316e+01
4.907332e+02	-3.141060e+01
4.935676e+02	-3.145823e+01
4.964185e+02	-3.151657e+01
4.992858e+02	-3.156332e+01
5.021696e+02	-3.160687e+01
5.050701e+02	-3.165443e+01
5.079874e+02	-3.171215e+01
5.109215e+02	-3.175681e+01
5.138726e+02	-3.181286e+01
5.168407e+02	-3.185941e+01
5.198259e+02	-3.190741e+01
5.228284e+02	-3.195675e+01
5.258482e+02	-3.201060e+01
5.288855e+02	-3.205393e+01
5.319403e+02	-3.210811e+01
5.350128e+02	-3.215994e+01
5.381030e+02	-3.220725e+01
5.412111e+02	-3.226717e+01
5.443371e+02	-3.230860e+01
5.474812e+02	-3.236204e+01
5.506434e+02	-3.240776e+01
5.538239e+02	-3.246463e+01
5.570228e+02	-3.251971e+01
5.602401e+02	-3.256384e+01
5.634760e+02	-3.261251e+01
5.667306e+02	-3.266405e+01
5.700040e+02	-3.270483e+01
5.732964e+02	-3.276495e+01
5.766077e+02	-3.281908e+01
5.799382e+02	-3.286625e+01
5.832879e+02	-3.291691e+01
5.866569e+02	-3.296651e+01
5.900454e+02	-3.301816e+01
5.934535e+02	-3.306920e+01
5.968813e+02	-3.312025e+01
6.003288e+02	-3.317152e+01
6.037963e+02	-3.321586e+01
6.072838e+02	-3.327196e+01
6.107914e+02	-3.332172e+01
6.143194e+02	-3.337309e+01
6.178676e+02	-3.341849e+01
6.214364e+02	-3.346708e+01
6.250258e+02	-3.351039e+01
6.286359e+02	-3.356643e+01
6.322669e+02	-3.362335e+01
6.359189e+02	-3.366822e+01
6.395919e+02	-3.371621e+01
6.432862e+02	-3.377021e+01
6.470017e+02	-3.382121e+01
6.507388e+02	-3.386899e+01
6.544974e+02	-3.391709e+01
6.582778e+02	-3.397718e+01
6.620800e+02	-3.402266e+01
6.659041e+02	-3.407463e+01
6.697504e+02	-3.412040e+01
6.736188e+02	-3.416872e+01
6.775096e+02	-3.422664e+01
6.814229e+02	-3.427362e+01
6.853587e+02	-3.432550e+01
6.893173e+02	-3.436642e+01
6.932988e+02	-3.442843e+01
6.973033e+02	-3.446892e+01
7.013309e+02	-3.452999e+01
