Frequency(Hz)	Magnitude(dB)
1.000000e+01	-2.020056e+00
1.005776e+01	-2.038623e+00
1.011585e+01	-2.057493e+00
1.017428e+01	-2.076446e+00
1.023305e+01	-2.095471e+00
1.029215e+01	-2.114791e+00
1.035160e+01	-2.133929e+00
1.041139e+01	-2.153476e+00
1.047153e+01	-2.172941e+00
1.053201e+01	-2.192947e+00
1.059284e+01	-2.212947e+00
1.065403e+01	-2.232887e+00
1.071556e+01	-2.253126e+00
1.077746e+01	-2.273411e+00
1.083971e+01	-2.293975e+00
1.090232e+01	-2.314290e+00
1.096529e+01	-2.335283e+00
1.102862e+01	-2.355917e+00
1.109232e+01	-2.376967e+00
1.115639e+01	-2.398228e+00
1.122083e+01	-2.419607e+00
1.128564e+01	-2.440679e+00
1.135083e+01	-2.462530e+00
1.141639e+01	-2.484282e+00
1.148233e+01	-2.506059e+00
1.154865e+01	-2.528059e+00
1.161536e+01	-2.550283e+00
1.168245e+01	-2.572720e+00
1.174992e+01	-2.595039e+00
1.181779e+01	-2.617311e+00
1.188605e+01	-2.640225e+00
1.195470e+01	-2.662848e+00
1.202375e+01	-2.686033e+00
1.209320e+01	-2.709233e+00
1.216305e+01	-2.732319e+00
1.223330e+01	-2.756118e+00
1.230396e+01	-2.779696e+00
1.237503e+01	-2.803333e+00
1.244651e+01	-2.827257e+00
1.251840e+01	-2.851400e+00
1.259070e+01	-2.875228e+00
1.266343e+01	-2.899537e+00
1.273657e+01	-2.923994e+00
1.281014e+01	-2.948834e+00
1.288413e+01	-2.973505e+00
1.295855e+01	-2.998318e+00
1.303339e+01	-3.023332e+00
1.310867e+01	-3.048413e+00
1.318439e+01	-3.073891e+00
1.326054e+01	-3.099171e+00
1.333713e+01	-3.124725e+00
1.341417e+01	-3.150681e+00
1.349165e+01	-3.176529e+00
1.356958e+01	-3.202375e+00
1.364795e+01	-3.228577e+00
1.372678e+01	-3.254802e+00
1.380607e+01	-3.281107e+00
1.388581e+01	-3.307932e+00
1.396602e+01	-3.334530e+00
1.404668e+01	-3.361502e+00
1.412782e+01	-3.388534e+00
1.420942e+01	-3.415717e+00
1.429149e+01	-3.443120e+00
1.437404e+01	-3.470603e+00
1.445706e+01	-3.498320e+00
1.454057e+01	-3.525833e+00
1.462455e+01	-3.553545e+00
1.470902e+01	-3.581801e+00
1.479398e+01	-3.609809e+00
1.487943e+01	-3.637876e+00
1.496537e+01	-3.666716e+00
1.505181e+01	-3.695413e+00
1.513875e+01	-3.723886e+00
1.522619e+01	-3.753049e+00
1.531414e+01	-3.781922e+00
1.540259e+01	-3.811280e+00
1.549156e+01	-3.840385e+00
1.558103e+01	-3.870098e+00
1.567103e+01	-3.899345e+00
1.576155e+01	-3.928939e+00
1.585258e+01	-3.958943e+00
1.594415e+01	-3.988894e+00
1.603624e+01	-4.018958e+00
1.612886e+01	-4.049528e+00
1.622202e+01	-4.079714e+00
1.631572e+01	-4.110389e+00
1.640996e+01	-4.140593e+00
1.650474e+01	-4.171721e+00
1.660008e+01	-4.202714e+00
1.669596e+01	-4.233599e+00
1.679239e+01	-4.264946e+00
1.688938e+01	-4.296506e+00
1.698694e+01	-4.327803e+00
1.708505e+01	-4.359380e+00
1.718373e+01	-4.391510e+00
1.728299e+01	-4.423158e+00
1.738281e+01	-4.455195e+00
1.748322e+01	-4.487401e+00
1.758420e+01	-4.519413e+00
1.768576e+01	-4.552159e+00
1.778792e+01	-4.584622e+00
1.789066e+01	-4.617184e+00
1.799399e+01	-4.649969e+00
1.809793e+01	-4.682861e+00
1.820246e+01	-4.715936e+00
1.830760e+01	-4.749401e+00
1.841334e+01	-4.782532e+00
1.851969e+01	-4.815747e+00
1.862666e+01	-4.849534e+00
1.873425e+01	-4.883325e+00
1.884246e+01	-4.917168e+00
1.895129e+01	-4.951267e+00
1.906075e+01	-4.985532e+00
1.917085e+01	-5.019628e+00
1.928158e+01	-5.053766e+00
1.939295e+01	-5.088181e+00
1.950496e+01	-5.122879e+00
1.961762e+01	-5.157763e+00
1.973093e+01	-5.192266e+00
1.984490e+01	-5.227436e+00
1.995952e+01	-5.262205e+00
2.007480e+01	-5.297449e+00
2.019076e+01	-5.332907e+00
2.030738e+01	-5.368526e+00
2.042467e+01	-5.403875e+00
2.054264e+01	-5.439611e+00
2.066130e+01	-5.475301e+00
2.078064e+01	-5.511456e+00
2.090066e+01	-5.547425e+00
2.102139e+01	-5.583458e+00
2.114280e+01	-5.619460e+00
2.126492e+01	-5.655963e+00
2.138775e+01	-5.692222e+00
2.151128e+01	-5.729122e+00
2.163553e+01	-5.765647e+00
2.176050e+01	-5.802814e+00
2.188619e+01	-5.839528e+00
2.201260e+01	-5.876438e+00
2.213974e+01	-5.913787e+00
2.226762e+01	-5.951160e+00
2.239624e+01	-5.988299e+00
2.252560e+01	-6.025977e+00
2.265571e+01	-6.063509e+00
2.278656e+01	-6.101007e+00
2.291818e+01	-6.138966e+00
2.305055e+01	-6.176924e+00
2.318369e+01	-6.214830e+00
2.331760e+01	-6.253324e+00
2.345228e+01	-6.291473e+00
2.358774e+01	-6.329441e+00
2.372398e+01	-6.367673e+00
2.386101e+01	-6.406974e+00
2.399883e+01	-6.445123e+00
2.413745e+01	-6.483662e+00
2.427686e+01	-6.523121e+00
2.441709e+01	-6.561439e+00
2.455812e+01	-6.600433e+00
2.469997e+01	-6.639643e+00
2.484263e+01	-6.678717e+00
2.498612e+01	-6.718560e+00
2.513044e+01	-6.757934e+00
2.527559e+01	-6.797424e+00
2.542158e+01	-6.836838e+00
2.556842e+01	-6.876580e+00
2.571610e+01	-6.916281e+00
2.586463e+01	-6.956256e+00
2.601403e+01	-6.996153e+00
2.616428e+01	-7.036553e+00
2.631541e+01	-7.076532e+00
2.646740e+01	-7.116878e+00
2.662028e+01	-7.157046e+00
2.677404e+01	-7.197849e+00
2.692868e+01	-7.238402e+00
2.708422e+01	-7.278840e+00
2.724066e+01	-7.319494e+00
2.739800e+01	-7.360487e+00
2.755625e+01	-7.401303e+00
2.771541e+01	-7.442459e+00
2.787550e+01	-7.483417e+00
2.803650e+01	-7.524762e+00
2.819844e+01	-7.565481e+00
2.836131e+01	-7.606767e+00
2.852513e+01	-7.648270e+00
2.868989e+01	-7.689728e+00
2.885560e+01	-7.731654e+00
2.902227e+01	-7.772754e+00
2.918990e+01	-7.814681e+00
2.935850e+01	-7.856367e+00
2.952807e+01	-7.898569e+00
2.969863e+01	-7.940161e+00
2.987016e+01	-7.982341e+00
3.004269e+01	-8.024291e+00
3.021622e+01	-8.066463e+00
3.039075e+01	-8.109175e+00
3.056628e+01	-8.151328e+00
3.074283e+01	-8.193103e+00
3.092040e+01	-8.235932e+00
3.109900e+01	-8.278260e+00
3.127862e+01	-8.321799e+00
3.145929e+01	-8.363573e+00
3.164099e+01	-8.406602e+00
3.182375e+01	-8.449395e+00
3.200756e+01	-8.492157e+00
3.219244e+01	-8.535569e+00
3.237838e+01	-8.578671e+00
3.256540e+01	-8.621848e+00
3.275349e+01	-8.664891e+00
3.294268e+01	-8.708208e+00
3.313295e+01	-8.751280e+00
3.332433e+01	-8.795136e+00
3.351681e+01	-8.838346e+00
3.371040e+01	-8.881864e+00
3.390511e+01	-8.925013e+00
3.410094e+01	-8.968952e+00
3.429791e+01	-9.012941e+00
3.449601e+01	-9.056019e+00
3.469526e+01	-9.100037e+00
3.489566e+01	-9.143965e+00
3.509721e+01	-9.188635e+00
3.529993e+01	-9.232188e+00
3.550382e+01	-9.275901e+00
3.570889e+01	-9.320534e+00
3.591515e+01	-9.364938e+00
3.612259e+01	-9.408624e+00
3.633123e+01	-9.453091e+00
3.654108e+01	-9.497569e+00
3.675214e+01	-9.542087e+00
3.696442e+01	-9.586401e+00
3.717792e+01	-9.631424e+00
3.739266e+01	-9.675456e+00
3.760864e+01	-9.720224e+00
3.782587e+01	-9.764893e+00
3.804435e+01	-9.810042e+00
3.826409e+01	-9.854557e+00
3.848510e+01	-9.899390e+00
3.870739e+01	-9.944462e+00
3.893096e+01	-9.988834e+00
3.915583e+01	-1.003446e+01
3.938199e+01	-1.007947e+01
3.960946e+01	-1.012466e+01
3.983824e+01	-1.017011e+01
4.006834e+01	-1.021463e+01
4.029978e+01	-1.026071e+01
4.053255e+01	-1.030606e+01
4.076666e+01	-1.035101e+01
4.100213e+01	-1.039623e+01
4.123896e+01	-1.044191e+01
4.147715e+01	-1.048794e+01
4.171672e+01	-1.053369e+01
4.195767e+01	-1.057902e+01
4.220002e+01	-1.062475e+01
4.244377e+01	-1.067039e+01
4.268892e+01	-1.071622e+01
4.293549e+01	-1.076181e+01
4.318348e+01	-1.080781e+01
4.343291e+01	-1.085386e+01
4.368377e+01	-1.089990e+01
4.393609e+01	-1.094530e+01
4.418986e+01	-1.099099e+01
4.444510e+01	-1.103750e+01
4.470182e+01	-1.108334e+01
4.496001e+01	-1.113028e+01
4.521970e+01	-1.117612e+01
4.548089e+01	-1.122260e+01
4.574358e+01	-1.126859e+01
4.600779e+01	-1.131481e+01
4.627353e+01	-1.136210e+01
4.654081e+01	-1.140720e+01
4.680963e+01	-1.145396e+01
4.708000e+01	-1.150086e+01
4.735193e+01	-1.154675e+01
4.762543e+01	-1.159358e+01
4.790051e+01	-1.164019e+01
4.817719e+01	-1.168697e+01
4.845545e+01	-1.173281e+01
4.873533e+01	-1.177996e+01
4.901682e+01	-1.182630e+01
4.929994e+01	-1.187390e+01
4.958470e+01	-1.192015e+01
4.987110e+01	-1.196759e+01
5.015915e+01	-1.201431e+01
5.044887e+01	-1.206060e+01
5.074026e+01	-1.210808e+01
5.103333e+01	-1.215458e+01
5.132810e+01	-1.220188e+01
5.162457e+01	-1.224870e+01
5.192275e+01	-1.229553e+01
5.222265e+01	-1.234348e+01
5.252429e+01	-1.238939e+01
5.282767e+01	-1.243712e+01
5.313280e+01	-1.248538e+01
5.343969e+01	-1.253219e+01
5.374836e+01	-1.257932e+01
5.405880e+01	-1.262622e+01
5.437105e+01	-1.267339e+01
5.468509e+01	-1.272092e+01
5.500095e+01	-1.276901e+01
5.531863e+01	-1.281526e+01
5.563815e+01	-1.286344e+01
5.595951e+01	-1.291049e+01
5.628273e+01	-1.295804e+01
5.660782e+01	-1.300543e+01
5.693479e+01	-1.305244e+01
5.726364e+01	-1.310029e+01
5.759439e+01	-1.314866e+01
5.792705e+01	-1.319600e+01
5.826164e+01	-1.324302e+01
5.859815e+01	-1.329092e+01
5.893662e+01	-1.333851e+01
5.927703e+01	-1.338693e+01
5.961941e+01	-1.343386e+01
5.996377e+01	-1.348190e+01
6.031012e+01	-1.353019e+01
6.065847e+01	-1.357849e+01
6.100883e+01	-1.362543e+01
6.136121e+01	-1.367322e+01
6.171563e+01	-1.372135e+01
6.207210e+01	-1.376990e+01
6.243063e+01	-1.381705e+01
6.279122e+01	-1.386501e+01
6.315390e+01	-1.391324e+01
6.351868e+01	-1.396115e+01
6.388556e+01	-1.400908e+01
6.425456e+01	-1.405727e+01
6.462569e+01	-1.410531e+01
6.499897e+01	-1.415386e+01
6.537440e+01	-1.420166e+01
6.575200e+01	-1.425102e+01
6.613178e+01	-1.429744e+01
6.651375e+01	-1.434588e+01
6.689793e+01	-1.439451e+01
6.728433e+01	-1.444337e+01
6.767297e+01	-1.449087e+01
6.806384e+01	-1.453853e+01
6.845698e+01	-1.458639e+01
6.885238e+01	-1.463533e+01
6.925007e+01	-1.468405e+01
6.965005e+01	-1.473207e+01
7.005235e+01	-1.478007e+01
7.045697e+01	-1.482945e+01
7.086393e+01	-1.487745e+01
7.127323e+01	-1.492589e+01
7.168490e+01	-1.497475e+01
7.209895e+01	-1.502274e+01
7.251539e+01	-1.507039e+01
7.293424e+01	-1.511972e+01
7.335551e+01	-1.516843e+01
7.377920e+01	-1.521656e+01
7.420535e+01	-1.526525e+01
7.463396e+01	-1.531420e+01
7.506504e+01	-1.536200e+01
7.549861e+01	-1.541089e+01
7.593469e+01	-1.545982e+01
7.637328e+01	-1.550760e+01
7.681441e+01	-1.555650e+01
7.725809e+01	-1.560455e+01
7.770433e+01	-1.565357e+01
7.815315e+01	-1.570179e+01
7.860456e+01	-1.575104e+01
7.905857e+01	-1.579965e+01
7.951521e+01	-1.584822e+01
7.997449e+01	-1.589794e+01
8.043642e+01	-1.594622e+01
8.090102e+01	-1.599459e+01
8.136830e+01	-1.604364e+01
8.183828e+01	-1.609238e+01
8.231097e+01	-1.614052e+01
8.278640e+01	-1.618940e+01
8.326457e+01	-1.623918e+01
8.374550e+01	-1.628784e+01
8.422921e+01	-1.633635e+01
8.471572e+01	-1.638652e+01
8.520503e+01	-1.643388e+01
8.569717e+01	-1.648277e+01
8.619215e+01	-1.653169e+01
8.669000e+01	-1.658107e+01
8.719071e+01	-1.662945e+01
8.769432e+01	-1.667854e+01
8.820084e+01	-1.672735e+01
8.871029e+01	-1.677699e+01
8.922267e+01	-1.682652e+01
8.973802e+01	-1.687415e+01
9.025634e+01	-1.692426e+01
9.077766e+01	-1.697340e+01
9.130199e+01	-1.702228e+01
9.182935e+01	-1.706935e+01
9.235975e+01	-1.711862e+01
9.289321e+01	-1.716852e+01
9.342976e+01	-1.721801e+01
9.396941e+01	-1.726774e+01
9.451217e+01	-1.731475e+01
9.505807e+01	-1.736602e+01
9.560712e+01	-1.741634e+01
9.615934e+01	-1.746440e+01
9.671476e+01	-1.751350e+01
9.727338e+01	-1.756170e+01
9.783522e+01	-1.761043e+01
9.840032e+01	-1.766084e+01
9.896867e+01	-1.771002e+01
9.954031e+01	-1.775891e+01
1.001153e+02	-1.780830e+01
1.006935e+02	-1.785768e+01
1.012751e+02	-1.790733e+01
1.018601e+02	-1.795533e+01
1.024484e+02	-1.800466e+01
1.030402e+02	-1.805315e+01
1.036353e+02	-1.810335e+01
1.042339e+02	-1.815301e+01
1.048360e+02	-1.820163e+01
1.054415e+02	-1.825006e+01
1.060505e+02	-1.829876e+01
1.066631e+02	-1.834883e+01
1.072791e+02	-1.839814e+01
1.078988e+02	-1.844794e+01
1.085220e+02	-1.849781e+01
1.091488e+02	-1.854568e+01
1.097793e+02	-1.859563e+01
1.104133e+02	-1.864592e+01
1.110511e+02	-1.869423e+01
1.116925e+02	-1.874396e+01
1.123376e+02	-1.879211e+01
1.129865e+02	-1.884289e+01
1.136391e+02	-1.889293e+01
1.142955e+02	-1.894283e+01
1.149556e+02	-1.899147e+01
1.156196e+02	-1.904237e+01
1.162874e+02	-1.908993e+01
1.169591e+02	-1.913872e+01
1.176347e+02	-1.918907e+01
1.183141e+02	-1.923814e+01
1.189975e+02	-1.928881e+01
1.196848e+02	-1.933751e+01
1.203761e+02	-1.938590e+01
1.210714e+02	-1.943472e+01
1.217707e+02	-1.948607e+01
1.224740e+02	-1.953313e+01
1.231814e+02	-1.958586e+01
1.238929e+02	-1.963432e+01
1.246085e+02	-1.968194e+01
1.253283e+02	-1.973294e+01
1.260522e+02	-1.978174e+01
1.267802e+02	-1.983284e+01
1.275125e+02	-1.988096e+01
1.282490e+02	-1.993086e+01
1.289898e+02	-1.998136e+01
1.297348e+02	-2.002973e+01
1.304842e+02	-2.008039e+01
1.312378e+02	-2.012911e+01
1.319959e+02	-2.018085e+01
1.327583e+02	-2.022850e+01
1.335251e+02	-2.027854e+01
1.342963e+02	-2.032781e+01
1.350720e+02	-2.037707e+01
1.358522e+02	-2.042800e+01
1.366368e+02	-2.047766e+01
1.374260e+02	-2.052553e+01
1.382198e+02	-2.057657e+01
1.390182e+02	-2.062461e+01
1.398211e+02	-2.067567e+01
1.406287e+02	-2.072412e+01
1.414410e+02	-2.077245e+01
1.422579e+02	-2.082544e+01
1.430796e+02	-2.087474e+01
1.439060e+02	-2.092422e+01
1.447372e+02	-2.097197e+01
1.455732e+02	-2.102212e+01
1.464141e+02	-2.107213e+01
1.472597e+02	-2.112195e+01
1.481103e+02	-2.117194e+01
1.489658e+02	-2.122069e+01
1.498262e+02	-2.127167e+01
1.506916e+02	-2.132084e+01
1.515620e+02	-2.136809e+01
1.524374e+02	-2.141967e+01
1.533179e+02	-2.146917e+01
1.542034e+02	-2.152017e+01
1.550941e+02	-2.156740e+01
1.559899e+02	-2.161637e+01
1.568909e+02	-2.166719e+01
1.577971e+02	-2.171813e+01
1.587085e+02	-2.176866e+01
1.596252e+02	-2.181843e+01
1.605472e+02	-2.186650e+01
1.614745e+02	-2.191686e+01
1.624072e+02	-2.196585e+01
1.633453e+02	-2.201626e+01
1.642887e+02	-2.206621e+01
1.652377e+02	-2.211607e+01
1.661921e+02	-2.216431e+01
1.671520e+02	-2.221362e+01
1.681175e+02	-2.226416e+01
1.690885e+02	-2.231446e+01
1.700651e+02	-2.236556e+01
1.710474e+02	-2.241416e+01
1.720354e+02	-2.246302e+01
1.730291e+02	-2.251447e+01
1.740285e+02	-2.256172e+01
1.750337e+02	-2.261360e+01
1.760446e+02	-2.266340e+01
1.770615e+02	-2.271200e+01
1.780842e+02	-2.276260e+01
1.791128e+02	-2.281137e+01
1.801473e+02	-2.286266e+01
1.811878e+02	-2.291189e+01
1.822344e+02	-2.296190e+01
1.832870e+02	-2.301354e+01
1.843456e+02	-2.305971e+01
1.854104e+02	-2.310928e+01
1.864813e+02	-2.316218e+01
1.875584e+02	-2.321075e+01
1.886418e+02	-2.326098e+01
1.897313e+02	-2.330803e+01
1.908272e+02	-2.335751e+01
1.919294e+02	-2.341070e+01
1.930380e+02	-2.346271e+01
1.941530e+02	-2.350943e+01
1.952744e+02	-2.355827e+01
1.964023e+02	-2.360862e+01
1.975367e+02	-2.365898e+01
1.986777e+02	-2.370707e+01
1.998252e+02	-2.375987e+01
2.009794e+02	-2.380661e+01
2.021403e+02	-2.385739e+01
2.033078e+02	-2.390959e+01
2.044821e+02	-2.395940e+01
2.056632e+02	-2.400606e+01
2.068511e+02	-2.405705e+01
2.080459e+02	-2.410818e+01
2.092475e+02	-2.415458e+01
2.104561e+02	-2.420902e+01
2.116717e+02	-2.425676e+01
2.128943e+02	-2.430553e+01
2.141240e+02	-2.435651e+01
2.153608e+02	-2.440509e+01
2.166047e+02	-2.445591e+01
2.178558e+02	-2.450742e+01
2.191141e+02	-2.455552e+01
2.203797e+02	-2.460674e+01
2.216526e+02	-2.465394e+01
2.229329e+02	-2.470555e+01
2.242205e+02	-2.475562e+01
2.255156e+02	-2.480737e+01
2.268182e+02	-2.485656e+01
2.281283e+02	-2.490524e+01
2.294459e+02	-2.495486e+01
2.307712e+02	-2.500445e+01
2.321041e+02	-2.505168e+01
2.334447e+02	-2.510451e+01
2.347931e+02	-2.515537e+01
2.361493e+02	-2.520443e+01
2.375133e+02	-2.525617e+01
2.388851e+02	-2.530582e+01
2.402649e+02	-2.535433e+01
2.416527e+02	-2.540425e+01
2.430484e+02	-2.545473e+01
2.444523e+02	-2.550547e+01
2.458642e+02	-2.555572e+01
2.472843e+02	-2.560765e+01
2.487126e+02	-2.565642e+01
2.501492e+02	-2.570593e+01
2.515940e+02	-2.575211e+01
2.530472e+02	-2.580114e+01
2.545088e+02	-2.585881e+01
2.559789e+02	-2.590417e+01
2.574574e+02	-2.595645e+01
2.589444e+02	-2.600343e+01
2.604401e+02	-2.605538e+01
2.619444e+02	-2.610507e+01
2.634574e+02	-2.615754e+01
2.649791e+02	-2.620341e+01
2.665096e+02	-2.625404e+01
2.680489e+02	-2.630313e+01
2.695972e+02	-2.635353e+01
2.711544e+02	-2.640235e+01
2.727205e+02	-2.645229e+01
2.742958e+02	-2.649973e+01
2.758801e+02	-2.655285e+01
2.774736e+02	-2.660612e+01
2.790762e+02	-2.665549e+01
2.806882e+02	-2.670427e+01
2.823094e+02	-2.675483e+01
2.839400e+02	-2.680385e+01
2.855800e+02	-2.685571e+01
2.872295e+02	-2.690496e+01
2.888886e+02	-2.694950e+01
2.905572e+02	-2.700325e+01
2.922354e+02	-2.705288e+01
2.939234e+02	-2.710140e+01
2.956211e+02	-2.715040e+01
2.973286e+02	-2.720407e+01
2.990459e+02	-2.725005e+01
3.007732e+02	-2.730317e+01
3.025104e+02	-2.735127e+01
3.042577e+02	-2.740528e+01
3.060151e+02	-2.745325e+01
3.077826e+02	-2.750122e+01
3.095604e+02	-2.755258e+01
3.113484e+02	-2.760353e+01
3.131467e+02	-2.765457e+01
3.149554e+02	-2.770272e+01
3.167746e+02	-2.775150e+01
3.186043e+02	-2.780468e+01
3.204445e+02	-2.785405e+01
3.222954e+02	-2.789953e+01
3.241570e+02	-2.795278e+01
3.260293e+02	-2.800165e+01
3.279124e+02	-2.805244e+01
3.298064e+02	-2.810342e+01
3.317114e+02	-2.815560e+01
3.336273e+02	-2.820267e+01
3.355544e+02	-2.825246e+01
3.374925e+02	-2.830354e+01
3.394418e+02	-2.835632e+01
3.414024e+02	-2.840860e+01
3.433744e+02	-2.845668e+01
3.453577e+02	-2.850119e+01
3.473525e+02	-2.855567e+01
3.493588e+02	-2.860213e+01
3.513766e+02	-2.865143e+01
3.534062e+02	-2.870264e+01
3.554474e+02	-2.875284e+01
3.575005e+02	-2.880253e+01
3.595654e+02	-2.885216e+01
3.616422e+02	-2.890376e+01
3.637311e+02	-2.894974e+01
3.658320e+02	-2.900456e+01
3.679450e+02	-2.905399e+01
3.700702e+02	-2.910647e+01
3.722077e+02	-2.915534e+01
3.743576e+02	-2.920718e+01
3.765199e+02	-2.925225e+01
3.786946e+02	-2.930420e+01
3.808820e+02	-2.935248e+01
3.830819e+02	-2.941145e+01
3.852946e+02	-2.945894e+01
3.875200e+02	-2.950319e+01
3.897583e+02	-2.955426e+01
3.920096e+02	-2.960084e+01
3.942738e+02	-2.965279e+01
3.965511e+02	-2.970072e+01
3.988416e+02	-2.975486e+01
4.011452e+02	-2.980791e+01
4.034622e+02	-2.985590e+01
4.057926e+02	-2.990960e+01
4.081365e+02	-2.995821e+01
4.104938e+02	-3.000132e+01
4.128648e+02	-3.005236e+01
4.152495e+02	-3.010628e+01
4.176480e+02	-3.015442e+01
4.200603e+02	-3.020272e+01
4.224866e+02	-3.026027e+01
4.249268e+02	-3.030949e+01
4.273812e+02	-3.035517e+01
4.298497e+02	-3.040718e+01
4.323325e+02	-3.045452e+01
4.348297e+02	-3.050793e+01
4.373412e+02	-3.055984e+01
4.398673e+02	-3.060030e+01
4.424079e+02	-3.065836e+01
4.449633e+02	-3.071273e+01
4.475334e+02	-3.075717e+01
4.501183e+02	-3.080512e+01
4.527182e+02	-3.085578e+01
4.553330e+02	-3.090784e+01
4.579630e+02	-3.095692e+01
4.606082e+02	-3.100703e+01
4.632687e+02	-3.105972e+01
4.659445e+02	-3.110931e+01
4.686358e+02	-3.116149e+01
4.713426e+02	-3.120980e+01
4.740650e+02	-3.125790e+01
4.768032e+02	-3.131521e+01
4.795572e+02	-3.135801e+01
4.823271e+02	-3.140850e+01
4.851130e+02	-3.146144e+01
4.879150e+02	-3.150676e+01
4.907332e+02	-3.156136e+01
4.935676e+02	-3.161078e+01
4.964185e+02	-3.166176e+01
4.992858e+02	-3.171185e+01
5.021696e+02	-3.175814e+01
5.050701e+02	-3.181511e+01
5.079874e+02	-3.186204e+01
5.109215e+02	-3.191068e+01
5.138726e+02	-3.196338e+01
5.168407e+02	-3.201749e+01
5.198259e+02	-3.206050e+01
5.228284e+02	-3.211183e+01
5.258482e+02	-3.215939e+01
5.288855e+02	-3.221546e+01
5.319403e+02	-3.226407e+01
5.350128e+02	-3.231479e+01
5.381030e+02	-3.236061e+01
5.412111e+02	-3.242102e+01
5.443371e+02	-3.245821e+01
5.474812e+02	-3.251345e+01
5.506434e+02	-3.256037e+01
5.538239e+02	-3.261370e+01
5.570228e+02	-3.266570e+01
5.602401e+02	-3.271624e+01
5.634760e+02	-3.277092e+01
5.667306e+02	-3.281227e+01
5.700040e+02	-3.286219e+01
5.732964e+02	-3.290777e+01
5.766077e+02	-3.296343e+01
5.799382e+02	-3.301436e+01
5.832879e+02	-3.306917e+01
5.866569e+02	-3.311025e+01
5.900454e+02	-3.316604e+01
5.934535e+02	-3.322390e+01
5.968813e+02	-3.326694e+01
6.003288e+02	-3.331533e+01
6.037963e+02	-3.336400e+01
6.072838e+02	-3.341815e+01
6.107914e+02	-3.347829e+01
6.143194e+02	-3.351484e+01
6.178676e+02	-3.356824e+01
6.214364e+02	-3.362172e+01
6.250258e+02	-3.367183e+01
6.286359e+02	-3.372277e+01
6.322669e+02	-3.376255e+01
6.359189e+02	-3.382204e+01
6.395919e+02	-3.387395e+01
6.432862e+02	-3.391757e+01
6.470017e+02	-3.397072e+01
6.507388e+02	-3.401951e+01
6.544974e+02	-3.407516e+01
6.582778e+02	-3.412603e+01
6.620800e+02	-3.417774e+01
6.659041e+02	-3.423036e+01
6.697504e+02	-3.427791e+01
6.736188e+02	-3.432136e+01
6.775096e+02	-3.437465e+01
6.814229e+02	-3.442806e+01
6.853587e+02	-3.446908e+01
6.893173e+02	-3.452548e+01
6.932988e+02	-3.458740e+01
6.973033e+02	-3.461930e+01
7.013309e+02	-3.468069e+01
