Frequency(Hz)	Magnitude(dB)
1.000000e+01	-1.728340e-05
1.005776e+01	-1.748363e-05
1.011585e+01	-1.768618e-05
1.017428e+01	-1.789108e-05
1.023305e+01	-1.809836e-05
1.029215e+01	-1.830803e-05
1.035160e+01	-1.852013e-05
1.041139e+01	-1.873469e-05
1.047153e+01	-1.895174e-05
1.053201e+01	-1.917130e-05
1.059284e+01	-1.939341e-05
1.065403e+01	-1.961808e-05
1.071556e+01	-1.984536e-05
1.077746e+01	-2.007528e-05
1.083971e+01	-2.030785e-05
1.090232e+01	-2.054313e-05
1.096529e+01	-2.078112e-05
1.102862e+01	-2.102188e-05
1.109232e+01	-2.126542e-05
1.115639e+01	-2.151179e-05
1.122083e+01	-2.176101e-05
1.128564e+01	-2.201311e-05
1.135083e+01	-2.226814e-05
1.141639e+01	-2.252612e-05
1.148233e+01	-2.278709e-05
1.154865e+01	-2.305109e-05
1.161536e+01	-2.331814e-05
1.168245e+01	-2.358829e-05
1.174992e+01	-2.386156e-05
1.181779e+01	-2.413800e-05
1.188605e+01	-2.441765e-05
1.195470e+01	-2.470053e-05
1.202375e+01	-2.498670e-05
1.209320e+01	-2.527617e-05
1.216305e+01	-2.556900e-05
1.223330e+01	-2.586523e-05
1.230396e+01	-2.616488e-05
1.237503e+01	-2.646801e-05
1.244651e+01	-2.677465e-05
1.251840e+01	-2.708484e-05
1.259070e+01	-2.739862e-05
1.266343e+01	-2.771604e-05
1.273657e+01	-2.803714e-05
1.281014e+01	-2.836196e-05
1.288413e+01	-2.869054e-05
1.295855e+01	-2.902292e-05
1.303339e+01	-2.935916e-05
1.310867e+01	-2.969929e-05
1.318439e+01	-3.004337e-05
1.326054e+01	-3.039143e-05
1.333713e+01	-3.074352e-05
1.341417e+01	-3.109969e-05
1.349165e+01	-3.145999e-05
1.356958e+01	-3.182446e-05
1.364795e+01	-3.219315e-05
1.372678e+01	-3.256612e-05
1.380607e+01	-3.294340e-05
1.388581e+01	-3.332506e-05
1.396602e+01	-3.371114e-05
1.404668e+01	-3.410169e-05
1.412782e+01	-3.449677e-05
1.420942e+01	-3.489642e-05
1.429149e+01	-3.530070e-05
1.437404e+01	-3.570967e-05
1.445706e+01	-3.612337e-05
1.454057e+01	-3.654187e-05
1.462455e+01	-3.696522e-05
1.470902e+01	-3.739347e-05
1.479398e+01	-3.782668e-05
1.487943e+01	-3.826491e-05
1.496537e+01	-3.870822e-05
1.505181e+01	-3.915666e-05
1.513875e+01	-3.961030e-05
1.522619e+01	-4.006920e-05
1.531414e+01	-4.053341e-05
1.540259e+01	-4.100299e-05
1.549156e+01	-4.147802e-05
1.558103e+01	-4.195856e-05
1.567103e+01	-4.244466e-05
1.576155e+01	-4.293639e-05
1.585258e+01	-4.343381e-05
1.594415e+01	-4.393700e-05
1.603624e+01	-4.444602e-05
1.612886e+01	-4.496094e-05
1.622202e+01	-4.548182e-05
1.631572e+01	-4.600874e-05
1.640996e+01	-4.654176e-05
1.650474e+01	-4.708096e-05
1.660008e+01	-4.762640e-05
1.669596e+01	-4.817816e-05
1.679239e+01	-4.873632e-05
1.688938e+01	-4.930094e-05
1.698694e+01	-4.987210e-05
1.708505e+01	-5.044988e-05
1.718373e+01	-5.103435e-05
1.728299e+01	-5.162559e-05
1.738281e+01	-5.222369e-05
1.748322e+01	-5.282871e-05
1.758420e+01	-5.344074e-05
1.768576e+01	-5.405986e-05
1.778792e+01	-5.468616e-05
1.789066e+01	-5.531971e-05
1.799399e+01	-5.596060e-05
1.809793e+01	-5.660891e-05
1.820246e+01	-5.726474e-05
1.830760e+01	-5.792816e-05
1.841334e+01	-5.859927e-05
1.851969e+01	-5.927816e-05
1.862666e+01	-5.996491e-05
1.873425e+01	-6.065961e-05
1.884246e+01	-6.136237e-05
1.895129e+01	-6.207326e-05
1.906075e+01	-6.279239e-05
1.917085e+01	-6.351985e-05
1.928158e+01	-6.425574e-05
1.939295e+01	-6.500016e-05
1.950496e+01	-6.575320e-05
1.961762e+01	-6.651496e-05
1.973093e+01	-6.728555e-05
1.984490e+01	-6.806507e-05
1.995952e+01	-6.885361e-05
2.007480e+01	-6.965129e-05
2.019076e+01	-7.045822e-05
2.030738e+01	-7.127449e-05
2.042467e+01	-7.210022e-05
2.054264e+01	-7.293551e-05
2.066130e+01	-7.378048e-05
2.078064e+01	-7.463524e-05
2.090066e+01	-7.549991e-05
2.102139e+01	-7.637459e-05
2.114280e+01	-7.725940e-05
2.126492e+01	-7.815446e-05
2.138775e+01	-7.905989e-05
2.151128e+01	-7.997582e-05
2.163553e+01	-8.090235e-05
2.176050e+01	-8.183962e-05
2.188619e+01	-8.278774e-05
2.201260e+01	-8.374685e-05
2.213974e+01	-8.471708e-05
2.226762e+01	-8.569854e-05
2.239624e+01	-8.669137e-05
2.252560e+01	-8.769570e-05
2.265571e+01	-8.871167e-05
2.278656e+01	-8.973941e-05
2.291818e+01	-9.077906e-05
2.305055e+01	-9.183075e-05
2.318369e+01	-9.289462e-05
2.331760e+01	-9.397082e-05
2.345228e+01	-9.505948e-05
2.358774e+01	-9.616076e-05
2.372398e+01	-9.727480e-05
2.386101e+01	-9.840174e-05
2.399883e+01	-9.954174e-05
2.413745e+01	-1.006949e-04
2.427686e+01	-1.018615e-04
2.441709e+01	-1.030416e-04
2.455812e+01	-1.042353e-04
2.469997e+01	-1.054429e-04
2.484263e+01	-1.066645e-04
2.498612e+01	-1.079002e-04
2.513044e+01	-1.091503e-04
2.527559e+01	-1.104148e-04
2.542158e+01	-1.116939e-04
2.556842e+01	-1.129879e-04
2.571610e+01	-1.142969e-04
2.586463e+01	-1.156211e-04
2.601403e+01	-1.169605e-04
2.616428e+01	-1.183155e-04
2.631541e+01	-1.196862e-04
2.646740e+01	-1.210728e-04
2.662028e+01	-1.224755e-04
2.677404e+01	-1.238944e-04
2.692868e+01	-1.253297e-04
2.708422e+01	-1.267816e-04
2.724066e+01	-1.282504e-04
2.739800e+01	-1.297362e-04
2.755625e+01	-1.312392e-04
2.771541e+01	-1.327596e-04
2.787550e+01	-1.342977e-04
2.803650e+01	-1.358535e-04
2.819844e+01	-1.374274e-04
2.836131e+01	-1.390195e-04
2.852513e+01	-1.406301e-04
2.868989e+01	-1.422593e-04
2.885560e+01	-1.439074e-04
2.902227e+01	-1.455745e-04
2.918990e+01	-1.472610e-04
2.935850e+01	-1.489671e-04
2.952807e+01	-1.506929e-04
2.969863e+01	-1.524387e-04
2.987016e+01	-1.542047e-04
3.004269e+01	-1.559911e-04
3.021622e+01	-1.577983e-04
3.039075e+01	-1.596264e-04
3.056628e+01	-1.614757e-04
3.074283e+01	-1.633464e-04
3.092040e+01	-1.652388e-04
3.109900e+01	-1.671531e-04
3.127862e+01	-1.690896e-04
3.145929e+01	-1.710485e-04
3.164099e+01	-1.730301e-04
3.182375e+01	-1.750346e-04
3.200756e+01	-1.770624e-04
3.219244e+01	-1.791137e-04
3.237838e+01	-1.811887e-04
3.256540e+01	-1.832878e-04
3.275349e+01	-1.854112e-04
3.294268e+01	-1.875592e-04
3.313295e+01	-1.897321e-04
3.332433e+01	-1.919301e-04
3.351681e+01	-1.941536e-04
3.371040e+01	-1.964029e-04
3.390511e+01	-1.986782e-04
3.410094e+01	-2.009799e-04
3.429791e+01	-2.033083e-04
3.449601e+01	-2.056636e-04
3.469526e+01	-2.080462e-04
3.489566e+01	-2.104564e-04
3.509721e+01	-2.128946e-04
3.529993e+01	-2.153610e-04
3.550382e+01	-2.178559e-04
3.570889e+01	-2.203798e-04
3.591515e+01	-2.229329e-04
3.612259e+01	-2.255155e-04
3.633123e+01	-2.281281e-04
3.654108e+01	-2.307710e-04
3.675214e+01	-2.334445e-04
3.696442e+01	-2.361489e-04
3.717792e+01	-2.388847e-04
3.739266e+01	-2.416522e-04
3.760864e+01	-2.444517e-04
3.782587e+01	-2.472836e-04
3.804435e+01	-2.501484e-04
3.826409e+01	-2.530464e-04
3.848510e+01	-2.559779e-04
3.870739e+01	-2.589434e-04
3.893096e+01	-2.619432e-04
3.915583e+01	-2.649778e-04
3.938199e+01	-2.680476e-04
3.960946e+01	-2.711529e-04
3.983824e+01	-2.742942e-04
4.006834e+01	-2.774718e-04
4.029978e+01	-2.806863e-04
4.053255e+01	-2.839380e-04
4.076666e+01	-2.872274e-04
4.100213e+01	-2.905549e-04
4.123896e+01	-2.939210e-04
4.147715e+01	-2.973260e-04
4.171672e+01	-3.007705e-04
4.195767e+01	-3.042549e-04
4.220002e+01	-3.077796e-04
4.244377e+01	-3.113452e-04
4.268892e+01	-3.149521e-04
4.293549e+01	-3.186008e-04
4.318348e+01	-3.222917e-04
4.343291e+01	-3.260254e-04
4.368377e+01	-3.298024e-04
4.393609e+01	-3.336231e-04
4.418986e+01	-3.374880e-04
4.444510e+01	-3.413978e-04
4.470182e+01	-3.453528e-04
4.496001e+01	-3.493537e-04
4.521970e+01	-3.534009e-04
4.548089e+01	-3.574949e-04
4.574358e+01	-3.616364e-04
4.600779e+01	-3.658259e-04
4.627353e+01	-3.700639e-04
4.654081e+01	-3.743510e-04
4.680963e+01	-3.786878e-04
4.708000e+01	-3.830748e-04
4.735193e+01	-3.875127e-04
4.762543e+01	-3.920019e-04
4.790051e+01	-3.965431e-04
4.817719e+01	-4.011370e-04
4.845545e+01	-4.057841e-04
4.873533e+01	-4.104850e-04
4.901682e+01	-4.152403e-04
4.929994e+01	-4.200508e-04
4.958470e+01	-4.249169e-04
4.987110e+01	-4.298395e-04
5.015915e+01	-4.348190e-04
5.044887e+01	-4.398563e-04
5.074026e+01	-4.449519e-04
5.103333e+01	-4.501065e-04
5.132810e+01	-4.553208e-04
5.162457e+01	-4.605955e-04
5.192275e+01	-4.659314e-04
5.222265e+01	-4.713290e-04
5.252429e+01	-4.767892e-04
5.282767e+01	-4.823126e-04
5.313280e+01	-4.879001e-04
5.343969e+01	-4.935522e-04
5.374836e+01	-4.992698e-04
5.405880e+01	-5.050536e-04
5.437105e+01	-5.109045e-04
5.468509e+01	-5.168231e-04
5.500095e+01	-5.228103e-04
5.531863e+01	-5.288668e-04
5.563815e+01	-5.349935e-04
5.595951e+01	-5.411912e-04
5.628273e+01	-5.474606e-04
5.660782e+01	-5.538027e-04
5.693479e+01	-5.602182e-04
5.726364e+01	-5.667081e-04
5.759439e+01	-5.732731e-04
5.792705e+01	-5.799142e-04
5.826164e+01	-5.866322e-04
5.859815e+01	-5.934281e-04
5.893662e+01	-6.003026e-04
5.927703e+01	-6.072568e-04
5.961941e+01	-6.142915e-04
5.996377e+01	-6.214078e-04
6.031012e+01	-6.286064e-04
6.065847e+01	-6.358885e-04
6.100883e+01	-6.432549e-04
6.136121e+01	-6.507066e-04
6.171563e+01	-6.582446e-04
6.207210e+01	-6.658700e-04
6.243063e+01	-6.735837e-04
6.279122e+01	-6.813867e-04
6.315390e+01	-6.892802e-04
6.351868e+01	-6.972650e-04
6.388556e+01	-7.053424e-04
6.425456e+01	-7.135133e-04
6.462569e+01	-7.217788e-04
6.499897e+01	-7.301401e-04
6.537440e+01	-7.385983e-04
6.575200e+01	-7.471544e-04
6.613178e+01	-7.558097e-04
6.651375e+01	-7.645652e-04
6.689793e+01	-7.734221e-04
6.728433e+01	-7.823816e-04
6.767297e+01	-7.914448e-04
6.806384e+01	-8.006131e-04
6.845698e+01	-8.098876e-04
6.885238e+01	-8.192694e-04
6.925007e+01	-8.287600e-04
6.965005e+01	-8.383605e-04
7.005235e+01	-8.480722e-04
7.045697e+01	-8.578964e-04
7.086393e+01	-8.678343e-04
7.127323e+01	-8.778874e-04
7.168490e+01	-8.880569e-04
7.209895e+01	-8.983443e-04
7.251539e+01	-9.087507e-04
7.293424e+01	-9.192777e-04
7.335551e+01	-9.299267e-04
7.377920e+01	-9.406990e-04
7.420535e+01	-9.515960e-04
7.463396e+01	-9.626193e-04
7.506504e+01	-9.737703e-04
7.549861e+01	-9.850504e-04
7.593469e+01	-9.964611e-04
7.637328e+01	-1.008004e-03
7.681441e+01	-1.019681e-03
7.725809e+01	-1.031493e-03
7.770433e+01	-1.043441e-03
7.815315e+01	-1.055528e-03
7.860456e+01	-1.067755e-03
7.905857e+01	-1.080124e-03
7.951521e+01	-1.092636e-03
7.997449e+01	-1.105293e-03
8.043642e+01	-1.118096e-03
8.090102e+01	-1.131048e-03
8.136830e+01	-1.144150e-03
8.183828e+01	-1.157403e-03
8.231097e+01	-1.170811e-03
8.278640e+01	-1.184373e-03
8.326457e+01	-1.198092e-03
8.374550e+01	-1.211971e-03
8.422921e+01	-1.226010e-03
8.471572e+01	-1.240211e-03
8.520503e+01	-1.254577e-03
8.569717e+01	-1.269110e-03
8.619215e+01	-1.283811e-03
8.669000e+01	-1.298682e-03
8.719071e+01	-1.313725e-03
8.769432e+01	-1.328942e-03
8.820084e+01	-1.344336e-03
8.871029e+01	-1.359908e-03
8.922267e+01	-1.375661e-03
8.973802e+01	-1.391596e-03
9.025634e+01	-1.407715e-03
9.077766e+01	-1.424021e-03
9.130199e+01	-1.440516e-03
9.182935e+01	-1.457202e-03
9.235975e+01	-1.474081e-03
9.289321e+01	-1.491156e-03
9.342976e+01	-1.508428e-03
9.396941e+01	-1.525901e-03
9.451217e+01	-1.543576e-03
9.505807e+01	-1.561455e-03
9.560712e+01	-1.579542e-03
9.615934e+01	-1.597838e-03
9.671476e+01	-1.616346e-03
9.727338e+01	-1.635068e-03
9.783522e+01	-1.654007e-03
9.840032e+01	-1.673165e-03
9.896867e+01	-1.692546e-03
9.954031e+01	-1.712150e-03
1.001153e+02	-1.731982e-03
1.006935e+02	-1.752044e-03
1.012751e+02	-1.772337e-03
1.018601e+02	-1.792866e-03
1.024484e+02	-1.813633e-03
1.030402e+02	-1.834640e-03
1.036353e+02	-1.855890e-03
1.042339e+02	-1.877386e-03
1.048360e+02	-1.899132e-03
1.054415e+02	-1.921129e-03
1.060505e+02	-1.943380e-03
1.066631e+02	-1.965890e-03
1.072791e+02	-1.988660e-03
1.078988e+02	-2.011694e-03
1.085220e+02	-2.034994e-03
1.091488e+02	-2.058565e-03
1.097793e+02	-2.082408e-03
1.104133e+02	-2.106527e-03
1.110511e+02	-2.130926e-03
1.116925e+02	-2.155607e-03
1.123376e+02	-2.180574e-03
1.129865e+02	-2.205830e-03
1.136391e+02	-2.231379e-03
1.142955e+02	-2.257223e-03
1.149556e+02	-2.283367e-03
1.156196e+02	-2.309813e-03
1.162874e+02	-2.336566e-03
1.169591e+02	-2.363628e-03
1.176347e+02	-2.391004e-03
1.183141e+02	-2.418697e-03
1.189975e+02	-2.446710e-03
1.196848e+02	-2.475048e-03
1.203761e+02	-2.503714e-03
1.210714e+02	-2.532711e-03
1.217707e+02	-2.562045e-03
1.224740e+02	-2.591718e-03
1.231814e+02	-2.621735e-03
1.238929e+02	-2.652099e-03
1.246085e+02	-2.682815e-03
1.253283e+02	-2.713886e-03
1.260522e+02	-2.745317e-03
1.267802e+02	-2.777112e-03
1.275125e+02	-2.809275e-03
1.282490e+02	-2.841811e-03
1.289898e+02	-2.874723e-03
1.297348e+02	-2.908016e-03
1.304842e+02	-2.941695e-03
1.312378e+02	-2.975764e-03
1.319959e+02	-3.010227e-03
1.327583e+02	-3.045089e-03
1.335251e+02	-3.080354e-03
1.342963e+02	-3.116028e-03
1.350720e+02	-3.152115e-03
1.358522e+02	-3.188620e-03
1.366368e+02	-3.225547e-03
1.374260e+02	-3.262902e-03
1.382198e+02	-3.300689e-03
1.390182e+02	-3.338914e-03
1.398211e+02	-3.377581e-03
1.406287e+02	-3.416695e-03
1.414410e+02	-3.456263e-03
1.422579e+02	-3.496289e-03
1.430796e+02	-3.536777e-03
1.439060e+02	-3.577735e-03
1.447372e+02	-3.619167e-03
1.455732e+02	-3.661078e-03
1.464141e+02	-3.703474e-03
1.472597e+02	-3.746362e-03
1.481103e+02	-3.789745e-03
1.489658e+02	-3.833631e-03
1.498262e+02	-3.878025e-03
1.506916e+02	-3.922932e-03
1.515620e+02	-3.968360e-03
1.524374e+02	-4.014313e-03
1.533179e+02	-4.060798e-03
1.542034e+02	-4.107821e-03
1.550941e+02	-4.155389e-03
1.559899e+02	-4.203506e-03
1.568909e+02	-4.252181e-03
1.577971e+02	-4.301419e-03
1.587085e+02	-4.351227e-03
1.596252e+02	-4.401612e-03
1.605472e+02	-4.452580e-03
1.614745e+02	-4.504137e-03
1.624072e+02	-4.556291e-03
1.633453e+02	-4.609049e-03
1.642887e+02	-4.662417e-03
1.652377e+02	-4.716403e-03
1.661921e+02	-4.771014e-03
1.671520e+02	-4.826257e-03
1.681175e+02	-4.882138e-03
1.690885e+02	-4.938667e-03
1.700651e+02	-4.995850e-03
1.710474e+02	-5.053694e-03
1.720354e+02	-5.112208e-03
1.730291e+02	-5.171399e-03
1.740285e+02	-5.231275e-03
1.750337e+02	-5.291844e-03
1.760446e+02	-5.353113e-03
1.770615e+02	-5.415091e-03
1.780842e+02	-5.477787e-03
1.791128e+02	-5.541208e-03
1.801473e+02	-5.605363e-03
1.811878e+02	-5.670260e-03
1.822344e+02	-5.735908e-03
1.832870e+02	-5.802315e-03
1.843456e+02	-5.869491e-03
1.854104e+02	-5.937444e-03
1.864813e+02	-6.006183e-03
1.875584e+02	-6.075718e-03
1.886418e+02	-6.146056e-03
1.897313e+02	-6.217209e-03
1.908272e+02	-6.289185e-03
1.919294e+02	-6.361993e-03
1.930380e+02	-6.435643e-03
1.941530e+02	-6.510146e-03
1.952744e+02	-6.585510e-03
1.964023e+02	-6.661747e-03
1.975367e+02	-6.738865e-03
1.986777e+02	-6.816875e-03
1.998252e+02	-6.895787e-03
2.009794e+02	-6.975612e-03
2.021403e+02	-7.056360e-03
2.033078e+02	-7.138043e-03
2.044821e+02	-7.220670e-03
2.056632e+02	-7.304253e-03
2.068511e+02	-7.388802e-03
2.080459e+02	-7.474329e-03
2.092475e+02	-7.560846e-03
2.104561e+02	-7.648363e-03
2.116717e+02	-7.736892e-03
2.128943e+02	-7.826445e-03
2.141240e+02	-7.917033e-03
2.153608e+02	-8.008669e-03
2.166047e+02	-8.101365e-03
2.178558e+02	-8.195133e-03
2.191141e+02	-8.289984e-03
2.203797e+02	-8.385933e-03
2.216526e+02	-8.482991e-03
2.229329e+02	-8.581171e-03
2.242205e+02	-8.680487e-03
2.255156e+02	-8.780950e-03
2.268182e+02	-8.882576e-03
2.281283e+02	-8.985376e-03
2.294459e+02	-9.089364e-03
2.307712e+02	-9.194555e-03
2.321041e+02	-9.300962e-03
2.334447e+02	-9.408599e-03
2.347931e+02	-9.517480e-03
2.361493e+02	-9.627620e-03
2.375133e+02	-9.739033e-03
2.388851e+02	-9.851734e-03
2.402649e+02	-9.965737e-03
2.416527e+02	-1.008106e-02
2.430484e+02	-1.019771e-02
2.444523e+02	-1.031571e-02
2.458642e+02	-1.043508e-02
2.472843e+02	-1.055583e-02
2.487126e+02	-1.067797e-02
2.501492e+02	-1.080152e-02
2.515940e+02	-1.092650e-02
2.530472e+02	-1.105293e-02
2.545088e+02	-1.118081e-02
2.559789e+02	-1.131017e-02
2.574574e+02	-1.144103e-02
2.589444e+02	-1.157340e-02
2.604401e+02	-1.170730e-02
2.619444e+02	-1.184275e-02
2.634574e+02	-1.197976e-02
2.649791e+02	-1.211835e-02
2.665096e+02	-1.225855e-02
2.680489e+02	-1.240036e-02
2.695972e+02	-1.254382e-02
2.711544e+02	-1.268893e-02
2.727205e+02	-1.283571e-02
2.742958e+02	-1.298420e-02
2.758801e+02	-1.313439e-02
2.774736e+02	-1.328633e-02
2.790762e+02	-1.344001e-02
2.806882e+02	-1.359547e-02
2.823094e+02	-1.375273e-02
2.839400e+02	-1.391180e-02
2.855800e+02	-1.407271e-02
2.872295e+02	-1.423548e-02
2.888886e+02	-1.440013e-02
2.905572e+02	-1.456668e-02
2.922354e+02	-1.473515e-02
2.939234e+02	-1.490556e-02
2.956211e+02	-1.507795e-02
2.973286e+02	-1.525232e-02
2.990459e+02	-1.542871e-02
3.007732e+02	-1.560713e-02
3.025104e+02	-1.578761e-02
3.042577e+02	-1.597018e-02
3.060151e+02	-1.615485e-02
3.077826e+02	-1.634166e-02
3.095604e+02	-1.653062e-02
3.113484e+02	-1.672176e-02
3.131467e+02	-1.691511e-02
3.149554e+02	-1.711069e-02
3.167746e+02	-1.730852e-02
3.186043e+02	-1.750864e-02
3.204445e+02	-1.771107e-02
3.222954e+02	-1.791583e-02
3.241570e+02	-1.812295e-02
3.260293e+02	-1.833247e-02
3.279124e+02	-1.854440e-02
3.298064e+02	-1.875878e-02
3.317114e+02	-1.897563e-02
3.336273e+02	-1.919498e-02
3.355544e+02	-1.941686e-02
3.374925e+02	-1.964129e-02
3.394418e+02	-1.986832e-02
3.414024e+02	-2.009797e-02
3.433744e+02	-2.033026e-02
3.453577e+02	-2.056523e-02
3.473525e+02	-2.080291e-02
3.493588e+02	-2.104333e-02
3.513766e+02	-2.128653e-02
3.534062e+02	-2.153252e-02
3.554474e+02	-2.178135e-02
3.575005e+02	-2.203306e-02
3.595654e+02	-2.228766e-02
3.616422e+02	-2.254519e-02
3.637311e+02	-2.280570e-02
3.658320e+02	-2.306920e-02
3.679450e+02	-2.333574e-02
3.700702e+02	-2.360536e-02
3.722077e+02	-2.387808e-02
3.743576e+02	-2.415394e-02
3.765199e+02	-2.443298e-02
3.786946e+02	-2.471523e-02
3.808820e+02	-2.500074e-02
3.830819e+02	-2.528953e-02
3.852946e+02	-2.558165e-02
3.875200e+02	-2.587714e-02
3.897583e+02	-2.617602e-02
3.920096e+02	-2.647835e-02
3.942738e+02	-2.678416e-02
3.965511e+02	-2.709349e-02
3.988416e+02	-2.740638e-02
4.011452e+02	-2.772288e-02
4.034622e+02	-2.804301e-02
4.057926e+02	-2.836683e-02
4.081365e+02	-2.869438e-02
4.104938e+02	-2.902570e-02
4.128648e+02	-2.936083e-02
4.152495e+02	-2.969982e-02
4.176480e+02	-3.004270e-02
4.200603e+02	-3.038953e-02
4.224866e+02	-3.074035e-02
4.249268e+02	-3.109521e-02
4.273812e+02	-3.145415e-02
4.298497e+02	-3.181721e-02
4.323325e+02	-3.218446e-02
4.348297e+02	-3.255592e-02
4.373412e+02	-3.293165e-02
4.398673e+02	-3.331171e-02
4.424079e+02	-3.369613e-02
4.449633e+02	-3.408497e-02
4.475334e+02	-3.447828e-02
4.501183e+02	-3.487612e-02
4.527182e+02	-3.527852e-02
4.553330e+02	-3.568555e-02
4.579630e+02	-3.609725e-02
4.606082e+02	-3.651368e-02
4.632687e+02	-3.693490e-02
4.659445e+02	-3.736096e-02
4.686358e+02	-3.779190e-02
4.713426e+02	-3.822780e-02
4.740650e+02	-3.866870e-02
4.768032e+02	-3.911467e-02
4.795572e+02	-3.956575e-02
4.823271e+02	-4.002201e-02
4.851130e+02	-4.048351e-02
4.879150e+02	-4.095031e-02
4.907332e+02	-4.142246e-02
4.935676e+02	-4.190003e-02
4.964185e+02	-4.238308e-02
4.992858e+02	-4.287167e-02
5.021696e+02	-4.336586e-02
5.050701e+02	-4.386573e-02
5.079874e+02	-4.437132e-02
5.109215e+02	-4.488271e-02
5.138726e+02	-4.539997e-02
5.168407e+02	-4.592315e-02
5.198259e+02	-4.645233e-02
5.228284e+02	-4.698758e-02
5.258482e+02	-4.752895e-02
5.288855e+02	-4.807654e-02
5.319403e+02	-4.863039e-02
5.350128e+02	-4.919059e-02
5.381030e+02	-4.975721e-02
5.412111e+02	-5.033031e-02
5.443371e+02	-5.090998e-02
5.474812e+02	-5.149628e-02
5.506434e+02	-5.208929e-02
5.538239e+02	-5.268909e-02
5.570228e+02	-5.329576e-02
5.602401e+02	-5.390937e-02
5.634760e+02	-5.453000e-02
5.667306e+02	-5.515772e-02
5.700040e+02	-5.579263e-02
5.732964e+02	-5.643480e-02
5.766077e+02	-5.708430e-02
5.799382e+02	-5.774124e-02
5.832879e+02	-5.840568e-02
5.866569e+02	-5.907772e-02
5.900454e+02	-5.975744e-02
5.934535e+02	-6.044492e-02
5.968813e+02	-6.114026e-02
6.003288e+02	-6.184353e-02
6.037963e+02	-6.255484e-02
6.072838e+02	-6.327427e-02
6.107914e+02	-6.400192e-02
6.143194e+02	-6.473787e-02
6.178676e+02	-6.548221e-02
6.214364e+02	-6.623505e-02
6.250258e+02	-6.699648e-02
6.286359e+02	-6.776659e-02
6.322669e+02	-6.854549e-02
6.359189e+02	-6.933327e-02
6.395919e+02	-7.013002e-02
6.432862e+02	-7.093586e-02
6.470017e+02	-7.175088e-02
6.507388e+02	-7.257519e-02
6.544974e+02	-7.340888e-02
6.582778e+02	-7.425207e-02
6.620800e+02	-7.510486e-02
6.659041e+02	-7.596736e-02
6.697504e+02	-7.683968e-02
6.736188e+02	-7.772192e-02
6.775096e+02	-7.861421e-02
6.814229e+02	-7.951664e-02
6.853587e+02	-8.042933e-02
6.893173e+02	-8.135240e-02
6.932988e+02	-8.228597e-02
6.973033e+02	-8.323014e-02
7.013309e+02	-8.418505e-02
