Frequency(Hz)	Magnitude(dB)
1.000000e+01	-2.057097e+00
1.005776e+01	-2.076082e+00
1.011585e+01	-2.095126e+00
1.017428e+01	-2.114287e+00
1.023305e+01	-2.133578e+00
1.029215e+01	-2.153302e+00
1.035160e+01	-2.172670e+00
1.041139e+01	-2.192451e+00
1.047153e+01	-2.212572e+00
1.053201e+01	-2.232685e+00
1.059284e+01	-2.252724e+00
1.065403e+01	-2.272901e+00
1.071556e+01	-2.293602e+00
1.077746e+01	-2.313946e+00
1.083971e+01	-2.334732e+00
1.090232e+01	-2.355576e+00
1.096529e+01	-2.376665e+00
1.102862e+01	-2.397574e+00
1.109232e+01	-2.419061e+00
1.115639e+01	-2.440571e+00
1.122083e+01	-2.462061e+00
1.128564e+01	-2.483785e+00
1.135083e+01	-2.505809e+00
1.141639e+01	-2.527767e+00
1.148233e+01	-2.549852e+00
1.154865e+01	-2.572172e+00
1.161536e+01	-2.594527e+00
1.168245e+01	-2.617176e+00
1.174992e+01	-2.639785e+00
1.181779e+01	-2.662540e+00
1.188605e+01	-2.685730e+00
1.195470e+01	-2.709013e+00
1.202375e+01	-2.732302e+00
1.209320e+01	-2.755696e+00
1.216305e+01	-2.779024e+00
1.223330e+01	-2.802642e+00
1.230396e+01	-2.826822e+00
1.237503e+01	-2.850853e+00
1.244651e+01	-2.875033e+00
1.251840e+01	-2.899010e+00
1.259070e+01	-2.923718e+00
1.266343e+01	-2.948011e+00
1.273657e+01	-2.972683e+00
1.281014e+01	-2.997675e+00
1.288413e+01	-3.022910e+00
1.295855e+01	-3.048109e+00
1.303339e+01	-3.073488e+00
1.310867e+01	-3.098754e+00
1.318439e+01	-3.124165e+00
1.326054e+01	-3.149888e+00
1.333713e+01	-3.175792e+00
1.341417e+01	-3.201881e+00
1.349165e+01	-3.228086e+00
1.356958e+01	-3.254386e+00
1.364795e+01	-3.280573e+00
1.372678e+01	-3.307402e+00
1.380607e+01	-3.334119e+00
1.388581e+01	-3.360966e+00
1.396602e+01	-3.387987e+00
1.404668e+01	-3.415106e+00
1.412782e+01	-3.442667e+00
1.420942e+01	-3.469865e+00
1.429149e+01	-3.497400e+00
1.437404e+01	-3.525184e+00
1.445706e+01	-3.553152e+00
1.454057e+01	-3.581207e+00
1.462455e+01	-3.609335e+00
1.470902e+01	-3.637721e+00
1.479398e+01	-3.666078e+00
1.487943e+01	-3.694913e+00
1.496537e+01	-3.723480e+00
1.505181e+01	-3.752411e+00
1.513875e+01	-3.781527e+00
1.522619e+01	-3.810421e+00
1.531414e+01	-3.839904e+00
1.540259e+01	-3.869250e+00
1.549156e+01	-3.898926e+00
1.558103e+01	-3.928393e+00
1.567103e+01	-3.958301e+00
1.576155e+01	-3.988586e+00
1.585258e+01	-4.018654e+00
1.594415e+01	-4.048766e+00
1.603624e+01	-4.078925e+00
1.612886e+01	-4.109412e+00
1.622202e+01	-4.140169e+00
1.631572e+01	-4.171064e+00
1.640996e+01	-4.202287e+00
1.650474e+01	-4.232889e+00
1.660008e+01	-4.264479e+00
1.669596e+01	-4.296007e+00
1.679239e+01	-4.326938e+00
1.688938e+01	-4.358990e+00
1.698694e+01	-4.390443e+00
1.708505e+01	-4.422559e+00
1.718373e+01	-4.454284e+00
1.728299e+01	-4.486471e+00
1.738281e+01	-4.519159e+00
1.748322e+01	-4.551588e+00
1.758420e+01	-4.583858e+00
1.768576e+01	-4.616664e+00
1.778792e+01	-4.649500e+00
1.789066e+01	-4.682377e+00
1.799399e+01	-4.715480e+00
1.809793e+01	-4.748539e+00
1.820246e+01	-4.781821e+00
1.830760e+01	-4.815498e+00
1.841334e+01	-4.848953e+00
1.851969e+01	-4.882791e+00
1.862666e+01	-4.916660e+00
1.873425e+01	-4.950501e+00
1.884246e+01	-4.984359e+00
1.895129e+01	-5.018767e+00
1.906075e+01	-5.053162e+00
1.917085e+01	-5.087987e+00
1.928158e+01	-5.122129e+00
1.939295e+01	-5.156897e+00
1.950496e+01	-5.191838e+00
1.961762e+01	-5.226558e+00
1.973093e+01	-5.261647e+00
1.984490e+01	-5.296964e+00
1.995952e+01	-5.331885e+00
2.007480e+01	-5.367618e+00
2.019076e+01	-5.403147e+00
2.030738e+01	-5.438826e+00
2.042467e+01	-5.474820e+00
2.054264e+01	-5.510377e+00
2.066130e+01	-5.546616e+00
2.078064e+01	-5.582691e+00
2.090066e+01	-5.619032e+00
2.102139e+01	-5.655327e+00
2.114280e+01	-5.691918e+00
2.126492e+01	-5.728439e+00
2.138775e+01	-5.765552e+00
2.151128e+01	-5.801821e+00
2.163553e+01	-5.838533e+00
2.176050e+01	-5.875915e+00
2.188619e+01	-5.912768e+00
2.201260e+01	-5.950320e+00
2.213974e+01	-5.987457e+00
2.226762e+01	-6.025473e+00
2.239624e+01	-6.062823e+00
2.252560e+01	-6.100672e+00
2.265571e+01	-6.138382e+00
2.278656e+01	-6.176268e+00
2.291818e+01	-6.213780e+00
2.305055e+01	-6.251935e+00
2.318369e+01	-6.290593e+00
2.331760e+01	-6.329040e+00
2.345228e+01	-6.367491e+00
2.358774e+01	-6.405644e+00
2.372398e+01	-6.444160e+00
2.386101e+01	-6.483203e+00
2.399883e+01	-6.521899e+00
2.413745e+01	-6.560912e+00
2.427686e+01	-6.599980e+00
2.441709e+01	-6.638837e+00
2.455812e+01	-6.678280e+00
2.469997e+01	-6.717603e+00
2.484263e+01	-6.756947e+00
2.498612e+01	-6.796440e+00
2.513044e+01	-6.836248e+00
2.527559e+01	-6.875974e+00
2.542158e+01	-6.915825e+00
2.556842e+01	-6.955525e+00
2.571610e+01	-6.996090e+00
2.586463e+01	-7.035301e+00
2.601403e+01	-7.075734e+00
2.616428e+01	-7.116345e+00
2.631541e+01	-7.156600e+00
2.646740e+01	-7.197093e+00
2.662028e+01	-7.237326e+00
2.677404e+01	-7.278088e+00
2.692868e+01	-7.318604e+00
2.708422e+01	-7.359837e+00
2.724066e+01	-7.400709e+00
2.739800e+01	-7.441392e+00
2.755625e+01	-7.482372e+00
2.771541e+01	-7.524002e+00
2.787550e+01	-7.565138e+00
2.803650e+01	-7.605911e+00
2.819844e+01	-7.647412e+00
2.836131e+01	-7.688762e+00
2.852513e+01	-7.730297e+00
2.868989e+01	-7.772273e+00
2.885560e+01	-7.813790e+00
2.902227e+01	-7.855403e+00
2.918990e+01	-7.897855e+00
2.935850e+01	-7.938885e+00
2.952807e+01	-7.981391e+00
2.969863e+01	-8.023869e+00
2.987016e+01	-8.065886e+00
3.004269e+01	-8.107930e+00
3.021622e+01	-8.150528e+00
3.039075e+01	-8.192936e+00
3.056628e+01	-8.235288e+00
3.074283e+01	-8.277546e+00
3.092040e+01	-8.320523e+00
3.109900e+01	-8.362969e+00
3.127862e+01	-8.405916e+00
3.145929e+01	-8.448249e+00
3.164099e+01	-8.491552e+00
3.182375e+01	-8.534403e+00
3.200756e+01	-8.577556e+00
3.219244e+01	-8.620262e+00
3.237838e+01	-8.663681e+00
3.256540e+01	-8.707157e+00
3.275349e+01	-8.750197e+00
3.294268e+01	-8.793750e+00
3.313295e+01	-8.837827e+00
3.332433e+01	-8.881077e+00
3.351681e+01	-8.924513e+00
3.371040e+01	-8.968160e+00
3.390511e+01	-9.012052e+00
3.410094e+01	-9.055333e+00
3.429791e+01	-9.099300e+00
3.449601e+01	-9.143260e+00
3.469526e+01	-9.187262e+00
3.489566e+01	-9.231337e+00
3.509721e+01	-9.275430e+00
3.529993e+01	-9.319644e+00
3.550382e+01	-9.363623e+00
3.570889e+01	-9.407999e+00
3.591515e+01	-9.452208e+00
3.612259e+01	-9.496882e+00
3.633123e+01	-9.540894e+00
3.654108e+01	-9.586045e+00
3.675214e+01	-9.630656e+00
3.696442e+01	-9.674739e+00
3.717792e+01	-9.719798e+00
3.739266e+01	-9.763984e+00
3.760864e+01	-9.808604e+00
3.782587e+01	-9.853987e+00
3.804435e+01	-9.898419e+00
3.826409e+01	-9.943887e+00
3.848510e+01	-9.988712e+00
3.870739e+01	-1.003351e+01
3.893096e+01	-1.007848e+01
3.915583e+01	-1.012399e+01
3.938199e+01	-1.016896e+01
3.960946e+01	-1.021446e+01
3.983824e+01	-1.025965e+01
4.006834e+01	-1.030534e+01
4.029978e+01	-1.034972e+01
4.053255e+01	-1.039579e+01
4.076666e+01	-1.044091e+01
4.100213e+01	-1.048685e+01
4.123896e+01	-1.053211e+01
4.147715e+01	-1.057746e+01
4.171672e+01	-1.062374e+01
4.195767e+01	-1.066921e+01
4.220002e+01	-1.071494e+01
4.244377e+01	-1.076046e+01
4.268892e+01	-1.080659e+01
4.293549e+01	-1.085280e+01
4.318348e+01	-1.089793e+01
4.343291e+01	-1.094418e+01
4.368377e+01	-1.099005e+01
4.393609e+01	-1.103625e+01
4.418986e+01	-1.108281e+01
4.444510e+01	-1.112920e+01
4.470182e+01	-1.117540e+01
4.496001e+01	-1.122073e+01
4.521970e+01	-1.126755e+01
4.548089e+01	-1.131348e+01
4.574358e+01	-1.136050e+01
4.600779e+01	-1.140659e+01
4.627353e+01	-1.145302e+01
4.654081e+01	-1.149965e+01
4.680963e+01	-1.154608e+01
4.708000e+01	-1.159232e+01
4.735193e+01	-1.163880e+01
4.762543e+01	-1.168531e+01
4.790051e+01	-1.173229e+01
4.817719e+01	-1.177876e+01
4.845545e+01	-1.182562e+01
4.873533e+01	-1.187244e+01
4.901682e+01	-1.191926e+01
4.929994e+01	-1.196596e+01
4.958470e+01	-1.201229e+01
4.987110e+01	-1.206006e+01
5.015915e+01	-1.210706e+01
5.044887e+01	-1.215396e+01
5.074026e+01	-1.220153e+01
5.103333e+01	-1.224748e+01
5.132810e+01	-1.229492e+01
5.162457e+01	-1.234236e+01
5.192275e+01	-1.238941e+01
5.222265e+01	-1.243690e+01
5.252429e+01	-1.248383e+01
5.282767e+01	-1.253053e+01
5.313280e+01	-1.257815e+01
5.343969e+01	-1.262568e+01
5.374836e+01	-1.267250e+01
5.405880e+01	-1.272008e+01
5.437105e+01	-1.276761e+01
5.468509e+01	-1.281450e+01
5.500095e+01	-1.286217e+01
5.531863e+01	-1.291011e+01
5.563815e+01	-1.295695e+01
5.595951e+01	-1.300420e+01
5.628273e+01	-1.305245e+01
5.660782e+01	-1.309909e+01
5.693479e+01	-1.314689e+01
5.726364e+01	-1.319491e+01
5.759439e+01	-1.324253e+01
5.792705e+01	-1.329056e+01
5.826164e+01	-1.333771e+01
5.859815e+01	-1.338573e+01
5.893662e+01	-1.343363e+01
5.927703e+01	-1.348033e+01
5.961941e+01	-1.352916e+01
5.996377e+01	-1.357621e+01
6.031012e+01	-1.362460e+01
6.065847e+01	-1.367223e+01
6.100883e+01	-1.371966e+01
6.136121e+01	-1.376882e+01
6.171563e+01	-1.381622e+01
6.207210e+01	-1.386446e+01
6.243063e+01	-1.391230e+01
6.279122e+01	-1.396098e+01
6.315390e+01	-1.400820e+01
6.351868e+01	-1.405537e+01
6.388556e+01	-1.410457e+01
6.425456e+01	-1.415189e+01
6.462569e+01	-1.420075e+01
6.499897e+01	-1.424876e+01
6.537440e+01	-1.429752e+01
6.575200e+01	-1.434599e+01
6.613178e+01	-1.439364e+01
6.651375e+01	-1.444218e+01
6.689793e+01	-1.448968e+01
6.728433e+01	-1.453835e+01
6.767297e+01	-1.458609e+01
6.806384e+01	-1.463415e+01
6.845698e+01	-1.468317e+01
6.885238e+01	-1.473180e+01
6.925007e+01	-1.478028e+01
6.965005e+01	-1.482901e+01
7.005235e+01	-1.487579e+01
7.045697e+01	-1.492439e+01
7.086393e+01	-1.497298e+01
7.127323e+01	-1.502112e+01
7.168490e+01	-1.506957e+01
7.209895e+01	-1.511865e+01
7.251539e+01	-1.516685e+01
7.293424e+01	-1.521454e+01
7.335551e+01	-1.526453e+01
7.377920e+01	-1.531325e+01
7.420535e+01	-1.536037e+01
7.463396e+01	-1.540959e+01
7.506504e+01	-1.545930e+01
7.549861e+01	-1.550778e+01
7.593469e+01	-1.555555e+01
7.637328e+01	-1.560429e+01
7.681441e+01	-1.565151e+01
7.725809e+01	-1.570313e+01
7.770433e+01	-1.575056e+01
7.815315e+01	-1.579811e+01
7.860456e+01	-1.584773e+01
7.905857e+01	-1.589628e+01
7.951521e+01	-1.594513e+01
7.997449e+01	-1.599387e+01
8.043642e+01	-1.604191e+01
8.090102e+01	-1.609159e+01
8.136830e+01	-1.613981e+01
8.183828e+01	-1.618863e+01
8.231097e+01	-1.623843e+01
8.278640e+01	-1.628766e+01
8.326457e+01	-1.633619e+01
8.374550e+01	-1.638442e+01
8.422921e+01	-1.643416e+01
8.471572e+01	-1.648234e+01
8.520503e+01	-1.653260e+01
8.569717e+01	-1.657934e+01
8.619215e+01	-1.662890e+01
8.669000e+01	-1.667815e+01
8.719071e+01	-1.672703e+01
8.769432e+01	-1.677689e+01
8.820084e+01	-1.682470e+01
8.871029e+01	-1.687452e+01
8.922267e+01	-1.692224e+01
8.973802e+01	-1.697115e+01
9.025634e+01	-1.702095e+01
9.077766e+01	-1.707041e+01
9.130199e+01	-1.711891e+01
9.182935e+01	-1.716822e+01
9.235975e+01	-1.721774e+01
9.289321e+01	-1.726678e+01
9.342976e+01	-1.731509e+01
9.396941e+01	-1.736422e+01
9.451217e+01	-1.741344e+01
9.505807e+01	-1.746374e+01
9.560712e+01	-1.751373e+01
9.615934e+01	-1.756197e+01
9.671476e+01	-1.761139e+01
9.727338e+01	-1.765845e+01
9.783522e+01	-1.770894e+01
9.840032e+01	-1.775884e+01
9.896867e+01	-1.780723e+01
9.954031e+01	-1.785482e+01
1.001153e+02	-1.790511e+01
1.006935e+02	-1.795535e+01
1.012751e+02	-1.800493e+01
1.018601e+02	-1.805341e+01
1.024484e+02	-1.810317e+01
1.030402e+02	-1.815239e+01
1.036353e+02	-1.820137e+01
1.042339e+02	-1.825080e+01
1.048360e+02	-1.829919e+01
1.054415e+02	-1.834845e+01
1.060505e+02	-1.839896e+01
1.066631e+02	-1.844747e+01
1.072791e+02	-1.849696e+01
1.078988e+02	-1.854571e+01
1.085220e+02	-1.859639e+01
1.091488e+02	-1.864463e+01
1.097793e+02	-1.869366e+01
1.104133e+02	-1.874427e+01
1.110511e+02	-1.879329e+01
1.116925e+02	-1.884213e+01
1.123376e+02	-1.889021e+01
1.129865e+02	-1.894031e+01
1.136391e+02	-1.898959e+01
1.142955e+02	-1.903922e+01
1.149556e+02	-1.908885e+01
1.156196e+02	-1.913896e+01
1.162874e+02	-1.918751e+01
1.169591e+02	-1.923643e+01
1.176347e+02	-1.928881e+01
1.183141e+02	-1.933627e+01
1.189975e+02	-1.938513e+01
1.196848e+02	-1.943495e+01
1.203761e+02	-1.948585e+01
1.210714e+02	-1.953548e+01
1.217707e+02	-1.958259e+01
1.224740e+02	-1.963343e+01
1.231814e+02	-1.968190e+01
1.238929e+02	-1.973243e+01
1.246085e+02	-1.978110e+01
1.253283e+02	-1.983041e+01
1.260522e+02	-1.988082e+01
1.267802e+02	-1.993088e+01
1.275125e+02	-1.997919e+01
1.282490e+02	-2.002863e+01
1.289898e+02	-2.007837e+01
1.297348e+02	-2.012796e+01
1.304842e+02	-2.017908e+01
1.312378e+02	-2.022738e+01
1.319959e+02	-2.027733e+01
1.327583e+02	-2.032704e+01
1.335251e+02	-2.037673e+01
1.342963e+02	-2.042616e+01
1.350720e+02	-2.047745e+01
1.358522e+02	-2.052290e+01
1.366368e+02	-2.057527e+01
1.374260e+02	-2.062368e+01
1.382198e+02	-2.067190e+01
1.390182e+02	-2.072144e+01
1.398211e+02	-2.077196e+01
1.406287e+02	-2.082443e+01
1.414410e+02	-2.087159e+01
1.422579e+02	-2.092174e+01
1.430796e+02	-2.097164e+01
1.439060e+02	-2.102227e+01
1.447372e+02	-2.107081e+01
1.455732e+02	-2.112168e+01
1.464141e+02	-2.117027e+01
1.472597e+02	-2.121915e+01
1.481103e+02	-2.127015e+01
1.489658e+02	-2.131767e+01
1.498262e+02	-2.137121e+01
1.506916e+02	-2.141798e+01
1.515620e+02	-2.146759e+01
1.524374e+02	-2.151830e+01
1.533179e+02	-2.156849e+01
1.542034e+02	-2.161725e+01
1.550941e+02	-2.166762e+01
1.559899e+02	-2.171728e+01
1.568909e+02	-2.176524e+01
1.577971e+02	-2.181743e+01
1.587085e+02	-2.186550e+01
1.596252e+02	-2.191591e+01
1.605472e+02	-2.196510e+01
1.614745e+02	-2.201511e+01
1.624072e+02	-2.206568e+01
1.633453e+02	-2.211394e+01
1.642887e+02	-2.216232e+01
1.652377e+02	-2.221335e+01
1.661921e+02	-2.226365e+01
1.671520e+02	-2.231332e+01
1.681175e+02	-2.236318e+01
1.690885e+02	-2.241279e+01
1.700651e+02	-2.246128e+01
1.710474e+02	-2.251373e+01
1.720354e+02	-2.256151e+01
1.730291e+02	-2.261198e+01
1.740285e+02	-2.266116e+01
1.750337e+02	-2.271077e+01
1.760446e+02	-2.276002e+01
1.770615e+02	-2.280998e+01
1.780842e+02	-2.286041e+01
1.791128e+02	-2.291229e+01
1.801473e+02	-2.296054e+01
1.811878e+02	-2.300951e+01
1.822344e+02	-2.305957e+01
1.832870e+02	-2.311151e+01
1.843456e+02	-2.315922e+01
1.854104e+02	-2.321104e+01
1.864813e+02	-2.325959e+01
1.875584e+02	-2.330799e+01
1.886418e+02	-2.335813e+01
1.897313e+02	-2.340811e+01
1.908272e+02	-2.345931e+01
1.919294e+02	-2.350719e+01
1.930380e+02	-2.355773e+01
1.941530e+02	-2.360668e+01
1.952744e+02	-2.365782e+01
1.964023e+02	-2.370981e+01
1.975367e+02	-2.376067e+01
1.986777e+02	-2.380742e+01
1.998252e+02	-2.385591e+01
2.009794e+02	-2.390599e+01
2.021403e+02	-2.395566e+01
2.033078e+02	-2.400696e+01
2.044821e+02	-2.405797e+01
2.056632e+02	-2.410763e+01
2.068511e+02	-2.415586e+01
2.080459e+02	-2.420832e+01
2.092475e+02	-2.425648e+01
2.104561e+02	-2.430557e+01
2.116717e+02	-2.435615e+01
2.128943e+02	-2.440570e+01
2.141240e+02	-2.445595e+01
2.153608e+02	-2.450575e+01
2.166047e+02	-2.455419e+01
2.178558e+02	-2.460439e+01
2.191141e+02	-2.465594e+01
2.203797e+02	-2.470570e+01
2.216526e+02	-2.475610e+01
2.229329e+02	-2.480782e+01
2.242205e+02	-2.485712e+01
2.255156e+02	-2.490457e+01
2.268182e+02	-2.495406e+01
2.281283e+02	-2.500460e+01
2.294459e+02	-2.505493e+01
2.307712e+02	-2.510607e+01
2.321041e+02	-2.515431e+01
2.334447e+02	-2.520505e+01
2.347931e+02	-2.525627e+01
2.361493e+02	-2.530511e+01
2.375133e+02	-2.535330e+01
2.388851e+02	-2.540744e+01
2.402649e+02	-2.545138e+01
2.416527e+02	-2.550454e+01
2.430484e+02	-2.555403e+01
2.444523e+02	-2.560259e+01
2.458642e+02	-2.565436e+01
2.472843e+02	-2.570350e+01
2.487126e+02	-2.575542e+01
2.501492e+02	-2.580617e+01
2.515940e+02	-2.585312e+01
2.530472e+02	-2.590418e+01
2.545088e+02	-2.595754e+01
2.559789e+02	-2.599825e+01
2.574574e+02	-2.605350e+01
2.589444e+02	-2.610459e+01
2.604401e+02	-2.615393e+01
2.619444e+02	-2.620642e+01
2.634574e+02	-2.625360e+01
2.649791e+02	-2.630200e+01
2.665096e+02	-2.635570e+01
2.680489e+02	-2.640472e+01
2.695972e+02	-2.645044e+01
2.711544e+02	-2.650253e+01
2.727205e+02	-2.655209e+01
2.742958e+02	-2.660286e+01
2.758801e+02	-2.665203e+01
2.774736e+02	-2.670103e+01
2.790762e+02	-2.675214e+01
2.806882e+02	-2.680168e+01
2.823094e+02	-2.685116e+01
2.839400e+02	-2.690305e+01
2.855800e+02	-2.695370e+01
2.872295e+02	-2.700076e+01
2.888886e+02	-2.705364e+01
2.905572e+02	-2.710307e+01
2.922354e+02	-2.715242e+01
2.939234e+02	-2.720227e+01
2.956211e+02	-2.725069e+01
2.973286e+02	-2.730235e+01
2.990459e+02	-2.735504e+01
3.007732e+02	-2.739769e+01
3.025104e+02	-2.745057e+01
3.042577e+02	-2.750416e+01
3.060151e+02	-2.755130e+01
3.077826e+02	-2.760387e+01
3.095604e+02	-2.765256e+01
3.113484e+02	-2.770390e+01
3.131467e+02	-2.775385e+01
3.149554e+02	-2.780159e+01
3.167746e+02	-2.785102e+01
3.186043e+02	-2.790267e+01
3.204445e+02	-2.794830e+01
3.222954e+02	-2.800353e+01
3.241570e+02	-2.805577e+01
3.260293e+02	-2.810286e+01
3.279124e+02	-2.814956e+01
3.298064e+02	-2.820449e+01
3.317114e+02	-2.825540e+01
3.336273e+02	-2.830412e+01
3.355544e+02	-2.835243e+01
3.374925e+02	-2.840319e+01
3.394418e+02	-2.845386e+01
3.414024e+02	-2.850127e+01
3.433744e+02	-2.855117e+01
3.453577e+02	-2.860538e+01
3.473525e+02	-2.865255e+01
3.493588e+02	-2.870569e+01
3.513766e+02	-2.875393e+01
3.534062e+02	-2.880349e+01
3.554474e+02	-2.884784e+01
3.575005e+02	-2.890315e+01
3.595654e+02	-2.895816e+01
3.616422e+02	-2.900567e+01
3.637311e+02	-2.905571e+01
3.658320e+02	-2.910217e+01
3.679450e+02	-2.915665e+01
3.700702e+02	-2.920555e+01
3.722077e+02	-2.925283e+01
3.743576e+02	-2.930360e+01
3.765199e+02	-2.935708e+01
3.786946e+02	-2.940229e+01
3.808820e+02	-2.944922e+01
3.830819e+02	-2.950572e+01
3.852946e+02	-2.955590e+01
3.875200e+02	-2.960766e+01
3.897583e+02	-2.965217e+01
3.920096e+02	-2.970549e+01
3.942738e+02	-2.975944e+01
3.965511e+02	-2.980634e+01
3.988416e+02	-2.985587e+01
4.011452e+02	-2.990418e+01
4.034622e+02	-2.995584e+01
4.057926e+02	-3.000281e+01
4.081365e+02	-3.005486e+01
4.104938e+02	-3.010475e+01
4.128648e+02	-3.015382e+01
4.152495e+02	-3.020186e+01
4.176480e+02	-3.025989e+01
4.200603e+02	-3.030943e+01
4.224866e+02	-3.035657e+01
4.249268e+02	-3.040766e+01
4.273812e+02	-3.045821e+01
4.298497e+02	-3.050931e+01
4.323325e+02	-3.055502e+01
4.348297e+02	-3.060740e+01
4.373412e+02	-3.065199e+01
4.398673e+02	-3.071346e+01
4.424079e+02	-3.074901e+01
4.449633e+02	-3.080545e+01
4.475334e+02	-3.085543e+01
4.501183e+02	-3.090567e+01
4.527182e+02	-3.095819e+01
4.553330e+02	-3.101136e+01
4.579630e+02	-3.105967e+01
4.606082e+02	-3.110568e+01
4.632687e+02	-3.115862e+01
4.659445e+02	-3.121317e+01
4.686358e+02	-3.125437e+01
4.713426e+02	-3.130717e+01
4.740650e+02	-3.136506e+01
4.768032e+02	-3.140889e+01
4.795572e+02	-3.145990e+01
4.823271e+02	-3.151058e+01
4.851130e+02	-3.156098e+01
4.879150e+02	-3.160725e+01
4.907332e+02	-3.166103e+01
4.935676e+02	-3.171403e+01
4.964185e+02	-3.176376e+01
4.992858e+02	-3.180778e+01
5.021696e+02	-3.186527e+01
5.050701e+02	-3.191106e+01
5.079874e+02	-3.195194e+01
5.109215e+02	-3.200858e+01
5.138726e+02	-3.206059e+01
5.168407e+02	-3.211102e+01
5.198259e+02	-3.216153e+01
5.228284e+02	-3.221290e+01
5.258482e+02	-3.226414e+01
5.288855e+02	-3.230729e+01
5.319403e+02	-3.235863e+01
5.350128e+02	-3.240989e+01
5.381030e+02	-3.246773e+01
5.412111e+02	-3.251568e+01
5.443371e+02	-3.256315e+01
5.474812e+02	-3.261555e+01
5.506434e+02	-3.266009e+01
5.538239e+02	-3.271567e+01
5.570228e+02	-3.276821e+01
5.602401e+02	-3.282354e+01
5.634760e+02	-3.286379e+01
5.667306e+02	-3.291118e+01
5.700040e+02	-3.296520e+01
5.732964e+02	-3.301493e+01
5.766077e+02	-3.306782e+01
5.799382e+02	-3.311459e+01
5.832879e+02	-3.317700e+01
5.866569e+02	-3.322074e+01
5.900454e+02	-3.326588e+01
5.934535e+02	-3.331706e+01
5.968813e+02	-3.337153e+01
6.003288e+02	-3.341381e+01
6.037963e+02	-3.346545e+01
6.072838e+02	-3.351474e+01
6.107914e+02	-3.356351e+01
6.143194e+02	-3.361869e+01
6.178676e+02	-3.366352e+01
6.214364e+02	-3.372030e+01
6.250258e+02	-3.377326e+01
6.286359e+02	-3.382141e+01
6.322669e+02	-3.387656e+01
6.359189e+02	-3.392358e+01
6.395919e+02	-3.397580e+01
6.432862e+02	-3.402162e+01
6.470017e+02	-3.407661e+01
6.507388e+02	-3.411910e+01
6.544974e+02	-3.417080e+01
6.582778e+02	-3.422274e+01
6.620800e+02	-3.426788e+01
6.659041e+02	-3.432696e+01
6.697504e+02	-3.436918e+01
6.736188e+02	-3.442833e+01
6.775096e+02	-3.447646e+01
6.814229e+02	-3.452893e+01
6.853587e+02	-3.457751e+01
6.893173e+02	-3.462674e+01
6.932988e+02	-3.466558e+01
6.973033e+02	-3.473854e+01
7.013309e+02	-3.477994e+01
