Frequency(Hz)	Magnitude(dB)
1.000000e+01	-1.874872e-05
1.005776e+01	-1.896593e-05
1.011585e+01	-1.918565e-05
1.017428e+01	-1.940792e-05
1.023305e+01	-1.963277e-05
1.029215e+01	-1.986022e-05
1.035160e+01	-2.009030e-05
1.041139e+01	-2.032306e-05
1.047153e+01	-2.055850e-05
1.053201e+01	-2.079668e-05
1.059284e+01	-2.103761e-05
1.065403e+01	-2.128134e-05
1.071556e+01	-2.152789e-05
1.077746e+01	-2.177730e-05
1.083971e+01	-2.202959e-05
1.090232e+01	-2.228481e-05
1.096529e+01	-2.254298e-05
1.102862e+01	-2.280415e-05
1.109232e+01	-2.306834e-05
1.115639e+01	-2.333559e-05
1.122083e+01	-2.360594e-05
1.128564e+01	-2.387942e-05
1.135083e+01	-2.415607e-05
1.141639e+01	-2.443593e-05
1.148233e+01	-2.471902e-05
1.154865e+01	-2.500540e-05
1.161536e+01	-2.529509e-05
1.168245e+01	-2.558814e-05
1.174992e+01	-2.588459e-05
1.181779e+01	-2.618447e-05
1.188605e+01	-2.648782e-05
1.195470e+01	-2.679469e-05
1.202375e+01	-2.710511e-05
1.209320e+01	-2.741913e-05
1.216305e+01	-2.773679e-05
1.223330e+01	-2.805813e-05
1.230396e+01	-2.838319e-05
1.237503e+01	-2.871201e-05
1.244651e+01	-2.904465e-05
1.251840e+01	-2.938114e-05
1.259070e+01	-2.972152e-05
1.266343e+01	-3.006586e-05
1.273657e+01	-3.041418e-05
1.281014e+01	-3.076653e-05
1.288413e+01	-3.112297e-05
1.295855e+01	-3.148354e-05
1.303339e+01	-3.184828e-05
1.310867e+01	-3.221725e-05
1.318439e+01	-3.259049e-05
1.326054e+01	-3.296806e-05
1.333713e+01	-3.335001e-05
1.341417e+01	-3.373637e-05
1.349165e+01	-3.412722e-05
1.356958e+01	-3.452259e-05
1.364795e+01	-3.492254e-05
1.372678e+01	-3.532713e-05
1.380607e+01	-3.573640e-05
1.388581e+01	-3.615041e-05
1.396602e+01	-3.656923e-05
1.404668e+01	-3.699289e-05
1.412782e+01	-3.742146e-05
1.420942e+01	-3.785500e-05
1.429149e+01	-3.829355e-05
1.437404e+01	-3.873719e-05
1.445706e+01	-3.918597e-05
1.454057e+01	-3.963995e-05
1.462455e+01	-4.009919e-05
1.470902e+01	-4.056375e-05
1.479398e+01	-4.103369e-05
1.487943e+01	-4.150907e-05
1.496537e+01	-4.198996e-05
1.505181e+01	-4.247643e-05
1.513875e+01	-4.296853e-05
1.522619e+01	-4.346633e-05
1.531414e+01	-4.396989e-05
1.540259e+01	-4.447929e-05
1.549156e+01	-4.499460e-05
1.558103e+01	-4.551587e-05
1.567103e+01	-4.604318e-05
1.576155e+01	-4.657660e-05
1.585258e+01	-4.711620e-05
1.594415e+01	-4.766205e-05
1.603624e+01	-4.821423e-05
1.612886e+01	-4.877280e-05
1.622202e+01	-4.933784e-05
1.631572e+01	-4.990943e-05
1.640996e+01	-5.048764e-05
1.650474e+01	-5.107255e-05
1.660008e+01	-5.166424e-05
1.669596e+01	-5.226278e-05
1.679239e+01	-5.286826e-05
1.688938e+01	-5.348075e-05
1.698694e+01	-5.410033e-05
1.708505e+01	-5.472709e-05
1.718373e+01	-5.536112e-05
1.728299e+01	-5.600249e-05
1.738281e+01	-5.665129e-05
1.748322e+01	-5.730761e-05
1.758420e+01	-5.797153e-05
1.768576e+01	-5.864314e-05
1.778792e+01	-5.932253e-05
1.789066e+01	-6.000979e-05
1.799399e+01	-6.070502e-05
1.809793e+01	-6.140830e-05
1.820246e+01	-6.211973e-05
1.830760e+01	-6.283940e-05
1.841334e+01	-6.356740e-05
1.851969e+01	-6.430384e-05
1.862666e+01	-6.504882e-05
1.873425e+01	-6.580242e-05
1.884246e+01	-6.656475e-05
1.895129e+01	-6.733592e-05
1.906075e+01	-6.811602e-05
1.917085e+01	-6.890515e-05
1.928158e+01	-6.970343e-05
1.939295e+01	-7.051096e-05
1.950496e+01	-7.132784e-05
1.961762e+01	-7.215419e-05
1.973093e+01	-7.299011e-05
1.984490e+01	-7.383571e-05
1.995952e+01	-7.469111e-05
2.007480e+01	-7.555642e-05
2.019076e+01	-7.643176e-05
2.030738e+01	-7.731723e-05
2.042467e+01	-7.821297e-05
2.054264e+01	-7.911908e-05
2.066130e+01	-8.003568e-05
2.078064e+01	-8.096291e-05
2.090066e+01	-8.190088e-05
2.102139e+01	-8.284972e-05
2.114280e+01	-8.380954e-05
2.126492e+01	-8.478049e-05
2.138775e+01	-8.576269e-05
2.151128e+01	-8.675626e-05
2.163553e+01	-8.776135e-05
2.176050e+01	-8.877808e-05
2.188619e+01	-8.980659e-05
2.201260e+01	-9.084701e-05
2.213974e+01	-9.189949e-05
2.226762e+01	-9.296416e-05
2.239624e+01	-9.404116e-05
2.252560e+01	-9.513064e-05
2.265571e+01	-9.623274e-05
2.278656e+01	-9.734761e-05
2.291818e+01	-9.847540e-05
2.305055e+01	-9.961625e-05
2.318369e+01	-1.007703e-04
2.331760e+01	-1.019378e-04
2.345228e+01	-1.031187e-04
2.358774e+01	-1.043134e-04
2.372398e+01	-1.055219e-04
2.386101e+01	-1.067443e-04
2.399883e+01	-1.079810e-04
2.413745e+01	-1.092320e-04
2.427686e+01	-1.104974e-04
2.441709e+01	-1.117776e-04
2.455812e+01	-1.130725e-04
2.469997e+01	-1.143825e-04
2.484263e+01	-1.157076e-04
2.498612e+01	-1.170481e-04
2.513044e+01	-1.184041e-04
2.527559e+01	-1.197758e-04
2.542158e+01	-1.211635e-04
2.556842e+01	-1.225671e-04
2.571610e+01	-1.239871e-04
2.586463e+01	-1.254235e-04
2.601403e+01	-1.268765e-04
2.616428e+01	-1.283464e-04
2.631541e+01	-1.298333e-04
2.646740e+01	-1.313375e-04
2.662028e+01	-1.328590e-04
2.677404e+01	-1.343982e-04
2.692868e+01	-1.359552e-04
2.708422e+01	-1.375303e-04
2.724066e+01	-1.391236e-04
2.739800e+01	-1.407353e-04
2.755625e+01	-1.423658e-04
2.771541e+01	-1.440151e-04
2.787550e+01	-1.456835e-04
2.803650e+01	-1.473713e-04
2.819844e+01	-1.490786e-04
2.836131e+01	-1.508057e-04
2.852513e+01	-1.525528e-04
2.868989e+01	-1.543201e-04
2.885560e+01	-1.561079e-04
2.902227e+01	-1.579164e-04
2.918990e+01	-1.597459e-04
2.935850e+01	-1.615966e-04
2.952807e+01	-1.634687e-04
2.969863e+01	-1.653625e-04
2.987016e+01	-1.672782e-04
3.004269e+01	-1.692161e-04
3.021622e+01	-1.711765e-04
3.039075e+01	-1.731596e-04
3.056628e+01	-1.751657e-04
3.074283e+01	-1.771950e-04
3.092040e+01	-1.792478e-04
3.109900e+01	-1.813244e-04
3.127862e+01	-1.834250e-04
3.145929e+01	-1.855500e-04
3.164099e+01	-1.876996e-04
3.182375e+01	-1.898741e-04
3.200756e+01	-1.920738e-04
3.219244e+01	-1.942990e-04
3.237838e+01	-1.965499e-04
3.256540e+01	-1.988270e-04
3.275349e+01	-2.011304e-04
3.294268e+01	-2.034605e-04
3.313295e+01	-2.058176e-04
3.332433e+01	-2.082020e-04
3.351681e+01	-2.106140e-04
3.371040e+01	-2.130539e-04
3.390511e+01	-2.155222e-04
3.410094e+01	-2.180190e-04
3.429791e+01	-2.205447e-04
3.449601e+01	-2.230997e-04
3.469526e+01	-2.256844e-04
3.489566e+01	-2.282989e-04
3.509721e+01	-2.309437e-04
3.529993e+01	-2.336192e-04
3.550382e+01	-2.363257e-04
3.570889e+01	-2.390635e-04
3.591515e+01	-2.418330e-04
3.612259e+01	-2.446347e-04
3.633123e+01	-2.474688e-04
3.654108e+01	-2.503357e-04
3.675214e+01	-2.532358e-04
3.696442e+01	-2.561695e-04
3.717792e+01	-2.591372e-04
3.739266e+01	-2.621393e-04
3.760864e+01	-2.651762e-04
3.782587e+01	-2.682482e-04
3.804435e+01	-2.713558e-04
3.826409e+01	-2.744995e-04
3.848510e+01	-2.776795e-04
3.870739e+01	-2.808964e-04
3.893096e+01	-2.841506e-04
3.915583e+01	-2.874424e-04
3.938199e+01	-2.907724e-04
3.960946e+01	-2.941410e-04
3.983824e+01	-2.975486e-04
4.006834e+01	-3.009956e-04
4.029978e+01	-3.044826e-04
4.053255e+01	-3.080100e-04
4.076666e+01	-3.115783e-04
4.100213e+01	-3.151879e-04
4.123896e+01	-3.188393e-04
4.147715e+01	-3.225330e-04
4.171672e+01	-3.262695e-04
4.195767e+01	-3.300493e-04
4.220002e+01	-3.338728e-04
4.244377e+01	-3.377407e-04
4.268892e+01	-3.416533e-04
4.293549e+01	-3.456113e-04
4.318348e+01	-3.496152e-04
4.343291e+01	-3.536654e-04
4.368377e+01	-3.577625e-04
4.393609e+01	-3.619071e-04
4.418986e+01	-3.660998e-04
4.444510e+01	-3.703410e-04
4.470182e+01	-3.746313e-04
4.496001e+01	-3.789713e-04
4.521970e+01	-3.833616e-04
4.548089e+01	-3.878027e-04
4.574358e+01	-3.922953e-04
4.600779e+01	-3.968400e-04
4.627353e+01	-4.014373e-04
4.654081e+01	-4.060878e-04
4.680963e+01	-4.107922e-04
4.708000e+01	-4.155511e-04
4.735193e+01	-4.203652e-04
4.762543e+01	-4.252350e-04
4.790051e+01	-4.301612e-04
4.817719e+01	-4.351445e-04
4.845545e+01	-4.401855e-04
4.873533e+01	-4.452849e-04
4.901682e+01	-4.504434e-04
4.929994e+01	-4.556616e-04
4.958470e+01	-4.609403e-04
4.987110e+01	-4.662802e-04
5.015915e+01	-4.716819e-04
5.044887e+01	-4.771461e-04
5.074026e+01	-4.826737e-04
5.103333e+01	-4.882653e-04
5.132810e+01	-4.939216e-04
5.162457e+01	-4.996435e-04
5.192275e+01	-5.054317e-04
5.222265e+01	-5.112869e-04
5.252429e+01	-5.172100e-04
5.282767e+01	-5.232016e-04
5.313280e+01	-5.292627e-04
5.343969e+01	-5.353940e-04
5.374836e+01	-5.415963e-04
5.405880e+01	-5.478704e-04
5.437105e+01	-5.542173e-04
5.468509e+01	-5.606376e-04
5.500095e+01	-5.671323e-04
5.531863e+01	-5.737023e-04
5.563815e+01	-5.803483e-04
5.595951e+01	-5.870714e-04
5.628273e+01	-5.938723e-04
5.660782e+01	-6.007520e-04
5.693479e+01	-6.077114e-04
5.726364e+01	-6.147514e-04
5.759439e+01	-6.218729e-04
5.792705e+01	-6.290770e-04
5.826164e+01	-6.363645e-04
5.859815e+01	-6.437364e-04
5.893662e+01	-6.511937e-04
5.927703e+01	-6.587374e-04
5.961941e+01	-6.663685e-04
5.996377e+01	-6.740879e-04
6.031012e+01	-6.818968e-04
6.065847e+01	-6.897961e-04
6.100883e+01	-6.977870e-04
6.136121e+01	-7.058704e-04
6.171563e+01	-7.140474e-04
6.207210e+01	-7.223191e-04
6.243063e+01	-7.306867e-04
6.279122e+01	-7.391512e-04
6.315390e+01	-7.477137e-04
6.351868e+01	-7.563754e-04
6.388556e+01	-7.651375e-04
6.425456e+01	-7.740010e-04
6.462569e+01	-7.829672e-04
6.499897e+01	-7.920373e-04
6.537440e+01	-8.012124e-04
6.575200e+01	-8.104938e-04
6.613178e+01	-8.198827e-04
6.651375e+01	-8.293804e-04
6.689793e+01	-8.389881e-04
6.728433e+01	-8.487070e-04
6.767297e+01	-8.585385e-04
6.806384e+01	-8.684840e-04
6.845698e+01	-8.785446e-04
6.885238e+01	-8.887217e-04
6.925007e+01	-8.990167e-04
6.965005e+01	-9.094310e-04
7.005235e+01	-9.199659e-04
7.045697e+01	-9.306228e-04
7.086393e+01	-9.414031e-04
7.127323e+01	-9.523084e-04
7.168490e+01	-9.633399e-04
7.209895e+01	-9.744992e-04
7.251539e+01	-9.857878e-04
7.293424e+01	-9.972071e-04
7.335551e+01	-1.008759e-03
7.377920e+01	-1.020444e-03
7.420535e+01	-1.032265e-03
7.463396e+01	-1.044222e-03
7.506504e+01	-1.056318e-03
7.549861e+01	-1.068555e-03
7.593469e+01	-1.080933e-03
7.637328e+01	-1.093454e-03
7.681441e+01	-1.106120e-03
7.725809e+01	-1.118933e-03
7.770433e+01	-1.131895e-03
7.815315e+01	-1.145006e-03
7.860456e+01	-1.158270e-03
7.905857e+01	-1.171687e-03
7.951521e+01	-1.185259e-03
7.997449e+01	-1.198989e-03
8.043642e+01	-1.212878e-03
8.090102e+01	-1.226927e-03
8.136830e+01	-1.241140e-03
8.183828e+01	-1.255516e-03
8.231097e+01	-1.270060e-03
8.278640e+01	-1.284772e-03
8.326457e+01	-1.299654e-03
8.374550e+01	-1.314708e-03
8.422921e+01	-1.329937e-03
8.471572e+01	-1.345343e-03
8.520503e+01	-1.360926e-03
8.569717e+01	-1.376690e-03
8.619215e+01	-1.392637e-03
8.669000e+01	-1.408769e-03
8.719071e+01	-1.425087e-03
8.769432e+01	-1.441594e-03
8.820084e+01	-1.458293e-03
8.871029e+01	-1.475185e-03
8.922267e+01	-1.492272e-03
8.973802e+01	-1.509557e-03
9.025634e+01	-1.527043e-03
9.077766e+01	-1.544731e-03
9.130199e+01	-1.562624e-03
9.182935e+01	-1.580724e-03
9.235975e+01	-1.599034e-03
9.289321e+01	-1.617556e-03
9.342976e+01	-1.636292e-03
9.396941e+01	-1.655245e-03
9.451217e+01	-1.674418e-03
9.505807e+01	-1.693813e-03
9.560712e+01	-1.713432e-03
9.615934e+01	-1.733279e-03
9.671476e+01	-1.753355e-03
9.727338e+01	-1.773664e-03
9.783522e+01	-1.794208e-03
9.840032e+01	-1.814990e-03
9.896867e+01	-1.836013e-03
9.954031e+01	-1.857279e-03
1.001153e+02	-1.878792e-03
1.006935e+02	-1.900553e-03
1.012751e+02	-1.922567e-03
1.018601e+02	-1.944835e-03
1.024484e+02	-1.967361e-03
1.030402e+02	-1.990149e-03
1.036353e+02	-2.013200e-03
1.042339e+02	-2.036518e-03
1.048360e+02	-2.060106e-03
1.054415e+02	-2.083967e-03
1.060505e+02	-2.108104e-03
1.066631e+02	-2.132521e-03
1.072791e+02	-2.157221e-03
1.078988e+02	-2.182207e-03
1.085220e+02	-2.207482e-03
1.091488e+02	-2.233049e-03
1.097793e+02	-2.258913e-03
1.104133e+02	-2.285076e-03
1.110511e+02	-2.311543e-03
1.116925e+02	-2.338315e-03
1.123376e+02	-2.365398e-03
1.129865e+02	-2.392794e-03
1.136391e+02	-2.420507e-03
1.142955e+02	-2.448542e-03
1.149556e+02	-2.476901e-03
1.156196e+02	-2.505588e-03
1.162874e+02	-2.534607e-03
1.169591e+02	-2.563963e-03
1.176347e+02	-2.593658e-03
1.183141e+02	-2.623697e-03
1.189975e+02	-2.654084e-03
1.196848e+02	-2.684823e-03
1.203761e+02	-2.715918e-03
1.210714e+02	-2.747372e-03
1.217707e+02	-2.779191e-03
1.224740e+02	-2.811378e-03
1.231814e+02	-2.843938e-03
1.238929e+02	-2.876875e-03
1.246085e+02	-2.910193e-03
1.253283e+02	-2.943897e-03
1.260522e+02	-2.977991e-03
1.267802e+02	-3.012480e-03
1.275125e+02	-3.047368e-03
1.282490e+02	-3.082660e-03
1.289898e+02	-3.118361e-03
1.297348e+02	-3.154475e-03
1.304842e+02	-3.191007e-03
1.312378e+02	-3.227962e-03
1.319959e+02	-3.265344e-03
1.327583e+02	-3.303160e-03
1.335251e+02	-3.341413e-03
1.342963e+02	-3.380109e-03
1.350720e+02	-3.419253e-03
1.358522e+02	-3.458850e-03
1.366368e+02	-3.498906e-03
1.374260e+02	-3.539425e-03
1.382198e+02	-3.580413e-03
1.390182e+02	-3.621876e-03
1.398211e+02	-3.663819e-03
1.406287e+02	-3.706247e-03
1.414410e+02	-3.749166e-03
1.422579e+02	-3.792582e-03
1.430796e+02	-3.836501e-03
1.439060e+02	-3.880928e-03
1.447372e+02	-3.925869e-03
1.455732e+02	-3.971330e-03
1.464141e+02	-4.017318e-03
1.472597e+02	-4.063838e-03
1.481103e+02	-4.110896e-03
1.489658e+02	-4.158499e-03
1.498262e+02	-4.206653e-03
1.506916e+02	-4.255364e-03
1.515620e+02	-4.304639e-03
1.524374e+02	-4.354485e-03
1.533179e+02	-4.404907e-03
1.542034e+02	-4.455913e-03
1.550941e+02	-4.507509e-03
1.559899e+02	-4.559702e-03
1.568909e+02	-4.612499e-03
1.577971e+02	-4.665908e-03
1.587085e+02	-4.719934e-03
1.596252e+02	-4.774586e-03
1.605472e+02	-4.829870e-03
1.614745e+02	-4.885793e-03
1.624072e+02	-4.942364e-03
1.633453e+02	-4.999590e-03
1.642887e+02	-5.057478e-03
1.652377e+02	-5.116035e-03
1.661921e+02	-5.175270e-03
1.671520e+02	-5.235191e-03
1.681175e+02	-5.295805e-03
1.690885e+02	-5.357120e-03
1.700651e+02	-5.419145e-03
1.710474e+02	-5.481888e-03
1.720354e+02	-5.545356e-03
1.730291e+02	-5.609559e-03
1.740285e+02	-5.674505e-03
1.750337e+02	-5.740202e-03
1.760446e+02	-5.806659e-03
1.770615e+02	-5.873885e-03
1.780842e+02	-5.941889e-03
1.791128e+02	-6.010680e-03
1.801473e+02	-6.080266e-03
1.811878e+02	-6.150657e-03
1.822344e+02	-6.221863e-03
1.832870e+02	-6.293893e-03
1.843456e+02	-6.366756e-03
1.854104e+02	-6.440461e-03
1.864813e+02	-6.515020e-03
1.875584e+02	-6.590440e-03
1.886418e+02	-6.666734e-03
1.897313e+02	-6.743909e-03
1.908272e+02	-6.821978e-03
1.919294e+02	-6.900949e-03
1.930380e+02	-6.980834e-03
1.941530e+02	-7.061643e-03
1.952744e+02	-7.143387e-03
1.964023e+02	-7.226076e-03
1.975367e+02	-7.309721e-03
1.986777e+02	-7.394334e-03
1.998252e+02	-7.479925e-03
2.009794e+02	-7.566506e-03
2.021403e+02	-7.654089e-03
2.033078e+02	-7.742684e-03
2.044821e+02	-7.832304e-03
2.056632e+02	-7.922960e-03
2.068511e+02	-8.014665e-03
2.080459e+02	-8.107430e-03
2.092475e+02	-8.201268e-03
2.104561e+02	-8.296191e-03
2.116717e+02	-8.392211e-03
2.128943e+02	-8.489342e-03
2.141240e+02	-8.587596e-03
2.153608e+02	-8.686985e-03
2.166047e+02	-8.787524e-03
2.178558e+02	-8.889225e-03
2.191141e+02	-8.992103e-03
2.203797e+02	-9.096169e-03
2.216526e+02	-9.201439e-03
2.229329e+02	-9.307925e-03
2.242205e+02	-9.415643e-03
2.255156e+02	-9.524605e-03
2.268182e+02	-9.634828e-03
2.281283e+02	-9.746324e-03
2.294459e+02	-9.859109e-03
2.307712e+02	-9.973198e-03
2.321041e+02	-1.008861e-02
2.334447e+02	-1.020535e-02
2.347931e+02	-1.032344e-02
2.361493e+02	-1.044289e-02
2.375133e+02	-1.056373e-02
2.388851e+02	-1.068596e-02
2.402649e+02	-1.080961e-02
2.416527e+02	-1.093468e-02
2.430484e+02	-1.106120e-02
2.444523e+02	-1.118918e-02
2.458642e+02	-1.131864e-02
2.472843e+02	-1.144960e-02
2.487126e+02	-1.158207e-02
2.501492e+02	-1.171607e-02
2.515940e+02	-1.185161e-02
2.530472e+02	-1.198873e-02
2.545088e+02	-1.212743e-02
2.559789e+02	-1.226773e-02
2.574574e+02	-1.240965e-02
2.589444e+02	-1.255321e-02
2.604401e+02	-1.269843e-02
2.619444e+02	-1.284532e-02
2.634574e+02	-1.299392e-02
2.649791e+02	-1.314423e-02
2.665096e+02	-1.329627e-02
2.680489e+02	-1.345007e-02
2.695972e+02	-1.360565e-02
2.711544e+02	-1.376303e-02
2.727205e+02	-1.392222e-02
2.742958e+02	-1.408325e-02
2.758801e+02	-1.424614e-02
2.774736e+02	-1.441091e-02
2.790762e+02	-1.457758e-02
2.806882e+02	-1.474618e-02
2.823094e+02	-1.491672e-02
2.839400e+02	-1.508924e-02
2.855800e+02	-1.526374e-02
2.872295e+02	-1.544026e-02
2.888886e+02	-1.561882e-02
2.905572e+02	-1.579944e-02
2.922354e+02	-1.598214e-02
2.939234e+02	-1.616695e-02
2.956211e+02	-1.635389e-02
2.973286e+02	-1.654300e-02
2.990459e+02	-1.673428e-02
3.007732e+02	-1.692777e-02
3.025104e+02	-1.712350e-02
3.042577e+02	-1.732148e-02
3.060151e+02	-1.752175e-02
3.077826e+02	-1.772433e-02
3.095604e+02	-1.792924e-02
3.113484e+02	-1.813652e-02
3.131467e+02	-1.834620e-02
3.149554e+02	-1.855829e-02
3.167746e+02	-1.877282e-02
3.186043e+02	-1.898983e-02
3.204445e+02	-1.920935e-02
3.222954e+02	-1.943139e-02
3.241570e+02	-1.965600e-02
3.260293e+02	-1.988320e-02
3.279124e+02	-2.011302e-02
3.298064e+02	-2.034548e-02
3.317114e+02	-2.058063e-02
3.336273e+02	-2.081849e-02
3.355544e+02	-2.105909e-02
3.374925e+02	-2.130247e-02
3.394418e+02	-2.154865e-02
3.414024e+02	-2.179766e-02
3.433744e+02	-2.204955e-02
3.453577e+02	-2.230435e-02
3.473525e+02	-2.256207e-02
3.493588e+02	-2.282277e-02
3.513766e+02	-2.308648e-02
3.534062e+02	-2.335322e-02
3.554474e+02	-2.362303e-02
3.575005e+02	-2.389596e-02
3.595654e+02	-2.417203e-02
3.616422e+02	-2.445127e-02
3.637311e+02	-2.473374e-02
3.658320e+02	-2.501946e-02
3.679450e+02	-2.530847e-02
3.700702e+02	-2.560081e-02
3.722077e+02	-2.589651e-02
3.743576e+02	-2.619563e-02
3.765199e+02	-2.649818e-02
3.786946e+02	-2.680422e-02
3.808820e+02	-2.711378e-02
3.830819e+02	-2.742691e-02
3.852946e+02	-2.774364e-02
3.875200e+02	-2.806401e-02
3.897583e+02	-2.838808e-02
3.920096e+02	-2.871587e-02
3.942738e+02	-2.904744e-02
3.965511e+02	-2.938282e-02
3.988416e+02	-2.972206e-02
4.011452e+02	-3.006520e-02
4.034622e+02	-3.041229e-02
4.057926e+02	-3.076338e-02
4.081365e+02	-3.111850e-02
4.104938e+02	-3.147770e-02
4.128648e+02	-3.184104e-02
4.152495e+02	-3.220856e-02
4.176480e+02	-3.258030e-02
4.200603e+02	-3.295632e-02
4.224866e+02	-3.333666e-02
4.249268e+02	-3.372137e-02
4.273812e+02	-3.411050e-02
4.298497e+02	-3.450411e-02
4.323325e+02	-3.490224e-02
4.348297e+02	-3.530494e-02
4.373412e+02	-3.571227e-02
4.398673e+02	-3.612429e-02
4.424079e+02	-3.654103e-02
4.449633e+02	-3.696256e-02
4.475334e+02	-3.738894e-02
4.501183e+02	-3.782021e-02
4.527182e+02	-3.825643e-02
4.553330e+02	-3.869767e-02
4.579630e+02	-3.914396e-02
4.606082e+02	-3.959539e-02
4.632687e+02	-4.005199e-02
4.659445e+02	-4.051384e-02
4.686358e+02	-4.098098e-02
4.713426e+02	-4.145349e-02
4.740650e+02	-4.193141e-02
4.768032e+02	-4.241483e-02
4.795572e+02	-4.290378e-02
4.823271e+02	-4.339835e-02
4.851130e+02	-4.389858e-02
4.879150e+02	-4.440456e-02
4.907332e+02	-4.491633e-02
4.935676e+02	-4.543397e-02
4.964185e+02	-4.595755e-02
4.992858e+02	-4.648713e-02
5.021696e+02	-4.702277e-02
5.050701e+02	-4.756456e-02
5.079874e+02	-4.811255e-02
5.109215e+02	-4.866682e-02
5.138726e+02	-4.922744e-02
5.168407e+02	-4.979448e-02
5.198259e+02	-5.036801e-02
5.228284e+02	-5.094811e-02
5.258482e+02	-5.153486e-02
5.288855e+02	-5.212831e-02
5.319403e+02	-5.272857e-02
5.350128e+02	-5.333569e-02
5.381030e+02	-5.394975e-02
5.412111e+02	-5.457085e-02
5.443371e+02	-5.519904e-02
5.474812e+02	-5.583443e-02
5.506434e+02	-5.647708e-02
5.538239e+02	-5.712707e-02
5.570228e+02	-5.778450e-02
5.602401e+02	-5.844944e-02
5.634760e+02	-5.912198e-02
5.667306e+02	-5.980221e-02
5.700040e+02	-6.049021e-02
5.732964e+02	-6.118607e-02
5.766077e+02	-6.188987e-02
5.799382e+02	-6.260171e-02
5.832879e+02	-6.332168e-02
5.866569e+02	-6.404987e-02
5.900454e+02	-6.478637e-02
5.934535e+02	-6.553128e-02
5.968813e+02	-6.628468e-02
6.003288e+02	-6.704668e-02
6.037963e+02	-6.781737e-02
6.072838e+02	-6.859685e-02
6.107914e+02	-6.938522e-02
6.143194e+02	-7.018257e-02
6.178676e+02	-7.098901e-02
6.214364e+02	-7.180465e-02
6.250258e+02	-7.262957e-02
6.286359e+02	-7.346389e-02
6.322669e+02	-7.430772e-02
6.359189e+02	-7.516115e-02
6.395919e+02	-7.602429e-02
6.432862e+02	-7.689727e-02
6.470017e+02	-7.778017e-02
6.507388e+02	-7.867312e-02
6.544974e+02	-7.957623e-02
6.582778e+02	-8.048961e-02
6.620800e+02	-8.141337e-02
6.659041e+02	-8.234764e-02
6.697504e+02	-8.329252e-02
6.736188e+02	-8.424814e-02
6.775096e+02	-8.521462e-02
6.814229e+02	-8.619207e-02
6.853587e+02	-8.718063e-02
6.893173e+02	-8.818040e-02
6.932988e+02	-8.919153e-02
6.973033e+02	-9.021412e-02
7.013309e+02	-9.124832e-02
