Frequency(Hz)	Magnitude(dB)
1.000000e+01	-2.134162e+00
1.005776e+01	-2.153879e+00
1.011585e+01	-2.173396e+00
1.017428e+01	-2.192997e+00
1.023305e+01	-2.213108e+00
1.029215e+01	-2.233310e+00
1.035160e+01	-2.253467e+00
1.041139e+01	-2.273660e+00
1.047153e+01	-2.294172e+00
1.053201e+01	-2.314784e+00
1.059284e+01	-2.335365e+00
1.065403e+01	-2.356315e+00
1.071556e+01	-2.377287e+00
1.077746e+01	-2.398483e+00
1.083971e+01	-2.419617e+00
1.090232e+01	-2.441231e+00
1.096529e+01	-2.462825e+00
1.102862e+01	-2.484499e+00
1.109232e+01	-2.506455e+00
1.115639e+01	-2.528496e+00
1.122083e+01	-2.550515e+00
1.128564e+01	-2.572891e+00
1.135083e+01	-2.595316e+00
1.141639e+01	-2.617811e+00
1.148233e+01	-2.640527e+00
1.154865e+01	-2.663370e+00
1.161536e+01	-2.686623e+00
1.168245e+01	-2.709805e+00
1.174992e+01	-2.733052e+00
1.181779e+01	-2.756223e+00
1.188605e+01	-2.779907e+00
1.195470e+01	-2.803495e+00
1.202375e+01	-2.827376e+00
1.209320e+01	-2.851649e+00
1.216305e+01	-2.875403e+00
1.223330e+01	-2.899982e+00
1.230396e+01	-2.924583e+00
1.237503e+01	-2.948956e+00
1.244651e+01	-2.973579e+00
1.251840e+01	-2.998617e+00
1.259070e+01	-3.023457e+00
1.266343e+01	-3.048721e+00
1.273657e+01	-3.074161e+00
1.281014e+01	-3.099422e+00
1.288413e+01	-3.125001e+00
1.295855e+01	-3.150731e+00
1.303339e+01	-3.176475e+00
1.310867e+01	-3.202511e+00
1.318439e+01	-3.228952e+00
1.326054e+01	-3.255338e+00
1.333713e+01	-3.281856e+00
1.341417e+01	-3.308353e+00
1.349165e+01	-3.335022e+00
1.356958e+01	-3.361973e+00
1.364795e+01	-3.389008e+00
1.372678e+01	-3.416232e+00
1.380607e+01	-3.443412e+00
1.388581e+01	-3.470792e+00
1.396602e+01	-3.498367e+00
1.404668e+01	-3.526212e+00
1.412782e+01	-3.554111e+00
1.420942e+01	-3.581985e+00
1.429149e+01	-3.610049e+00
1.437404e+01	-3.638683e+00
1.445706e+01	-3.667179e+00
1.454057e+01	-3.695837e+00
1.462455e+01	-3.724248e+00
1.470902e+01	-3.753135e+00
1.479398e+01	-3.782308e+00
1.487943e+01	-3.811625e+00
1.496537e+01	-3.840807e+00
1.505181e+01	-3.870171e+00
1.513875e+01	-3.899807e+00
1.522619e+01	-3.929313e+00
1.531414e+01	-3.959307e+00
1.540259e+01	-3.989361e+00
1.549156e+01	-4.019552e+00
1.558103e+01	-4.049780e+00
1.567103e+01	-4.080186e+00
1.576155e+01	-4.110917e+00
1.585258e+01	-4.141262e+00
1.594415e+01	-4.172196e+00
1.603624e+01	-4.202943e+00
1.612886e+01	-4.234113e+00
1.622202e+01	-4.265495e+00
1.631572e+01	-4.296915e+00
1.640996e+01	-4.328247e+00
1.650474e+01	-4.359709e+00
1.660008e+01	-4.391660e+00
1.669596e+01	-4.423528e+00
1.679239e+01	-4.455694e+00
1.688938e+01	-4.487746e+00
1.698694e+01	-4.519906e+00
1.708505e+01	-4.552347e+00
1.718373e+01	-4.585024e+00
1.728299e+01	-4.617793e+00
1.738281e+01	-4.650773e+00
1.748322e+01	-4.683443e+00
1.758420e+01	-4.716728e+00
1.768576e+01	-4.749851e+00
1.778792e+01	-4.783064e+00
1.789066e+01	-4.816316e+00
1.799399e+01	-4.850040e+00
1.809793e+01	-4.883689e+00
1.820246e+01	-4.917679e+00
1.830760e+01	-4.951467e+00
1.841334e+01	-4.985516e+00
1.851969e+01	-5.020061e+00
1.862666e+01	-5.054462e+00
1.873425e+01	-5.088615e+00
1.884246e+01	-5.123683e+00
1.895129e+01	-5.158139e+00
1.906075e+01	-5.192910e+00
1.917085e+01	-5.227727e+00
1.928158e+01	-5.263026e+00
1.939295e+01	-5.297882e+00
1.950496e+01	-5.333615e+00
1.961762e+01	-5.368865e+00
1.973093e+01	-5.404559e+00
1.984490e+01	-5.440146e+00
1.995952e+01	-5.475756e+00
2.007480e+01	-5.511698e+00
2.019076e+01	-5.547891e+00
2.030738e+01	-5.583873e+00
2.042467e+01	-5.620355e+00
2.054264e+01	-5.656732e+00
2.066130e+01	-5.693178e+00
2.078064e+01	-5.729742e+00
2.090066e+01	-5.766380e+00
2.102139e+01	-5.803285e+00
2.114280e+01	-5.840040e+00
2.126492e+01	-5.877094e+00
2.138775e+01	-5.913940e+00
2.151128e+01	-5.951387e+00
2.163553e+01	-5.989239e+00
2.176050e+01	-6.026820e+00
2.188619e+01	-6.064182e+00
2.201260e+01	-6.101823e+00
2.213974e+01	-6.139525e+00
2.226762e+01	-6.177401e+00
2.239624e+01	-6.215611e+00
2.252560e+01	-6.253778e+00
2.265571e+01	-6.291759e+00
2.278656e+01	-6.330332e+00
2.291818e+01	-6.368347e+00
2.305055e+01	-6.407344e+00
2.318369e+01	-6.445740e+00
2.331760e+01	-6.484803e+00
2.345228e+01	-6.523353e+00
2.358774e+01	-6.561975e+00
2.372398e+01	-6.600888e+00
2.386101e+01	-6.640434e+00
2.399883e+01	-6.679802e+00
2.413745e+01	-6.719004e+00
2.427686e+01	-6.758380e+00
2.441709e+01	-6.797554e+00
2.455812e+01	-6.837663e+00
2.469997e+01	-6.877422e+00
2.484263e+01	-6.917003e+00
2.498612e+01	-6.956832e+00
2.513044e+01	-6.996936e+00
2.527559e+01	-7.036783e+00
2.542158e+01	-7.077125e+00
2.556842e+01	-7.117393e+00
2.571610e+01	-7.157645e+00
2.586463e+01	-7.198255e+00
2.601403e+01	-7.238532e+00
2.616428e+01	-7.279380e+00
2.631541e+01	-7.320010e+00
2.646740e+01	-7.360823e+00
2.662028e+01	-7.401638e+00
2.677404e+01	-7.442766e+00
2.692868e+01	-7.484222e+00
2.708422e+01	-7.524819e+00
2.724066e+01	-7.566202e+00
2.739800e+01	-7.607556e+00
2.755625e+01	-7.648960e+00
2.771541e+01	-7.690591e+00
2.787550e+01	-7.731785e+00
2.803650e+01	-7.773288e+00
2.819844e+01	-7.815266e+00
2.836131e+01	-7.857135e+00
2.852513e+01	-7.898762e+00
2.868989e+01	-7.941060e+00
2.885560e+01	-7.983216e+00
2.902227e+01	-8.024636e+00
2.918990e+01	-8.067214e+00
2.935850e+01	-8.109254e+00
2.952807e+01	-8.151644e+00
2.969863e+01	-8.193787e+00
2.987016e+01	-8.237121e+00
3.004269e+01	-8.279126e+00
3.021622e+01	-8.321796e+00
3.039075e+01	-8.364449e+00
3.056628e+01	-8.407494e+00
3.074283e+01	-8.450437e+00
3.092040e+01	-8.493320e+00
3.109900e+01	-8.535698e+00
3.127862e+01	-8.578925e+00
3.145929e+01	-8.622085e+00
3.164099e+01	-8.665275e+00
3.182375e+01	-8.708548e+00
3.200756e+01	-8.751893e+00
3.219244e+01	-8.795273e+00
3.237838e+01	-8.838622e+00
3.256540e+01	-8.882727e+00
3.275349e+01	-8.925999e+00
3.294268e+01	-8.970000e+00
3.313295e+01	-9.013533e+00
3.332433e+01	-9.056346e+00
3.351681e+01	-9.100454e+00
3.371040e+01	-9.145082e+00
3.390511e+01	-9.188729e+00
3.410094e+01	-9.233409e+00
3.429791e+01	-9.276339e+00
3.449601e+01	-9.320992e+00
3.469526e+01	-9.365023e+00
3.489566e+01	-9.409390e+00
3.509721e+01	-9.453680e+00
3.529993e+01	-9.497965e+00
3.550382e+01	-9.542584e+00
3.570889e+01	-9.587194e+00
3.591515e+01	-9.631747e+00
3.612259e+01	-9.676642e+00
3.633123e+01	-9.721000e+00
3.654108e+01	-9.765265e+00
3.675214e+01	-9.810505e+00
3.696442e+01	-9.855237e+00
3.717792e+01	-9.900579e+00
3.739266e+01	-9.944981e+00
3.760864e+01	-9.990054e+00
3.782587e+01	-1.003562e+01
3.804435e+01	-1.008057e+01
3.826409e+01	-1.012491e+01
3.848510e+01	-1.017063e+01
3.870739e+01	-1.021563e+01
3.893096e+01	-1.026140e+01
3.915583e+01	-1.030615e+01
3.938199e+01	-1.035189e+01
3.960946e+01	-1.039657e+01
3.983824e+01	-1.044188e+01
4.006834e+01	-1.048835e+01
4.029978e+01	-1.053365e+01
4.053255e+01	-1.057953e+01
4.076666e+01	-1.062575e+01
4.100213e+01	-1.067108e+01
4.123896e+01	-1.071657e+01
4.147715e+01	-1.076232e+01
4.171672e+01	-1.080839e+01
4.195767e+01	-1.085382e+01
4.220002e+01	-1.090010e+01
4.244377e+01	-1.094563e+01
4.268892e+01	-1.099232e+01
4.293549e+01	-1.103809e+01
4.318348e+01	-1.108429e+01
4.343291e+01	-1.113072e+01
4.368377e+01	-1.117659e+01
4.393609e+01	-1.122247e+01
4.418986e+01	-1.126949e+01
4.444510e+01	-1.131546e+01
4.470182e+01	-1.136148e+01
4.496001e+01	-1.140834e+01
4.521970e+01	-1.145498e+01
4.548089e+01	-1.150120e+01
4.574358e+01	-1.154774e+01
4.600779e+01	-1.159390e+01
4.627353e+01	-1.164048e+01
4.654081e+01	-1.168709e+01
4.680963e+01	-1.173399e+01
4.708000e+01	-1.178062e+01
4.735193e+01	-1.182740e+01
4.762543e+01	-1.187423e+01
4.790051e+01	-1.192078e+01
4.817719e+01	-1.196765e+01
4.845545e+01	-1.201404e+01
4.873533e+01	-1.206159e+01
4.901682e+01	-1.210815e+01
4.929994e+01	-1.215558e+01
4.958470e+01	-1.220291e+01
4.987110e+01	-1.224910e+01
5.015915e+01	-1.229691e+01
5.044887e+01	-1.234339e+01
5.074026e+01	-1.239015e+01
5.103333e+01	-1.243811e+01
5.132810e+01	-1.248519e+01
5.162457e+01	-1.253272e+01
5.192275e+01	-1.257942e+01
5.222265e+01	-1.262708e+01
5.252429e+01	-1.267374e+01
5.282767e+01	-1.272126e+01
5.313280e+01	-1.276954e+01
5.343969e+01	-1.281549e+01
5.374836e+01	-1.286442e+01
5.405880e+01	-1.291154e+01
5.437105e+01	-1.295825e+01
5.468509e+01	-1.300648e+01
5.500095e+01	-1.305355e+01
5.531863e+01	-1.310149e+01
5.563815e+01	-1.314873e+01
5.595951e+01	-1.319640e+01
5.628273e+01	-1.324349e+01
5.660782e+01	-1.329185e+01
5.693479e+01	-1.334014e+01
5.726364e+01	-1.338679e+01
5.759439e+01	-1.343448e+01
5.792705e+01	-1.348291e+01
5.826164e+01	-1.353053e+01
5.859815e+01	-1.357824e+01
5.893662e+01	-1.362689e+01
5.927703e+01	-1.367464e+01
5.961941e+01	-1.372134e+01
5.996377e+01	-1.376980e+01
6.031012e+01	-1.381791e+01
6.065847e+01	-1.386544e+01
6.100883e+01	-1.391339e+01
6.136121e+01	-1.396173e+01
6.171563e+01	-1.400985e+01
6.207210e+01	-1.405836e+01
6.243063e+01	-1.410539e+01
6.279122e+01	-1.415351e+01
6.315390e+01	-1.420194e+01
6.351868e+01	-1.425081e+01
6.388556e+01	-1.429827e+01
6.425456e+01	-1.434662e+01
6.462569e+01	-1.439480e+01
6.499897e+01	-1.444357e+01
6.537440e+01	-1.449147e+01
6.575200e+01	-1.453906e+01
6.613178e+01	-1.458788e+01
6.651375e+01	-1.463622e+01
6.689793e+01	-1.468399e+01
6.728433e+01	-1.473314e+01
6.767297e+01	-1.478128e+01
6.806384e+01	-1.482951e+01
6.845698e+01	-1.487823e+01
6.885238e+01	-1.492566e+01
6.925007e+01	-1.497400e+01
6.965005e+01	-1.502287e+01
7.005235e+01	-1.507085e+01
7.045697e+01	-1.511983e+01
7.086393e+01	-1.516819e+01
7.127323e+01	-1.521787e+01
7.168490e+01	-1.526506e+01
7.209895e+01	-1.531412e+01
7.251539e+01	-1.536287e+01
7.293424e+01	-1.541154e+01
7.335551e+01	-1.546003e+01
7.377920e+01	-1.550853e+01
7.420535e+01	-1.555756e+01
7.463396e+01	-1.560562e+01
7.506504e+01	-1.565400e+01
7.549861e+01	-1.570337e+01
7.593469e+01	-1.575156e+01
7.637328e+01	-1.580057e+01
7.681441e+01	-1.584995e+01
7.725809e+01	-1.589718e+01
7.770433e+01	-1.594610e+01
7.815315e+01	-1.599484e+01
7.860456e+01	-1.604389e+01
7.905857e+01	-1.609255e+01
7.951521e+01	-1.614281e+01
7.997449e+01	-1.619033e+01
8.043642e+01	-1.623909e+01
8.090102e+01	-1.628871e+01
8.136830e+01	-1.633718e+01
8.183828e+01	-1.638522e+01
8.231097e+01	-1.643447e+01
8.278640e+01	-1.648383e+01
8.326457e+01	-1.653352e+01
8.374550e+01	-1.658131e+01
8.422921e+01	-1.663085e+01
8.471572e+01	-1.667936e+01
8.520503e+01	-1.672951e+01
8.569717e+01	-1.677597e+01
8.619215e+01	-1.682602e+01
8.669000e+01	-1.687588e+01
8.719071e+01	-1.692451e+01
8.769432e+01	-1.697374e+01
8.820084e+01	-1.702264e+01
8.871029e+01	-1.707182e+01
8.922267e+01	-1.711899e+01
8.973802e+01	-1.717022e+01
9.025634e+01	-1.721809e+01
9.077766e+01	-1.726868e+01
9.130199e+01	-1.731722e+01
9.182935e+01	-1.736604e+01
9.235975e+01	-1.741559e+01
9.289321e+01	-1.746460e+01
9.342976e+01	-1.751379e+01
9.396941e+01	-1.756250e+01
9.451217e+01	-1.761254e+01
9.505807e+01	-1.766139e+01
9.560712e+01	-1.771021e+01
9.615934e+01	-1.775900e+01
9.671476e+01	-1.780948e+01
9.727338e+01	-1.785687e+01
9.783522e+01	-1.790696e+01
9.840032e+01	-1.795581e+01
9.896867e+01	-1.800647e+01
9.954031e+01	-1.805466e+01
1.001153e+02	-1.810512e+01
1.006935e+02	-1.815321e+01
1.012751e+02	-1.820151e+01
1.018601e+02	-1.825240e+01
1.024484e+02	-1.830237e+01
1.030402e+02	-1.835115e+01
1.036353e+02	-1.839859e+01
1.042339e+02	-1.844911e+01
1.048360e+02	-1.849744e+01
1.054415e+02	-1.854766e+01
1.060505e+02	-1.859713e+01
1.066631e+02	-1.864663e+01
1.072791e+02	-1.869599e+01
1.078988e+02	-1.874570e+01
1.085220e+02	-1.879410e+01
1.091488e+02	-1.884321e+01
1.097793e+02	-1.889461e+01
1.104133e+02	-1.894322e+01
1.110511e+02	-1.899111e+01
1.116925e+02	-1.904138e+01
1.123376e+02	-1.909092e+01
1.129865e+02	-1.914156e+01
1.136391e+02	-1.918798e+01
1.142955e+02	-1.923929e+01
1.149556e+02	-1.928828e+01
1.156196e+02	-1.933896e+01
1.162874e+02	-1.938796e+01
1.169591e+02	-1.943685e+01
1.176347e+02	-1.948673e+01
1.183141e+02	-1.953581e+01
1.189975e+02	-1.958592e+01
1.196848e+02	-1.963564e+01
1.203761e+02	-1.968340e+01
1.210714e+02	-1.973307e+01
1.217707e+02	-1.978408e+01
1.224740e+02	-1.983374e+01
1.231814e+02	-1.988216e+01
1.238929e+02	-1.993095e+01
1.246085e+02	-1.997944e+01
1.253283e+02	-2.003239e+01
1.260522e+02	-2.008052e+01
1.267802e+02	-2.013042e+01
1.275125e+02	-2.017951e+01
1.282490e+02	-2.022883e+01
1.289898e+02	-2.027907e+01
1.297348e+02	-2.032789e+01
1.304842e+02	-2.037915e+01
1.312378e+02	-2.042847e+01
1.319959e+02	-2.047648e+01
1.327583e+02	-2.052756e+01
1.335251e+02	-2.057569e+01
1.342963e+02	-2.062595e+01
1.350720e+02	-2.067739e+01
1.358522e+02	-2.072586e+01
1.366368e+02	-2.077354e+01
1.374260e+02	-2.082349e+01
1.382198e+02	-2.087510e+01
1.390182e+02	-2.092314e+01
1.398211e+02	-2.097265e+01
1.406287e+02	-2.102258e+01
1.414410e+02	-2.107281e+01
1.422579e+02	-2.112259e+01
1.430796e+02	-2.117083e+01
1.439060e+02	-2.122220e+01
1.447372e+02	-2.127125e+01
1.455732e+02	-2.131989e+01
1.464141e+02	-2.137075e+01
1.472597e+02	-2.142228e+01
1.481103e+02	-2.146960e+01
1.489658e+02	-2.152045e+01
1.498262e+02	-2.157004e+01
1.506916e+02	-2.161880e+01
1.515620e+02	-2.167028e+01
1.524374e+02	-2.171899e+01
1.533179e+02	-2.176750e+01
1.542034e+02	-2.181931e+01
1.550941e+02	-2.186626e+01
1.559899e+02	-2.191840e+01
1.568909e+02	-2.196571e+01
1.577971e+02	-2.201743e+01
1.587085e+02	-2.206488e+01
1.596252e+02	-2.211795e+01
1.605472e+02	-2.216716e+01
1.614745e+02	-2.221664e+01
1.624072e+02	-2.226324e+01
1.633453e+02	-2.231411e+01
1.642887e+02	-2.236525e+01
1.652377e+02	-2.241535e+01
1.661921e+02	-2.246486e+01
1.671520e+02	-2.251509e+01
1.681175e+02	-2.256522e+01
1.690885e+02	-2.261631e+01
1.700651e+02	-2.266614e+01
1.710474e+02	-2.271305e+01
1.720354e+02	-2.276299e+01
1.730291e+02	-2.281402e+01
1.740285e+02	-2.286178e+01
1.750337e+02	-2.291157e+01
1.760446e+02	-2.296215e+01
1.770615e+02	-2.301111e+01
1.780842e+02	-2.306210e+01
1.791128e+02	-2.311202e+01
1.801473e+02	-2.316073e+01
1.811878e+02	-2.321087e+01
1.822344e+02	-2.325984e+01
1.832870e+02	-2.330955e+01
1.843456e+02	-2.336120e+01
1.854104e+02	-2.341024e+01
1.864813e+02	-2.346044e+01
1.875584e+02	-2.351049e+01
1.886418e+02	-2.356003e+01
1.897313e+02	-2.361076e+01
1.908272e+02	-2.365873e+01
1.919294e+02	-2.370870e+01
1.930380e+02	-2.375897e+01
1.941530e+02	-2.381008e+01
1.952744e+02	-2.385823e+01
1.964023e+02	-2.390823e+01
1.975367e+02	-2.395893e+01
1.986777e+02	-2.400823e+01
1.998252e+02	-2.405880e+01
2.009794e+02	-2.410852e+01
2.021403e+02	-2.415973e+01
2.033078e+02	-2.420896e+01
2.044821e+02	-2.425757e+01
2.056632e+02	-2.430917e+01
2.068511e+02	-2.435880e+01
2.080459e+02	-2.440758e+01
2.092475e+02	-2.445712e+01
2.104561e+02	-2.450863e+01
2.116717e+02	-2.455657e+01
2.128943e+02	-2.460571e+01
2.141240e+02	-2.465658e+01
2.153608e+02	-2.470893e+01
2.166047e+02	-2.475626e+01
2.178558e+02	-2.480674e+01
2.191141e+02	-2.485338e+01
2.203797e+02	-2.490666e+01
2.216526e+02	-2.495343e+01
2.229329e+02	-2.500479e+01
2.242205e+02	-2.505669e+01
2.255156e+02	-2.510815e+01
2.268182e+02	-2.515620e+01
2.281283e+02	-2.520744e+01
2.294459e+02	-2.525273e+01
2.307712e+02	-2.530809e+01
2.321041e+02	-2.535743e+01
2.334447e+02	-2.540177e+01
2.347931e+02	-2.545572e+01
2.361493e+02	-2.550502e+01
2.375133e+02	-2.555644e+01
2.388851e+02	-2.560764e+01
2.402649e+02	-2.565399e+01
2.416527e+02	-2.570758e+01
2.430484e+02	-2.575616e+01
2.444523e+02	-2.580792e+01
2.458642e+02	-2.585755e+01
2.472843e+02	-2.590444e+01
2.487126e+02	-2.595444e+01
2.501492e+02	-2.600425e+01
2.515940e+02	-2.605563e+01
2.530472e+02	-2.610603e+01
2.545088e+02	-2.615509e+01
2.559789e+02	-2.620743e+01
2.574574e+02	-2.625507e+01
2.589444e+02	-2.630748e+01
2.604401e+02	-2.635512e+01
2.619444e+02	-2.640498e+01
2.634574e+02	-2.645292e+01
2.649791e+02	-2.650243e+01
2.665096e+02	-2.655439e+01
2.680489e+02	-2.660489e+01
2.695972e+02	-2.665529e+01
2.711544e+02	-2.670713e+01
2.727205e+02	-2.675462e+01
2.742958e+02	-2.680570e+01
2.758801e+02	-2.685581e+01
2.774736e+02	-2.690390e+01
2.790762e+02	-2.695772e+01
2.806882e+02	-2.700402e+01
2.823094e+02	-2.705544e+01
2.839400e+02	-2.710659e+01
2.855800e+02	-2.715327e+01
2.872295e+02	-2.720669e+01
2.888886e+02	-2.725389e+01
2.905572e+02	-2.730514e+01
2.922354e+02	-2.735207e+01
2.939234e+02	-2.740526e+01
2.956211e+02	-2.745279e+01
2.973286e+02	-2.750398e+01
2.990459e+02	-2.755288e+01
3.007732e+02	-2.760394e+01
3.025104e+02	-2.765265e+01
3.042577e+02	-2.770449e+01
3.060151e+02	-2.775501e+01
3.077826e+02	-2.780598e+01
3.095604e+02	-2.785427e+01
3.113484e+02	-2.790560e+01
3.131467e+02	-2.795396e+01
3.149554e+02	-2.800562e+01
3.167746e+02	-2.805325e+01
3.186043e+02	-2.810159e+01
3.204445e+02	-2.815557e+01
3.222954e+02	-2.820258e+01
3.241570e+02	-2.825733e+01
3.260293e+02	-2.830477e+01
3.279124e+02	-2.835793e+01
3.298064e+02	-2.840556e+01
3.317114e+02	-2.845219e+01
3.336273e+02	-2.850539e+01
3.355544e+02	-2.855458e+01
3.374925e+02	-2.860292e+01
3.394418e+02	-2.865287e+01
3.414024e+02	-2.870347e+01
3.433744e+02	-2.876137e+01
3.453577e+02	-2.880634e+01
3.473525e+02	-2.885230e+01
3.493588e+02	-2.890764e+01
3.513766e+02	-2.895860e+01
3.534062e+02	-2.900513e+01
3.554474e+02	-2.905547e+01
3.575005e+02	-2.910656e+01
3.595654e+02	-2.915523e+01
3.616422e+02	-2.920704e+01
3.637311e+02	-2.925207e+01
3.658320e+02	-2.930661e+01
3.679450e+02	-2.935702e+01
3.700702e+02	-2.940348e+01
3.722077e+02	-2.946176e+01
3.743576e+02	-2.950650e+01
3.765199e+02	-2.955581e+01
3.786946e+02	-2.960525e+01
3.808820e+02	-2.965638e+01
3.830819e+02	-2.970502e+01
3.852946e+02	-2.975855e+01
3.875200e+02	-2.980347e+01
3.897583e+02	-2.985484e+01
3.920096e+02	-2.990894e+01
3.942738e+02	-2.996085e+01
3.965511e+02	-3.000727e+01
3.988416e+02	-3.005586e+01
4.011452e+02	-3.010886e+01
4.034622e+02	-3.015963e+01
4.057926e+02	-3.021133e+01
4.081365e+02	-3.025706e+01
4.104938e+02	-3.030232e+01
4.128648e+02	-3.035670e+01
4.152495e+02	-3.041260e+01
4.176480e+02	-3.045000e+01
4.200603e+02	-3.050660e+01
4.224866e+02	-3.056007e+01
4.249268e+02	-3.061025e+01
4.273812e+02	-3.065912e+01
4.298497e+02	-3.070708e+01
4.323325e+02	-3.075810e+01
4.348297e+02	-3.081377e+01
4.373412e+02	-3.085544e+01
4.398673e+02	-3.090730e+01
4.424079e+02	-3.096094e+01
4.449633e+02	-3.101368e+01
4.475334e+02	-3.105614e+01
4.501183e+02	-3.111349e+01
4.527182e+02	-3.115813e+01
4.553330e+02	-3.121286e+01
4.579630e+02	-3.126451e+01
4.606082e+02	-3.131081e+01
4.632687e+02	-3.135895e+01
4.659445e+02	-3.140965e+01
4.686358e+02	-3.146019e+01
4.713426e+02	-3.151064e+01
4.740650e+02	-3.156090e+01
4.768032e+02	-3.160843e+01
4.795572e+02	-3.166250e+01
4.823271e+02	-3.171351e+01
4.851130e+02	-3.176093e+01
4.879150e+02	-3.181257e+01
4.907332e+02	-3.186211e+01
4.935676e+02	-3.191594e+01
4.964185e+02	-3.196236e+01
4.992858e+02	-3.201198e+01
5.021696e+02	-3.206312e+01
5.050701e+02	-3.210779e+01
5.079874e+02	-3.216444e+01
5.109215e+02	-3.221274e+01
5.138726e+02	-3.226152e+01
5.168407e+02	-3.231645e+01
5.198259e+02	-3.236364e+01
5.228284e+02	-3.242146e+01
5.258482e+02	-3.245783e+01
5.288855e+02	-3.251768e+01
5.319403e+02	-3.256798e+01
5.350128e+02	-3.261648e+01
5.381030e+02	-3.266662e+01
5.412111e+02	-3.271484e+01
5.443371e+02	-3.276633e+01
5.474812e+02	-3.281263e+01
5.506434e+02	-3.287340e+01
5.538239e+02	-3.292412e+01
5.570228e+02	-3.296953e+01
5.602401e+02	-3.302256e+01
5.634760e+02	-3.306700e+01
5.667306e+02	-3.312475e+01
5.700040e+02	-3.317078e+01
5.732964e+02	-3.322590e+01
5.766077e+02	-3.326687e+01
5.799382e+02	-3.332171e+01
5.832879e+02	-3.337258e+01
5.866569e+02	-3.340820e+01
5.900454e+02	-3.347568e+01
5.934535e+02	-3.351286e+01
5.968813e+02	-3.357120e+01
6.003288e+02	-3.362722e+01
6.037963e+02	-3.366450e+01
6.072838e+02	-3.371713e+01
6.107914e+02	-3.377321e+01
6.143194e+02	-3.383293e+01
6.178676e+02	-3.387023e+01
6.214364e+02	-3.392263e+01
6.250258e+02	-3.396756e+01
6.286359e+02	-3.401834e+01
6.322669e+02	-3.406691e+01
6.359189e+02	-3.412364e+01
6.395919e+02	-3.417489e+01
6.432862e+02	-3.422521e+01
6.470017e+02	-3.427685e+01
6.507388e+02	-3.432686e+01
6.544974e+02	-3.437865e+01
6.582778e+02	-3.443244e+01
6.620800e+02	-3.447662e+01
6.659041e+02	-3.452856e+01
6.697504e+02	-3.457654e+01
6.736188e+02	-3.463180e+01
6.775096e+02	-3.467988e+01
6.814229e+02	-3.472158e+01
6.853587e+02	-3.478121e+01
6.893173e+02	-3.482674e+01
6.932988e+02	-3.487060e+01
6.973033e+02	-3.492633e+01
7.013309e+02	-3.497705e+01
