Frequency(Hz)	Magnitude(dB)
1.000000e+01	-2.171326e+00
1.005776e+01	-2.190843e+00
1.011585e+01	-2.210865e+00
1.017428e+01	-2.231086e+00
1.023305e+01	-2.251179e+00
1.029215e+01	-2.271363e+00
1.035160e+01	-2.291945e+00
1.041139e+01	-2.312500e+00
1.047153e+01	-2.333214e+00
1.053201e+01	-2.354091e+00
1.059284e+01	-2.375228e+00
1.065403e+01	-2.396204e+00
1.071556e+01	-2.417294e+00
1.077746e+01	-2.438978e+00
1.083971e+01	-2.460423e+00
1.090232e+01	-2.482232e+00
1.096529e+01	-2.504021e+00
1.102862e+01	-2.525985e+00
1.109232e+01	-2.548255e+00
1.115639e+01	-2.570509e+00
1.122083e+01	-2.593043e+00
1.128564e+01	-2.615550e+00
1.135083e+01	-2.638222e+00
1.141639e+01	-2.660951e+00
1.148233e+01	-2.683767e+00
1.154865e+01	-2.706919e+00
1.161536e+01	-2.730371e+00
1.168245e+01	-2.753870e+00
1.174992e+01	-2.777335e+00
1.181779e+01	-2.801034e+00
1.188605e+01	-2.824778e+00
1.195470e+01	-2.848915e+00
1.202375e+01	-2.872983e+00
1.209320e+01	-2.897234e+00
1.216305e+01	-2.922045e+00
1.223330e+01	-2.946228e+00
1.230396e+01	-2.971000e+00
1.237503e+01	-2.995877e+00
1.244651e+01	-3.020753e+00
1.251840e+01	-3.045899e+00
1.259070e+01	-3.071333e+00
1.266343e+01	-3.096759e+00
1.273657e+01	-3.122170e+00
1.281014e+01	-3.147749e+00
1.288413e+01	-3.174036e+00
1.295855e+01	-3.200017e+00
1.303339e+01	-3.226412e+00
1.310867e+01	-3.252277e+00
1.318439e+01	-3.278945e+00
1.326054e+01	-3.305404e+00
1.333713e+01	-3.331996e+00
1.341417e+01	-3.358893e+00
1.349165e+01	-3.386047e+00
1.356958e+01	-3.413509e+00
1.364795e+01	-3.440255e+00
1.372678e+01	-3.467850e+00
1.380607e+01	-3.495328e+00
1.388581e+01	-3.523345e+00
1.396602e+01	-3.551343e+00
1.404668e+01	-3.579334e+00
1.412782e+01	-3.607345e+00
1.420942e+01	-3.635757e+00
1.429149e+01	-3.664008e+00
1.437404e+01	-3.692614e+00
1.445706e+01	-3.721327e+00
1.454057e+01	-3.750024e+00
1.462455e+01	-3.779203e+00
1.470902e+01	-3.808480e+00
1.479398e+01	-3.837508e+00
1.487943e+01	-3.866864e+00
1.496537e+01	-3.896439e+00
1.505181e+01	-3.926212e+00
1.513875e+01	-3.956226e+00
1.522619e+01	-3.986260e+00
1.531414e+01	-4.016322e+00
1.540259e+01	-4.046365e+00
1.549156e+01	-4.076664e+00
1.558103e+01	-4.107099e+00
1.567103e+01	-4.138125e+00
1.576155e+01	-4.168807e+00
1.585258e+01	-4.199882e+00
1.594415e+01	-4.230804e+00
1.603624e+01	-4.261954e+00
1.612886e+01	-4.293367e+00
1.622202e+01	-4.324837e+00
1.631572e+01	-4.356282e+00
1.640996e+01	-4.388239e+00
1.650474e+01	-4.420187e+00
1.660008e+01	-4.452147e+00
1.669596e+01	-4.484321e+00
1.679239e+01	-4.516620e+00
1.688938e+01	-4.549126e+00
1.698694e+01	-4.581820e+00
1.708505e+01	-4.614252e+00
1.718373e+01	-4.646857e+00
1.728299e+01	-4.679842e+00
1.738281e+01	-4.713213e+00
1.748322e+01	-4.746240e+00
1.758420e+01	-4.779663e+00
1.768576e+01	-4.812858e+00
1.778792e+01	-4.846879e+00
1.789066e+01	-4.880076e+00
1.799399e+01	-4.913892e+00
1.809793e+01	-4.947848e+00
1.820246e+01	-4.982103e+00
1.830760e+01	-5.016273e+00
1.841334e+01	-5.050701e+00
1.851969e+01	-5.085055e+00
1.862666e+01	-5.119586e+00
1.873425e+01	-5.154326e+00
1.884246e+01	-5.189150e+00
1.895129e+01	-5.224164e+00
1.906075e+01	-5.259278e+00
1.917085e+01	-5.294496e+00
1.928158e+01	-5.329796e+00
1.939295e+01	-5.365402e+00
1.950496e+01	-5.400535e+00
1.961762e+01	-5.436745e+00
1.973093e+01	-5.472175e+00
1.984490e+01	-5.507847e+00
1.995952e+01	-5.543971e+00
2.007480e+01	-5.580002e+00
2.019076e+01	-5.615914e+00
2.030738e+01	-5.652698e+00
2.042467e+01	-5.689156e+00
2.054264e+01	-5.725754e+00
2.066130e+01	-5.762354e+00
2.078064e+01	-5.799181e+00
2.090066e+01	-5.835969e+00
2.102139e+01	-5.872953e+00
2.114280e+01	-5.910360e+00
2.126492e+01	-5.947369e+00
2.138775e+01	-5.985380e+00
2.151128e+01	-6.022073e+00
2.163553e+01	-6.060028e+00
2.176050e+01	-6.097672e+00
2.188619e+01	-6.135435e+00
2.201260e+01	-6.173064e+00
2.213974e+01	-6.211808e+00
2.226762e+01	-6.249227e+00
2.239624e+01	-6.287917e+00
2.252560e+01	-6.325799e+00
2.265571e+01	-6.364422e+00
2.278656e+01	-6.403049e+00
2.291818e+01	-6.441623e+00
2.305055e+01	-6.480445e+00
2.318369e+01	-6.519170e+00
2.331760e+01	-6.557874e+00
2.345228e+01	-6.596917e+00
2.358774e+01	-6.636278e+00
2.372398e+01	-6.675480e+00
2.386101e+01	-6.714823e+00
2.399883e+01	-6.754102e+00
2.413745e+01	-6.793789e+00
2.427686e+01	-6.832927e+00
2.441709e+01	-6.872933e+00
2.455812e+01	-6.912855e+00
2.469997e+01	-6.952475e+00
2.484263e+01	-6.992974e+00
2.498612e+01	-7.032613e+00
2.513044e+01	-7.072715e+00
2.527559e+01	-7.113102e+00
2.542158e+01	-7.153275e+00
2.556842e+01	-7.193976e+00
2.571610e+01	-7.234831e+00
2.586463e+01	-7.274883e+00
2.601403e+01	-7.315851e+00
2.616428e+01	-7.356186e+00
2.631541e+01	-7.397531e+00
2.646740e+01	-7.438171e+00
2.662028e+01	-7.479404e+00
2.677404e+01	-7.520494e+00
2.692868e+01	-7.561411e+00
2.708422e+01	-7.602817e+00
2.724066e+01	-7.644313e+00
2.739800e+01	-7.685623e+00
2.755625e+01	-7.727480e+00
2.771541e+01	-7.769113e+00
2.787550e+01	-7.810825e+00
2.803650e+01	-7.852794e+00
2.819844e+01	-7.894370e+00
2.836131e+01	-7.936348e+00
2.852513e+01	-7.978291e+00
2.868989e+01	-8.020568e+00
2.885560e+01	-8.062714e+00
2.902227e+01	-8.104674e+00
2.918990e+01	-8.147176e+00
2.935850e+01	-8.189560e+00
2.952807e+01	-8.231996e+00
2.969863e+01	-8.275256e+00
2.987016e+01	-8.317326e+00
3.004269e+01	-8.360087e+00
3.021622e+01	-8.402458e+00
3.039075e+01	-8.445568e+00
3.056628e+01	-8.488327e+00
3.074283e+01	-8.530886e+00
3.092040e+01	-8.574606e+00
3.109900e+01	-8.617735e+00
3.127862e+01	-8.660343e+00
3.145929e+01	-8.704252e+00
3.164099e+01	-8.746960e+00
3.182375e+01	-8.790924e+00
3.200756e+01	-8.834361e+00
3.219244e+01	-8.877746e+00
3.237838e+01	-8.921532e+00
3.256540e+01	-8.965031e+00
3.275349e+01	-9.008605e+00
3.294268e+01	-9.052288e+00
3.313295e+01	-9.096167e+00
3.332433e+01	-9.140261e+00
3.351681e+01	-9.184274e+00
3.371040e+01	-9.227993e+00
3.390511e+01	-9.272133e+00
3.410094e+01	-9.316619e+00
3.429791e+01	-9.360764e+00
3.449601e+01	-9.404612e+00
3.469526e+01	-9.449387e+00
3.489566e+01	-9.493568e+00
3.509721e+01	-9.538233e+00
3.529993e+01	-9.582780e+00
3.550382e+01	-9.627222e+00
3.570889e+01	-9.671423e+00
3.591515e+01	-9.716648e+00
3.612259e+01	-9.760758e+00
3.633123e+01	-9.805935e+00
3.654108e+01	-9.850170e+00
3.675214e+01	-9.895336e+00
3.696442e+01	-9.941039e+00
3.717792e+01	-9.985386e+00
3.739266e+01	-1.003021e+01
3.760864e+01	-1.007538e+01
3.782587e+01	-1.012040e+01
3.804435e+01	-1.016556e+01
3.826409e+01	-1.021065e+01
3.848510e+01	-1.025636e+01
3.870739e+01	-1.030156e+01
3.893096e+01	-1.034702e+01
3.915583e+01	-1.039204e+01
3.938199e+01	-1.043821e+01
3.960946e+01	-1.048378e+01
3.983824e+01	-1.052926e+01
4.006834e+01	-1.057409e+01
4.029978e+01	-1.062059e+01
4.053255e+01	-1.066644e+01
4.076666e+01	-1.071183e+01
4.100213e+01	-1.075750e+01
4.123896e+01	-1.080272e+01
4.147715e+01	-1.084950e+01
4.171672e+01	-1.089597e+01
4.195767e+01	-1.094149e+01
4.220002e+01	-1.098742e+01
4.244377e+01	-1.103328e+01
4.268892e+01	-1.107966e+01
4.293549e+01	-1.112529e+01
4.318348e+01	-1.117180e+01
4.343291e+01	-1.121749e+01
4.368377e+01	-1.126443e+01
4.393609e+01	-1.131030e+01
4.418986e+01	-1.135685e+01
4.444510e+01	-1.140276e+01
4.470182e+01	-1.144990e+01
4.496001e+01	-1.149564e+01
4.521970e+01	-1.154300e+01
4.548089e+01	-1.158931e+01
4.574358e+01	-1.163574e+01
4.600779e+01	-1.168271e+01
4.627353e+01	-1.172846e+01
4.654081e+01	-1.177600e+01
4.680963e+01	-1.182228e+01
4.708000e+01	-1.186859e+01
4.735193e+01	-1.191587e+01
4.762543e+01	-1.196274e+01
4.790051e+01	-1.200994e+01
4.817719e+01	-1.205689e+01
4.845545e+01	-1.210266e+01
4.873533e+01	-1.215076e+01
4.901682e+01	-1.219694e+01
4.929994e+01	-1.224489e+01
4.958470e+01	-1.229187e+01
4.987110e+01	-1.233821e+01
5.015915e+01	-1.238561e+01
5.044887e+01	-1.243282e+01
5.074026e+01	-1.247969e+01
5.103333e+01	-1.252716e+01
5.132810e+01	-1.257386e+01
5.162457e+01	-1.262075e+01
5.192275e+01	-1.266852e+01
5.222265e+01	-1.271658e+01
5.252429e+01	-1.276375e+01
5.282767e+01	-1.281179e+01
5.313280e+01	-1.285838e+01
5.343969e+01	-1.290675e+01
5.374836e+01	-1.295367e+01
5.405880e+01	-1.300076e+01
5.437105e+01	-1.304908e+01
5.468509e+01	-1.309645e+01
5.500095e+01	-1.314308e+01
5.531863e+01	-1.319120e+01
5.563815e+01	-1.323932e+01
5.595951e+01	-1.328730e+01
5.628273e+01	-1.333439e+01
5.660782e+01	-1.338270e+01
5.693479e+01	-1.342934e+01
5.726364e+01	-1.347700e+01
5.759439e+01	-1.352558e+01
5.792705e+01	-1.357279e+01
5.826164e+01	-1.362108e+01
5.859815e+01	-1.366867e+01
5.893662e+01	-1.371718e+01
5.927703e+01	-1.376441e+01
5.961941e+01	-1.381259e+01
5.996377e+01	-1.386084e+01
6.031012e+01	-1.390868e+01
6.065847e+01	-1.395684e+01
6.100883e+01	-1.400438e+01
6.136121e+01	-1.405311e+01
6.171563e+01	-1.410038e+01
6.207210e+01	-1.414864e+01
6.243063e+01	-1.419729e+01
6.279122e+01	-1.424585e+01
6.315390e+01	-1.429343e+01
6.351868e+01	-1.434222e+01
6.388556e+01	-1.438926e+01
6.425456e+01	-1.443831e+01
6.462569e+01	-1.448581e+01
6.499897e+01	-1.453443e+01
6.537440e+01	-1.458279e+01
6.575200e+01	-1.463064e+01
6.613178e+01	-1.467897e+01
6.651375e+01	-1.472696e+01
6.689793e+01	-1.477591e+01
6.728433e+01	-1.482372e+01
6.767297e+01	-1.487273e+01
6.806384e+01	-1.492096e+01
6.845698e+01	-1.496908e+01
6.885238e+01	-1.501766e+01
6.925007e+01	-1.506649e+01
6.965005e+01	-1.511390e+01
7.005235e+01	-1.516398e+01
7.045697e+01	-1.521156e+01
7.086393e+01	-1.526081e+01
7.127323e+01	-1.530822e+01
7.168490e+01	-1.535708e+01
7.209895e+01	-1.540649e+01
7.251539e+01	-1.545501e+01
7.293424e+01	-1.550355e+01
7.335551e+01	-1.555136e+01
7.377920e+01	-1.560037e+01
7.420535e+01	-1.564797e+01
7.463396e+01	-1.569808e+01
7.506504e+01	-1.574725e+01
7.549861e+01	-1.579536e+01
7.593469e+01	-1.584444e+01
7.637328e+01	-1.589313e+01
7.681441e+01	-1.594149e+01
7.725809e+01	-1.599085e+01
7.770433e+01	-1.603935e+01
7.815315e+01	-1.608815e+01
7.860456e+01	-1.613632e+01
7.905857e+01	-1.618577e+01
7.951521e+01	-1.623418e+01
7.997449e+01	-1.628354e+01
8.043642e+01	-1.633220e+01
8.090102e+01	-1.638122e+01
8.136830e+01	-1.642931e+01
8.183828e+01	-1.647809e+01
8.231097e+01	-1.652834e+01
8.278640e+01	-1.657710e+01
8.326457e+01	-1.662585e+01
8.374550e+01	-1.667414e+01
8.422921e+01	-1.672366e+01
8.471572e+01	-1.677251e+01
8.520503e+01	-1.682100e+01
8.569717e+01	-1.686938e+01
8.619215e+01	-1.691930e+01
8.669000e+01	-1.696895e+01
8.719071e+01	-1.701731e+01
8.769432e+01	-1.706622e+01
8.820084e+01	-1.711534e+01
8.871029e+01	-1.716439e+01
8.922267e+01	-1.721299e+01
8.973802e+01	-1.726309e+01
9.025634e+01	-1.731120e+01
9.077766e+01	-1.736123e+01
9.130199e+01	-1.740999e+01
9.182935e+01	-1.745814e+01
9.235975e+01	-1.750925e+01
9.289321e+01	-1.755807e+01
9.342976e+01	-1.760683e+01
9.396941e+01	-1.765559e+01
9.451217e+01	-1.770521e+01
9.505807e+01	-1.775475e+01
9.560712e+01	-1.780457e+01
9.615934e+01	-1.785133e+01
9.671476e+01	-1.790145e+01
9.727338e+01	-1.795119e+01
9.783522e+01	-1.800088e+01
9.840032e+01	-1.804935e+01
9.896867e+01	-1.809776e+01
9.954031e+01	-1.814842e+01
1.001153e+02	-1.819680e+01
1.006935e+02	-1.824597e+01
1.012751e+02	-1.829576e+01
1.018601e+02	-1.834471e+01
1.024484e+02	-1.839533e+01
1.030402e+02	-1.844365e+01
1.036353e+02	-1.849310e+01
1.042339e+02	-1.854206e+01
1.048360e+02	-1.859111e+01
1.054415e+02	-1.863969e+01
1.060505e+02	-1.868844e+01
1.066631e+02	-1.873907e+01
1.072791e+02	-1.878993e+01
1.078988e+02	-1.883853e+01
1.085220e+02	-1.888754e+01
1.091488e+02	-1.893833e+01
1.097793e+02	-1.898494e+01
1.104133e+02	-1.903671e+01
1.110511e+02	-1.908555e+01
1.116925e+02	-1.913463e+01
1.123376e+02	-1.918409e+01
1.129865e+02	-1.923283e+01
1.136391e+02	-1.928322e+01
1.142955e+02	-1.933202e+01
1.149556e+02	-1.938273e+01
1.156196e+02	-1.943210e+01
1.162874e+02	-1.948213e+01
1.169591e+02	-1.953041e+01
1.176347e+02	-1.958006e+01
1.183141e+02	-1.963214e+01
1.189975e+02	-1.967866e+01
1.196848e+02	-1.972673e+01
1.203761e+02	-1.977546e+01
1.210714e+02	-1.982704e+01
1.217707e+02	-1.987664e+01
1.224740e+02	-1.992691e+01
1.231814e+02	-1.997586e+01
1.238929e+02	-2.002623e+01
1.246085e+02	-2.007484e+01
1.253283e+02	-2.012347e+01
1.260522e+02	-2.017398e+01
1.267802e+02	-2.022407e+01
1.275125e+02	-2.027591e+01
1.282490e+02	-2.032409e+01
1.289898e+02	-2.037148e+01
1.297348e+02	-2.042275e+01
1.304842e+02	-2.047279e+01
1.312378e+02	-2.052119e+01
1.319959e+02	-2.056857e+01
1.327583e+02	-2.062108e+01
1.335251e+02	-2.067016e+01
1.342963e+02	-2.072024e+01
1.350720e+02	-2.076971e+01
1.358522e+02	-2.081934e+01
1.366368e+02	-2.086837e+01
1.374260e+02	-2.091765e+01
1.382198e+02	-2.096776e+01
1.390182e+02	-2.101751e+01
1.398211e+02	-2.106723e+01
1.406287e+02	-2.111706e+01
1.414410e+02	-2.116659e+01
1.422579e+02	-2.121638e+01
1.430796e+02	-2.126439e+01
1.439060e+02	-2.131481e+01
1.447372e+02	-2.136444e+01
1.455732e+02	-2.141707e+01
1.464141e+02	-2.146573e+01
1.472597e+02	-2.151404e+01
1.481103e+02	-2.156549e+01
1.489658e+02	-2.161355e+01
1.498262e+02	-2.166293e+01
1.506916e+02	-2.171440e+01
1.515620e+02	-2.176174e+01
1.524374e+02	-2.181241e+01
1.533179e+02	-2.185994e+01
1.542034e+02	-2.191209e+01
1.550941e+02	-2.196276e+01
1.559899e+02	-2.201063e+01
1.568909e+02	-2.206013e+01
1.577971e+02	-2.211012e+01
1.587085e+02	-2.215988e+01
1.596252e+02	-2.220950e+01
1.605472e+02	-2.226135e+01
1.614745e+02	-2.230799e+01
1.624072e+02	-2.235801e+01
1.633453e+02	-2.241139e+01
1.642887e+02	-2.246084e+01
1.652377e+02	-2.250784e+01
1.661921e+02	-2.255917e+01
1.671520e+02	-2.260775e+01
1.681175e+02	-2.265807e+01
1.690885e+02	-2.270861e+01
1.700651e+02	-2.275756e+01
1.710474e+02	-2.280820e+01
1.720354e+02	-2.285743e+01
1.730291e+02	-2.290457e+01
1.740285e+02	-2.295884e+01
1.750337e+02	-2.300822e+01
1.760446e+02	-2.305609e+01
1.770615e+02	-2.310687e+01
1.780842e+02	-2.315432e+01
1.791128e+02	-2.320734e+01
1.801473e+02	-2.325602e+01
1.811878e+02	-2.330584e+01
1.822344e+02	-2.335340e+01
1.832870e+02	-2.340560e+01
1.843456e+02	-2.345175e+01
1.854104e+02	-2.350517e+01
1.864813e+02	-2.355665e+01
1.875584e+02	-2.360615e+01
1.886418e+02	-2.365360e+01
1.897313e+02	-2.370506e+01
1.908272e+02	-2.375372e+01
1.919294e+02	-2.380373e+01
1.930380e+02	-2.385382e+01
1.941530e+02	-2.390442e+01
1.952744e+02	-2.395575e+01
1.964023e+02	-2.400345e+01
1.975367e+02	-2.405221e+01
1.986777e+02	-2.410311e+01
1.998252e+02	-2.415466e+01
2.009794e+02	-2.420434e+01
2.021403e+02	-2.425309e+01
2.033078e+02	-2.430284e+01
2.044821e+02	-2.435061e+01
2.056632e+02	-2.440174e+01
2.068511e+02	-2.445027e+01
2.080459e+02	-2.450364e+01
2.092475e+02	-2.455066e+01
2.104561e+02	-2.460324e+01
2.116717e+02	-2.465179e+01
2.128943e+02	-2.470001e+01
2.141240e+02	-2.475471e+01
2.153608e+02	-2.480204e+01
2.166047e+02	-2.485508e+01
2.178558e+02	-2.490235e+01
2.191141e+02	-2.495171e+01
2.203797e+02	-2.499974e+01
2.216526e+02	-2.505147e+01
2.229329e+02	-2.510261e+01
2.242205e+02	-2.515235e+01
2.255156e+02	-2.519790e+01
2.268182e+02	-2.525044e+01
2.281283e+02	-2.529905e+01
2.294459e+02	-2.534930e+01
2.307712e+02	-2.539935e+01
2.321041e+02	-2.544899e+01
2.334447e+02	-2.550208e+01
2.347931e+02	-2.554692e+01
2.361493e+02	-2.560112e+01
2.375133e+02	-2.564953e+01
2.388851e+02	-2.569869e+01
2.402649e+02	-2.574769e+01
2.416527e+02	-2.580014e+01
2.430484e+02	-2.584945e+01
2.444523e+02	-2.590053e+01
2.458642e+02	-2.594932e+01
2.472843e+02	-2.599819e+01
2.487126e+02	-2.605107e+01
2.501492e+02	-2.609714e+01
2.515940e+02	-2.614999e+01
2.530472e+02	-2.619790e+01
2.545088e+02	-2.624898e+01
2.559789e+02	-2.630166e+01
2.574574e+02	-2.635225e+01
2.589444e+02	-2.640033e+01
2.604401e+02	-2.645118e+01
2.619444e+02	-2.649801e+01
2.634574e+02	-2.654681e+01
2.649791e+02	-2.659925e+01
2.665096e+02	-2.664890e+01
2.680489e+02	-2.670008e+01
2.695972e+02	-2.674924e+01
2.711544e+02	-2.679692e+01
2.727205e+02	-2.684503e+01
2.742958e+02	-2.689737e+01
2.758801e+02	-2.694931e+01
2.774736e+02	-2.699998e+01
2.790762e+02	-2.705033e+01
2.806882e+02	-2.709942e+01
2.823094e+02	-2.714789e+01
2.839400e+02	-2.720133e+01
2.855800e+02	-2.724745e+01
2.872295e+02	-2.730050e+01
2.888886e+02	-2.734707e+01
2.905572e+02	-2.739522e+01
2.922354e+02	-2.744941e+01
2.939234e+02	-2.750016e+01
2.956211e+02	-2.755303e+01
2.973286e+02	-2.760180e+01
2.990459e+02	-2.764645e+01
3.007732e+02	-2.769973e+01
3.025104e+02	-2.775008e+01
3.042577e+02	-2.780016e+01
3.060151e+02	-2.784838e+01
3.077826e+02	-2.790214e+01
3.095604e+02	-2.795270e+01
3.113484e+02	-2.799732e+01
3.131467e+02	-2.805191e+01
3.149554e+02	-2.810129e+01
3.167746e+02	-2.815072e+01
3.186043e+02	-2.819440e+01
3.204445e+02	-2.825065e+01
3.222954e+02	-2.830206e+01
3.241570e+02	-2.834874e+01
3.260293e+02	-2.840027e+01
3.279124e+02	-2.845110e+01
3.298064e+02	-2.850191e+01
3.317114e+02	-2.854879e+01
3.336273e+02	-2.859741e+01
3.355544e+02	-2.864936e+01
3.374925e+02	-2.870101e+01
3.394418e+02	-2.875162e+01
3.414024e+02	-2.879781e+01
3.433744e+02	-2.885101e+01
3.453577e+02	-2.890172e+01
3.473525e+02	-2.895167e+01
3.493588e+02	-2.899986e+01
3.513766e+02	-2.905141e+01
3.534062e+02	-2.910123e+01
3.554474e+02	-2.914734e+01
3.575005e+02	-2.920097e+01
3.595654e+02	-2.925183e+01
3.616422e+02	-2.929665e+01
3.637311e+02	-2.935092e+01
3.658320e+02	-2.939602e+01
3.679450e+02	-2.945196e+01
3.700702e+02	-2.949530e+01
3.722077e+02	-2.955053e+01
3.743576e+02	-2.960077e+01
3.765199e+02	-2.964850e+01
3.786946e+02	-2.970314e+01
3.808820e+02	-2.975223e+01
3.830819e+02	-2.980299e+01
3.852946e+02	-2.985395e+01
3.875200e+02	-2.989957e+01
3.897583e+02	-2.995344e+01
3.920096e+02	-3.000515e+01
3.942738e+02	-3.004931e+01
3.965511e+02	-3.009728e+01
3.988416e+02	-3.015232e+01
4.011452e+02	-3.020076e+01
4.034622e+02	-3.025146e+01
4.057926e+02	-3.030479e+01
4.081365e+02	-3.034929e+01
4.104938e+02	-3.040513e+01
4.128648e+02	-3.045220e+01
4.152495e+02	-3.049936e+01
4.176480e+02	-3.054586e+01
4.200603e+02	-3.060875e+01
4.224866e+02	-3.064937e+01
4.249268e+02	-3.069822e+01
4.273812e+02	-3.075454e+01
4.298497e+02	-3.080446e+01
4.323325e+02	-3.085103e+01
4.348297e+02	-3.090372e+01
4.373412e+02	-3.095540e+01
4.398673e+02	-3.100465e+01
4.424079e+02	-3.104888e+01
4.449633e+02	-3.110406e+01
4.475334e+02	-3.115314e+01
4.501183e+02	-3.120020e+01
4.527182e+02	-3.125528e+01
4.553330e+02	-3.129955e+01
4.579630e+02	-3.135428e+01
4.606082e+02	-3.140899e+01
4.632687e+02	-3.145663e+01
4.659445e+02	-3.150451e+01
4.686358e+02	-3.155863e+01
4.713426e+02	-3.160525e+01
4.740650e+02	-3.165206e+01
4.768032e+02	-3.170721e+01
4.795572e+02	-3.175580e+01
4.823271e+02	-3.180736e+01
4.851130e+02	-3.185199e+01
4.879150e+02	-3.190364e+01
4.907332e+02	-3.196015e+01
4.935676e+02	-3.200548e+01
4.964185e+02	-3.205325e+01
4.992858e+02	-3.210455e+01
5.021696e+02	-3.216029e+01
5.050701e+02	-3.221168e+01
5.079874e+02	-3.225856e+01
5.109215e+02	-3.230732e+01
5.138726e+02	-3.236219e+01
5.168407e+02	-3.240810e+01
5.198259e+02	-3.246025e+01
5.228284e+02	-3.250897e+01
5.258482e+02	-3.255879e+01
5.288855e+02	-3.261074e+01
5.319403e+02	-3.265817e+01
5.350128e+02	-3.270718e+01
5.381030e+02	-3.275577e+01
5.412111e+02	-3.281349e+01
5.443371e+02	-3.286356e+01
5.474812e+02	-3.290930e+01
5.506434e+02	-3.296070e+01
5.538239e+02	-3.301265e+01
5.570228e+02	-3.306027e+01
5.602401e+02	-3.310650e+01
5.634760e+02	-3.316280e+01
5.667306e+02	-3.321317e+01
5.700040e+02	-3.325739e+01
5.732964e+02	-3.331278e+01
5.766077e+02	-3.336247e+01
5.799382e+02	-3.341911e+01
5.832879e+02	-3.346574e+01
5.866569e+02	-3.350815e+01
5.900454e+02	-3.356605e+01
5.934535e+02	-3.361614e+01
5.968813e+02	-3.366432e+01
6.003288e+02	-3.371968e+01
6.037963e+02	-3.376280e+01
6.072838e+02	-3.381304e+01
6.107914e+02	-3.386599e+01
6.143194e+02	-3.392013e+01
6.178676e+02	-3.396987e+01
6.214364e+02	-3.401193e+01
6.250258e+02	-3.406835e+01
6.286359e+02	-3.411834e+01
6.322669e+02	-3.417409e+01
6.359189e+02	-3.422304e+01
6.395919e+02	-3.426354e+01
6.432862e+02	-3.432100e+01
6.470017e+02	-3.437884e+01
6.507388e+02	-3.441090e+01
6.544974e+02	-3.446464e+01
6.582778e+02	-3.452034e+01
6.620800e+02	-3.457335e+01
6.659041e+02	-3.461935e+01
6.697504e+02	-3.466542e+01
6.736188e+02	-3.471529e+01
6.775096e+02	-3.477080e+01
6.814229e+02	-3.482868e+01
6.853587e+02	-3.487776e+01
6.893173e+02	-3.492584e+01
6.932988e+02	-3.497232e+01
6.973033e+02	-3.502168e+01
7.013309e+02	-3.506660e+01
