Frequency(Hz)	Magnitude(dB)
1.000000e+01	-2.155004e+00
1.005776e+01	-2.174790e+00
1.011585e+01	-2.194627e+00
1.017428e+01	-2.214276e+00
1.023305e+01	-2.234368e+00
1.029215e+01	-2.254714e+00
1.035160e+01	-2.275013e+00
1.041139e+01	-2.295515e+00
1.047153e+01	-2.316058e+00
1.053201e+01	-2.336817e+00
1.059284e+01	-2.357547e+00
1.065403e+01	-2.378719e+00
1.071556e+01	-2.399898e+00
1.077746e+01	-2.421097e+00
1.083971e+01	-2.442695e+00
1.090232e+01	-2.464119e+00
1.096529e+01	-2.486032e+00
1.102862e+01	-2.507913e+00
1.109232e+01	-2.529820e+00
1.115639e+01	-2.552131e+00
1.122083e+01	-2.574468e+00
1.128564e+01	-2.596956e+00
1.135083e+01	-2.619397e+00
1.141639e+01	-2.642166e+00
1.148233e+01	-2.664900e+00
1.154865e+01	-2.688081e+00
1.161536e+01	-2.711125e+00
1.168245e+01	-2.734552e+00
1.174992e+01	-2.757929e+00
1.181779e+01	-2.781459e+00
1.188605e+01	-2.805169e+00
1.195470e+01	-2.829139e+00
1.202375e+01	-2.853164e+00
1.209320e+01	-2.877332e+00
1.216305e+01	-2.901525e+00
1.223330e+01	-2.925810e+00
1.230396e+01	-2.950579e+00
1.237503e+01	-2.975316e+00
1.244651e+01	-3.000182e+00
1.251840e+01	-3.025219e+00
1.259070e+01	-3.050312e+00
1.266343e+01	-3.075477e+00
1.273657e+01	-3.101290e+00
1.281014e+01	-3.126860e+00
1.288413e+01	-3.152486e+00
1.295855e+01	-3.178582e+00
1.303339e+01	-3.204697e+00
1.310867e+01	-3.230544e+00
1.318439e+01	-3.257089e+00
1.326054e+01	-3.283502e+00
1.333713e+01	-3.309968e+00
1.341417e+01	-3.336787e+00
1.349165e+01	-3.363695e+00
1.356958e+01	-3.390685e+00
1.364795e+01	-3.417810e+00
1.372678e+01	-3.445006e+00
1.380607e+01	-3.472663e+00
1.388581e+01	-3.500101e+00
1.396602e+01	-3.527935e+00
1.404668e+01	-3.555718e+00
1.412782e+01	-3.584255e+00
1.420942e+01	-3.612256e+00
1.429149e+01	-3.640401e+00
1.437404e+01	-3.669072e+00
1.445706e+01	-3.697763e+00
1.454057e+01	-3.726333e+00
1.462455e+01	-3.755207e+00
1.470902e+01	-3.784133e+00
1.479398e+01	-3.813242e+00
1.487943e+01	-3.842677e+00
1.496537e+01	-3.872148e+00
1.505181e+01	-3.901785e+00
1.513875e+01	-3.931527e+00
1.522619e+01	-3.961301e+00
1.531414e+01	-3.991148e+00
1.540259e+01	-4.021307e+00
1.549156e+01	-4.051661e+00
1.558103e+01	-4.082013e+00
1.567103e+01	-4.112885e+00
1.576155e+01	-4.143355e+00
1.585258e+01	-4.174182e+00
1.594415e+01	-4.204959e+00
1.603624e+01	-4.236375e+00
1.612886e+01	-4.267653e+00
1.622202e+01	-4.298868e+00
1.631572e+01	-4.330309e+00
1.640996e+01	-4.361699e+00
1.650474e+01	-4.393636e+00
1.660008e+01	-4.425443e+00
1.669596e+01	-4.457650e+00
1.679239e+01	-4.489738e+00
1.688938e+01	-4.522059e+00
1.698694e+01	-4.554568e+00
1.708505e+01	-4.587351e+00
1.718373e+01	-4.619864e+00
1.728299e+01	-4.652776e+00
1.738281e+01	-4.685617e+00
1.748322e+01	-4.718695e+00
1.758420e+01	-4.752020e+00
1.768576e+01	-4.785215e+00
1.778792e+01	-4.818508e+00
1.789066e+01	-4.852381e+00
1.799399e+01	-4.886043e+00
1.809793e+01	-4.919853e+00
1.820246e+01	-4.953715e+00
1.830760e+01	-4.988202e+00
1.841334e+01	-5.022168e+00
1.851969e+01	-5.056449e+00
1.862666e+01	-5.090998e+00
1.873425e+01	-5.125563e+00
1.884246e+01	-5.160168e+00
1.895129e+01	-5.195381e+00
1.906075e+01	-5.230207e+00
1.917085e+01	-5.265315e+00
1.928158e+01	-5.300366e+00
1.939295e+01	-5.335810e+00
1.950496e+01	-5.371046e+00
1.961762e+01	-5.406881e+00
1.973093e+01	-5.442379e+00
1.984490e+01	-5.478002e+00
1.995952e+01	-5.514331e+00
2.007480e+01	-5.550029e+00
2.019076e+01	-5.586198e+00
2.030738e+01	-5.622697e+00
2.042467e+01	-5.658950e+00
2.054264e+01	-5.695338e+00
2.066130e+01	-5.732271e+00
2.078064e+01	-5.768576e+00
2.090066e+01	-5.805606e+00
2.102139e+01	-5.842751e+00
2.114280e+01	-5.879626e+00
2.126492e+01	-5.916923e+00
2.138775e+01	-5.953811e+00
2.151128e+01	-5.991360e+00
2.163553e+01	-6.028744e+00
2.176050e+01	-6.066830e+00
2.188619e+01	-6.104255e+00
2.201260e+01	-6.142018e+00
2.213974e+01	-6.179796e+00
2.226762e+01	-6.218130e+00
2.239624e+01	-6.255765e+00
2.252560e+01	-6.294547e+00
2.265571e+01	-6.332519e+00
2.278656e+01	-6.370932e+00
2.291818e+01	-6.409571e+00
2.305055e+01	-6.448087e+00
2.318369e+01	-6.486867e+00
2.331760e+01	-6.525876e+00
2.345228e+01	-6.565102e+00
2.358774e+01	-6.603646e+00
2.372398e+01	-6.643027e+00
2.386101e+01	-6.682151e+00
2.399883e+01	-6.721471e+00
2.413745e+01	-6.761126e+00
2.427686e+01	-6.800614e+00
2.441709e+01	-6.840020e+00
2.455812e+01	-6.879861e+00
2.469997e+01	-6.919579e+00
2.484263e+01	-6.959693e+00
2.498612e+01	-6.999125e+00
2.513044e+01	-7.039936e+00
2.527559e+01	-7.079761e+00
2.542158e+01	-7.120088e+00
2.556842e+01	-7.160320e+00
2.571610e+01	-7.200802e+00
2.586463e+01	-7.241700e+00
2.601403e+01	-7.282244e+00
2.616428e+01	-7.322277e+00
2.631541e+01	-7.363790e+00
2.646740e+01	-7.404410e+00
2.662028e+01	-7.445192e+00
2.677404e+01	-7.486579e+00
2.692868e+01	-7.527543e+00
2.708422e+01	-7.568903e+00
2.724066e+01	-7.610067e+00
2.739800e+01	-7.651179e+00
2.755625e+01	-7.692953e+00
2.771541e+01	-7.734496e+00
2.787550e+01	-7.776520e+00
2.803650e+01	-7.818205e+00
2.819844e+01	-7.859811e+00
2.836131e+01	-7.901483e+00
2.852513e+01	-7.943704e+00
2.868989e+01	-7.985745e+00
2.885560e+01	-8.027928e+00
2.902227e+01	-8.069974e+00
2.918990e+01	-8.112241e+00
2.935850e+01	-8.154745e+00
2.952807e+01	-8.196631e+00
2.969863e+01	-8.239479e+00
2.987016e+01	-8.281883e+00
3.004269e+01	-8.324291e+00
3.021622e+01	-8.367132e+00
3.039075e+01	-8.410008e+00
3.056628e+01	-8.453137e+00
3.074283e+01	-8.496037e+00
3.092040e+01	-8.538583e+00
3.109900e+01	-8.582093e+00
3.127862e+01	-8.624888e+00
3.145929e+01	-8.668450e+00
3.164099e+01	-8.711448e+00
3.182375e+01	-8.754775e+00
3.200756e+01	-8.798032e+00
3.219244e+01	-8.841425e+00
3.237838e+01	-8.885199e+00
3.256540e+01	-8.928907e+00
3.275349e+01	-8.972089e+00
3.294268e+01	-9.016062e+00
3.313295e+01	-9.060257e+00
3.332433e+01	-9.103864e+00
3.351681e+01	-9.147662e+00
3.371040e+01	-9.191585e+00
3.390511e+01	-9.235666e+00
3.410094e+01	-9.279493e+00
3.429791e+01	-9.323758e+00
3.449601e+01	-9.367923e+00
3.469526e+01	-9.412370e+00
3.489566e+01	-9.456755e+00
3.509721e+01	-9.501232e+00
3.529993e+01	-9.545453e+00
3.550382e+01	-9.590059e+00
3.570889e+01	-9.634894e+00
3.591515e+01	-9.679286e+00
3.612259e+01	-9.723252e+00
3.633123e+01	-9.768943e+00
3.654108e+01	-9.813089e+00
3.675214e+01	-9.858290e+00
3.696442e+01	-9.903059e+00
3.717792e+01	-9.948016e+00
3.739266e+01	-9.993121e+00
3.760864e+01	-1.003844e+01
3.782587e+01	-1.008344e+01
3.804435e+01	-1.012824e+01
3.826409e+01	-1.017339e+01
3.848510e+01	-1.021862e+01
3.870739e+01	-1.026391e+01
3.893096e+01	-1.030941e+01
3.915583e+01	-1.035483e+01
3.938199e+01	-1.040016e+01
3.960946e+01	-1.044510e+01
3.983824e+01	-1.049160e+01
4.006834e+01	-1.053696e+01
4.029978e+01	-1.058294e+01
4.053255e+01	-1.062796e+01
4.076666e+01	-1.067320e+01
4.100213e+01	-1.071996e+01
4.123896e+01	-1.076503e+01
4.147715e+01	-1.081132e+01
4.171672e+01	-1.085773e+01
4.195767e+01	-1.090340e+01
4.220002e+01	-1.094923e+01
4.244377e+01	-1.099530e+01
4.268892e+01	-1.104145e+01
4.293549e+01	-1.108721e+01
4.318348e+01	-1.113286e+01
4.343291e+01	-1.118002e+01
4.368377e+01	-1.122581e+01
4.393609e+01	-1.127240e+01
4.418986e+01	-1.131847e+01
4.444510e+01	-1.136498e+01
4.470182e+01	-1.141133e+01
4.496001e+01	-1.145754e+01
4.521970e+01	-1.150485e+01
4.548089e+01	-1.155050e+01
4.574358e+01	-1.159787e+01
4.600779e+01	-1.164350e+01
4.627353e+01	-1.169068e+01
4.654081e+01	-1.173728e+01
4.680963e+01	-1.178418e+01
4.708000e+01	-1.183007e+01
4.735193e+01	-1.187699e+01
4.762543e+01	-1.192410e+01
4.790051e+01	-1.197092e+01
4.817719e+01	-1.201743e+01
4.845545e+01	-1.206471e+01
4.873533e+01	-1.211155e+01
4.901682e+01	-1.215858e+01
4.929994e+01	-1.220518e+01
4.958470e+01	-1.225238e+01
4.987110e+01	-1.229940e+01
5.015915e+01	-1.234691e+01
5.044887e+01	-1.239361e+01
5.074026e+01	-1.244072e+01
5.103333e+01	-1.248792e+01
5.132810e+01	-1.253542e+01
5.162457e+01	-1.258281e+01
5.192275e+01	-1.262989e+01
5.222265e+01	-1.267782e+01
5.252429e+01	-1.272476e+01
5.282767e+01	-1.277153e+01
5.313280e+01	-1.281966e+01
5.343969e+01	-1.286722e+01
5.374836e+01	-1.291355e+01
5.405880e+01	-1.296114e+01
5.437105e+01	-1.300957e+01
5.468509e+01	-1.305651e+01
5.500095e+01	-1.310431e+01
5.531863e+01	-1.315247e+01
5.563815e+01	-1.319996e+01
5.595951e+01	-1.324741e+01
5.628273e+01	-1.329449e+01
5.660782e+01	-1.334252e+01
5.693479e+01	-1.339035e+01
5.726364e+01	-1.343838e+01
5.759439e+01	-1.348545e+01
5.792705e+01	-1.353376e+01
5.826164e+01	-1.358093e+01
5.859815e+01	-1.362919e+01
5.893662e+01	-1.367744e+01
5.927703e+01	-1.372512e+01
5.961941e+01	-1.377370e+01
5.996377e+01	-1.382097e+01
6.031012e+01	-1.386941e+01
6.065847e+01	-1.391650e+01
6.100883e+01	-1.396442e+01
6.136121e+01	-1.401281e+01
6.171563e+01	-1.406119e+01
6.207210e+01	-1.410933e+01
6.243063e+01	-1.415708e+01
6.279122e+01	-1.420514e+01
6.315390e+01	-1.425324e+01
6.351868e+01	-1.430182e+01
6.388556e+01	-1.434985e+01
6.425456e+01	-1.439769e+01
6.462569e+01	-1.444651e+01
6.499897e+01	-1.449532e+01
6.537440e+01	-1.454236e+01
6.575200e+01	-1.459125e+01
6.613178e+01	-1.463912e+01
6.651375e+01	-1.468809e+01
6.689793e+01	-1.473531e+01
6.728433e+01	-1.478444e+01
6.767297e+01	-1.483241e+01
6.806384e+01	-1.488036e+01
6.845698e+01	-1.492973e+01
6.885238e+01	-1.497815e+01
6.925007e+01	-1.502652e+01
6.965005e+01	-1.507564e+01
7.005235e+01	-1.512347e+01
7.045697e+01	-1.517169e+01
7.086393e+01	-1.522011e+01
7.127323e+01	-1.526863e+01
7.168490e+01	-1.531723e+01
7.209895e+01	-1.536532e+01
7.251539e+01	-1.541471e+01
7.293424e+01	-1.546292e+01
7.335551e+01	-1.551136e+01
7.377920e+01	-1.556063e+01
7.420535e+01	-1.560925e+01
7.463396e+01	-1.565745e+01
7.506504e+01	-1.570649e+01
7.549861e+01	-1.575427e+01
7.593469e+01	-1.580300e+01
7.637328e+01	-1.585248e+01
7.681441e+01	-1.590132e+01
7.725809e+01	-1.594996e+01
7.770433e+01	-1.599946e+01
7.815315e+01	-1.604734e+01
7.860456e+01	-1.609662e+01
7.905857e+01	-1.614496e+01
7.951521e+01	-1.619318e+01
7.997449e+01	-1.624283e+01
8.043642e+01	-1.629209e+01
8.090102e+01	-1.634029e+01
8.136830e+01	-1.638942e+01
8.183828e+01	-1.643807e+01
8.231097e+01	-1.648695e+01
8.278640e+01	-1.653684e+01
8.326457e+01	-1.658479e+01
8.374550e+01	-1.663526e+01
8.422921e+01	-1.668373e+01
8.471572e+01	-1.673247e+01
8.520503e+01	-1.677995e+01
8.569717e+01	-1.683029e+01
8.619215e+01	-1.687906e+01
8.669000e+01	-1.692747e+01
8.719071e+01	-1.697679e+01
8.769432e+01	-1.702533e+01
8.820084e+01	-1.707585e+01
8.871029e+01	-1.712375e+01
8.922267e+01	-1.717309e+01
8.973802e+01	-1.722262e+01
9.025634e+01	-1.727041e+01
9.077766e+01	-1.732038e+01
9.130199e+01	-1.736907e+01
9.182935e+01	-1.741874e+01
9.235975e+01	-1.746822e+01
9.289321e+01	-1.751704e+01
9.342976e+01	-1.756588e+01
9.396941e+01	-1.761456e+01
9.451217e+01	-1.766477e+01
9.505807e+01	-1.771367e+01
9.560712e+01	-1.776151e+01
9.615934e+01	-1.781240e+01
9.671476e+01	-1.786187e+01
9.727338e+01	-1.790994e+01
9.783522e+01	-1.795979e+01
9.840032e+01	-1.800904e+01
9.896867e+01	-1.805893e+01
9.954031e+01	-1.810760e+01
1.001153e+02	-1.815624e+01
1.006935e+02	-1.820505e+01
1.012751e+02	-1.825567e+01
1.018601e+02	-1.830451e+01
1.024484e+02	-1.835340e+01
1.030402e+02	-1.840269e+01
1.036353e+02	-1.845202e+01
1.042339e+02	-1.850232e+01
1.048360e+02	-1.855090e+01
1.054415e+02	-1.860143e+01
1.060505e+02	-1.864969e+01
1.066631e+02	-1.869915e+01
1.072791e+02	-1.874685e+01
1.078988e+02	-1.879755e+01
1.085220e+02	-1.884811e+01
1.091488e+02	-1.889587e+01
1.097793e+02	-1.894500e+01
1.104133e+02	-1.899565e+01
1.110511e+02	-1.904359e+01
1.116925e+02	-1.909287e+01
1.123376e+02	-1.914407e+01
1.129865e+02	-1.919332e+01
1.136391e+02	-1.924279e+01
1.142955e+02	-1.929164e+01
1.149556e+02	-1.934096e+01
1.156196e+02	-1.939198e+01
1.162874e+02	-1.944012e+01
1.169591e+02	-1.948923e+01
1.176347e+02	-1.953882e+01
1.183141e+02	-1.958646e+01
1.189975e+02	-1.963851e+01
1.196848e+02	-1.968830e+01
1.203761e+02	-1.973542e+01
1.210714e+02	-1.978767e+01
1.217707e+02	-1.983718e+01
1.224740e+02	-1.988607e+01
1.231814e+02	-1.993699e+01
1.238929e+02	-1.998522e+01
1.246085e+02	-2.003402e+01
1.253283e+02	-2.008534e+01
1.260522e+02	-2.013323e+01
1.267802e+02	-2.018435e+01
1.275125e+02	-2.023228e+01
1.282490e+02	-2.028159e+01
1.289898e+02	-2.033149e+01
1.297348e+02	-2.038231e+01
1.304842e+02	-2.042982e+01
1.312378e+02	-2.048045e+01
1.319959e+02	-2.053051e+01
1.327583e+02	-2.057864e+01
1.335251e+02	-2.062832e+01
1.342963e+02	-2.067871e+01
1.350720e+02	-2.072982e+01
1.358522e+02	-2.077765e+01
1.366368e+02	-2.082806e+01
1.374260e+02	-2.087569e+01
1.382198e+02	-2.092577e+01
1.390182e+02	-2.097644e+01
1.398211e+02	-2.102555e+01
1.406287e+02	-2.107532e+01
1.414410e+02	-2.112518e+01
1.422579e+02	-2.117598e+01
1.430796e+02	-2.122539e+01
1.439060e+02	-2.127510e+01
1.447372e+02	-2.132407e+01
1.455732e+02	-2.137205e+01
1.464141e+02	-2.142492e+01
1.472597e+02	-2.147333e+01
1.481103e+02	-2.152257e+01
1.489658e+02	-2.157211e+01
1.498262e+02	-2.162267e+01
1.506916e+02	-2.167205e+01
1.515620e+02	-2.172098e+01
1.524374e+02	-2.177093e+01
1.533179e+02	-2.182151e+01
1.542034e+02	-2.186949e+01
1.550941e+02	-2.192064e+01
1.559899e+02	-2.197007e+01
1.568909e+02	-2.201941e+01
1.577971e+02	-2.206952e+01
1.587085e+02	-2.211860e+01
1.596252e+02	-2.216941e+01
1.605472e+02	-2.221792e+01
1.614745e+02	-2.226800e+01
1.624072e+02	-2.231564e+01
1.633453e+02	-2.236707e+01
1.642887e+02	-2.241884e+01
1.652377e+02	-2.246726e+01
1.661921e+02	-2.251666e+01
1.671520e+02	-2.256781e+01
1.681175e+02	-2.261653e+01
1.690885e+02	-2.266924e+01
1.700651e+02	-2.271758e+01
1.710474e+02	-2.276577e+01
1.720354e+02	-2.281475e+01
1.730291e+02	-2.286638e+01
1.740285e+02	-2.291587e+01
1.750337e+02	-2.296560e+01
1.760446e+02	-2.301510e+01
1.770615e+02	-2.306528e+01
1.780842e+02	-2.311304e+01
1.791128e+02	-2.316541e+01
1.801473e+02	-2.321510e+01
1.811878e+02	-2.326465e+01
1.822344e+02	-2.331389e+01
1.832870e+02	-2.335997e+01
1.843456e+02	-2.341573e+01
1.854104e+02	-2.346357e+01
1.864813e+02	-2.351210e+01
1.875584e+02	-2.356310e+01
1.886418e+02	-2.361454e+01
1.897313e+02	-2.366340e+01
1.908272e+02	-2.371412e+01
1.919294e+02	-2.376179e+01
1.930380e+02	-2.381323e+01
1.941530e+02	-2.386467e+01
1.952744e+02	-2.391036e+01
1.964023e+02	-2.396157e+01
1.975367e+02	-2.401341e+01
1.986777e+02	-2.406282e+01
1.998252e+02	-2.411167e+01
2.009794e+02	-2.416231e+01
2.021403e+02	-2.421237e+01
2.033078e+02	-2.425855e+01
2.044821e+02	-2.431050e+01
2.056632e+02	-2.436198e+01
2.068511e+02	-2.441118e+01
2.080459e+02	-2.445906e+01
2.092475e+02	-2.451129e+01
2.104561e+02	-2.456155e+01
2.116717e+02	-2.461408e+01
2.128943e+02	-2.466094e+01
2.141240e+02	-2.471051e+01
2.153608e+02	-2.476007e+01
2.166047e+02	-2.481098e+01
2.178558e+02	-2.486243e+01
2.191141e+02	-2.491006e+01
2.203797e+02	-2.496052e+01
2.216526e+02	-2.500892e+01
2.229329e+02	-2.505906e+01
2.242205e+02	-2.511052e+01
2.255156e+02	-2.515800e+01
2.268182e+02	-2.520930e+01
2.281283e+02	-2.525792e+01
2.294459e+02	-2.530760e+01
2.307712e+02	-2.536107e+01
2.321041e+02	-2.540672e+01
2.334447e+02	-2.546015e+01
2.347931e+02	-2.550689e+01
2.361493e+02	-2.555800e+01
2.375133e+02	-2.560841e+01
2.388851e+02	-2.566238e+01
2.402649e+02	-2.570640e+01
2.416527e+02	-2.575673e+01
2.430484e+02	-2.580921e+01
2.444523e+02	-2.585949e+01
2.458642e+02	-2.590780e+01
2.472843e+02	-2.595842e+01
2.487126e+02	-2.600786e+01
2.501492e+02	-2.605474e+01
2.515940e+02	-2.610652e+01
2.530472e+02	-2.615160e+01
2.545088e+02	-2.621104e+01
2.559789e+02	-2.625762e+01
2.574574e+02	-2.630640e+01
2.589444e+02	-2.636161e+01
2.604401e+02	-2.641097e+01
2.619444e+02	-2.645953e+01
2.634574e+02	-2.650629e+01
2.649791e+02	-2.656199e+01
2.665096e+02	-2.660812e+01
2.680489e+02	-2.665744e+01
2.695972e+02	-2.671121e+01
2.711544e+02	-2.675570e+01
2.727205e+02	-2.681041e+01
2.742958e+02	-2.685785e+01
2.758801e+02	-2.690995e+01
2.774736e+02	-2.695743e+01
2.790762e+02	-2.700760e+01
2.806882e+02	-2.706023e+01
2.823094e+02	-2.710768e+01
2.839400e+02	-2.715729e+01
2.855800e+02	-2.720743e+01
2.872295e+02	-2.725652e+01
2.888886e+02	-2.731358e+01
2.905572e+02	-2.735664e+01
2.922354e+02	-2.740958e+01
2.939234e+02	-2.745803e+01
2.956211e+02	-2.750577e+01
2.973286e+02	-2.755368e+01
2.990459e+02	-2.761136e+01
3.007732e+02	-2.766119e+01
3.025104e+02	-2.771347e+01
3.042577e+02	-2.776054e+01
3.060151e+02	-2.780800e+01
3.077826e+02	-2.785444e+01
3.095604e+02	-2.790682e+01
3.113484e+02	-2.795808e+01
3.131467e+02	-2.800725e+01
3.149554e+02	-2.805900e+01
3.167746e+02	-2.810889e+01
3.186043e+02	-2.815758e+01
3.204445e+02	-2.821176e+01
3.222954e+02	-2.825575e+01
3.241570e+02	-2.831168e+01
3.260293e+02	-2.835701e+01
3.279124e+02	-2.840734e+01
3.298064e+02	-2.845682e+01
3.317114e+02	-2.850910e+01
3.336273e+02	-2.855926e+01
3.355544e+02	-2.860999e+01
3.374925e+02	-2.865878e+01
3.394418e+02	-2.871129e+01
3.414024e+02	-2.876007e+01
3.433744e+02	-2.880779e+01
3.453577e+02	-2.886145e+01
3.473525e+02	-2.890447e+01
3.493588e+02	-2.895898e+01
3.513766e+02	-2.901022e+01
3.534062e+02	-2.906305e+01
3.554474e+02	-2.910949e+01
3.575005e+02	-2.916134e+01
3.595654e+02	-2.920873e+01
3.616422e+02	-2.925982e+01
3.637311e+02	-2.931226e+01
3.658320e+02	-2.936066e+01
3.679450e+02	-2.940539e+01
3.700702e+02	-2.946315e+01
3.722077e+02	-2.951242e+01
3.743576e+02	-2.956084e+01
3.765199e+02	-2.961116e+01
3.786946e+02	-2.966205e+01
3.808820e+02	-2.970933e+01
3.830819e+02	-2.975927e+01
3.852946e+02	-2.980607e+01
3.875200e+02	-2.985756e+01
3.897583e+02	-2.991054e+01
3.920096e+02	-2.995646e+01
3.942738e+02	-3.000884e+01
3.965511e+02	-3.006313e+01
3.988416e+02	-3.011338e+01
4.011452e+02	-3.016180e+01
4.034622e+02	-3.021329e+01
4.057926e+02	-3.026141e+01
4.081365e+02	-3.031398e+01
4.104938e+02	-3.035767e+01
4.128648e+02	-3.041624e+01
4.152495e+02	-3.046347e+01
4.176480e+02	-3.051175e+01
4.200603e+02	-3.055857e+01
4.224866e+02	-3.061451e+01
4.249268e+02	-3.066204e+01
4.273812e+02	-3.070558e+01
4.298497e+02	-3.076963e+01
4.323325e+02	-3.081656e+01
4.348297e+02	-3.085594e+01
4.373412e+02	-3.091065e+01
4.398673e+02	-3.096810e+01
4.424079e+02	-3.101222e+01
4.449633e+02	-3.105997e+01
4.475334e+02	-3.111598e+01
4.501183e+02	-3.116073e+01
4.527182e+02	-3.122037e+01
4.553330e+02	-3.126516e+01
4.579630e+02	-3.131732e+01
4.606082e+02	-3.136741e+01
4.632687e+02	-3.141256e+01
4.659445e+02	-3.146189e+01
4.686358e+02	-3.151751e+01
4.713426e+02	-3.156263e+01
4.740650e+02	-3.160930e+01
4.768032e+02	-3.166911e+01
4.795572e+02	-3.171856e+01
4.823271e+02	-3.175883e+01
4.851130e+02	-3.180912e+01
4.879150e+02	-3.186783e+01
4.907332e+02	-3.191733e+01
4.935676e+02	-3.196800e+01
4.964185e+02	-3.201209e+01
4.992858e+02	-3.206338e+01
5.021696e+02	-3.211469e+01
5.050701e+02	-3.217050e+01
5.079874e+02	-3.221868e+01
5.109215e+02	-3.227242e+01
5.138726e+02	-3.231433e+01
5.168407e+02	-3.236521e+01
5.198259e+02	-3.242130e+01
5.228284e+02	-3.246867e+01
5.258482e+02	-3.252048e+01
5.288855e+02	-3.257321e+01
5.319403e+02	-3.261144e+01
5.350128e+02	-3.267780e+01
5.381030e+02	-3.271815e+01
5.412111e+02	-3.276420e+01
5.443371e+02	-3.282017e+01
5.474812e+02	-3.286776e+01
5.506434e+02	-3.292581e+01
5.538239e+02	-3.297086e+01
5.570228e+02	-3.302133e+01
5.602401e+02	-3.307262e+01
5.634760e+02	-3.311982e+01
5.667306e+02	-3.317349e+01
5.700040e+02	-3.322532e+01
5.732964e+02	-3.326626e+01
5.766077e+02	-3.332640e+01
5.799382e+02	-3.337137e+01
5.832879e+02	-3.342529e+01
5.866569e+02	-3.346967e+01
5.900454e+02	-3.352136e+01
5.934535e+02	-3.357620e+01
5.968813e+02	-3.362936e+01
6.003288e+02	-3.367239e+01
6.037963e+02	-3.372376e+01
6.072838e+02	-3.377232e+01
6.107914e+02	-3.382624e+01
6.143194e+02	-3.387772e+01
6.178676e+02	-3.392291e+01
6.214364e+02	-3.397268e+01
6.250258e+02	-3.402623e+01
6.286359e+02	-3.407733e+01
6.322669e+02	-3.412674e+01
6.359189e+02	-3.417209e+01
6.395919e+02	-3.422413e+01
6.432862e+02	-3.427267e+01
6.470017e+02	-3.432481e+01
6.507388e+02	-3.438092e+01
6.544974e+02	-3.442565e+01
6.582778e+02	-3.448183e+01
6.620800e+02	-3.453388e+01
6.659041e+02	-3.458182e+01
6.697504e+02	-3.462388e+01
6.736188e+02	-3.468980e+01
6.775096e+02	-3.473905e+01
6.814229e+02	-3.477672e+01
6.853587e+02	-3.484400e+01
6.893173e+02	-3.487389e+01
6.932988e+02	-3.493099e+01
6.973033e+02	-3.497471e+01
7.013309e+02	-3.502847e+01
