Frequency(Hz)	Magnitude(dB)
1.000000e+01	-1.686515e-05
1.005776e+01	-1.706054e-05
1.011585e+01	-1.725819e-05
1.017428e+01	-1.745813e-05
1.023305e+01	-1.766039e-05
1.029215e+01	-1.786499e-05
1.035160e+01	-1.807196e-05
1.041139e+01	-1.828133e-05
1.047153e+01	-1.849312e-05
1.053201e+01	-1.870737e-05
1.059284e+01	-1.892410e-05
1.065403e+01	-1.914334e-05
1.071556e+01	-1.936512e-05
1.077746e+01	-1.958947e-05
1.083971e+01	-1.981642e-05
1.090232e+01	-2.004600e-05
1.096529e+01	-2.027824e-05
1.102862e+01	-2.051316e-05
1.109232e+01	-2.075081e-05
1.115639e+01	-2.099122e-05
1.122083e+01	-2.123441e-05
1.128564e+01	-2.148041e-05
1.135083e+01	-2.172927e-05
1.141639e+01	-2.198101e-05
1.148233e+01	-2.223566e-05
1.154865e+01	-2.249327e-05
1.161536e+01	-2.275386e-05
1.168245e+01	-2.301747e-05
1.174992e+01	-2.328413e-05
1.181779e+01	-2.355388e-05
1.188605e+01	-2.382676e-05
1.195470e+01	-2.410280e-05
1.202375e+01	-2.438204e-05
1.209320e+01	-2.466451e-05
1.216305e+01	-2.495025e-05
1.223330e+01	-2.523931e-05
1.230396e+01	-2.553171e-05
1.237503e+01	-2.582750e-05
1.244651e+01	-2.612672e-05
1.251840e+01	-2.642941e-05
1.259070e+01	-2.673560e-05
1.266343e+01	-2.704534e-05
1.273657e+01	-2.735866e-05
1.281014e+01	-2.767562e-05
1.288413e+01	-2.799625e-05
1.295855e+01	-2.832059e-05
1.303339e+01	-2.864869e-05
1.310867e+01	-2.898059e-05
1.318439e+01	-2.931634e-05
1.326054e+01	-2.965598e-05
1.333713e+01	-2.999955e-05
1.341417e+01	-3.034710e-05
1.349165e+01	-3.069868e-05
1.356958e+01	-3.105433e-05
1.364795e+01	-3.141410e-05
1.372678e+01	-3.177804e-05
1.380607e+01	-3.214620e-05
1.388581e+01	-3.251862e-05
1.396602e+01	-3.289536e-05
1.404668e+01	-3.327646e-05
1.412782e+01	-3.366197e-05
1.420942e+01	-3.405195e-05
1.429149e+01	-3.444645e-05
1.437404e+01	-3.484552e-05
1.445706e+01	-3.524922e-05
1.454057e+01	-3.565759e-05
1.462455e+01	-3.607069e-05
1.470902e+01	-3.648858e-05
1.479398e+01	-3.691131e-05
1.487943e+01	-3.733893e-05
1.496537e+01	-3.777151e-05
1.505181e+01	-3.820910e-05
1.513875e+01	-3.865176e-05
1.522619e+01	-3.909955e-05
1.531414e+01	-3.955253e-05
1.540259e+01	-4.001076e-05
1.549156e+01	-4.047429e-05
1.558103e+01	-4.094319e-05
1.567103e+01	-4.141753e-05
1.576155e+01	-4.189736e-05
1.585258e+01	-4.238275e-05
1.594415e+01	-4.287376e-05
1.603624e+01	-4.337047e-05
1.612886e+01	-4.387292e-05
1.622202e+01	-4.438120e-05
1.631572e+01	-4.489537e-05
1.640996e+01	-4.541549e-05
1.650474e+01	-4.594164e-05
1.660008e+01	-4.647388e-05
1.669596e+01	-4.701229e-05
1.679239e+01	-4.755694e-05
1.688938e+01	-4.810790e-05
1.698694e+01	-4.866524e-05
1.708505e+01	-4.922903e-05
1.718373e+01	-4.979936e-05
1.728299e+01	-5.037630e-05
1.738281e+01	-5.095992e-05
1.748322e+01	-5.155030e-05
1.758420e+01	-5.214752e-05
1.768576e+01	-5.275166e-05
1.778792e+01	-5.336280e-05
1.789066e+01	-5.398102e-05
1.799399e+01	-5.460640e-05
1.809793e+01	-5.523903e-05
1.820246e+01	-5.587898e-05
1.830760e+01	-5.652635e-05
1.841334e+01	-5.718122e-05
1.851969e+01	-5.784368e-05
1.862666e+01	-5.851381e-05
1.873425e+01	-5.919170e-05
1.884246e+01	-5.987745e-05
1.895129e+01	-6.057114e-05
1.906075e+01	-6.127287e-05
1.917085e+01	-6.198273e-05
1.928158e+01	-6.270081e-05
1.939295e+01	-6.342721e-05
1.950496e+01	-6.416203e-05
1.961762e+01	-6.490536e-05
1.973093e+01	-6.565730e-05
1.984490e+01	-6.641795e-05
1.995952e+01	-6.718742e-05
2.007480e+01	-6.796580e-05
2.019076e+01	-6.875319e-05
2.030738e+01	-6.954971e-05
2.042467e+01	-7.035546e-05
2.054264e+01	-7.117054e-05
2.066130e+01	-7.199506e-05
2.078064e+01	-7.282914e-05
2.090066e+01	-7.367288e-05
2.102139e+01	-7.452639e-05
2.114280e+01	-7.538979e-05
2.126492e+01	-7.626320e-05
2.138775e+01	-7.714672e-05
2.151128e+01	-7.804048e-05
2.163553e+01	-7.894459e-05
2.176050e+01	-7.985918e-05
2.188619e+01	-8.078436e-05
2.201260e+01	-8.172026e-05
2.213974e+01	-8.266700e-05
2.226762e+01	-8.362471e-05
2.239624e+01	-8.459352e-05
2.252560e+01	-8.557355e-05
2.265571e+01	-8.656493e-05
2.278656e+01	-8.756780e-05
2.291818e+01	-8.858229e-05
2.305055e+01	-8.960853e-05
2.318369e+01	-9.064666e-05
2.331760e+01	-9.169681e-05
2.345228e+01	-9.275914e-05
2.358774e+01	-9.383377e-05
2.372398e+01	-9.492084e-05
2.386101e+01	-9.602052e-05
2.399883e+01	-9.713293e-05
2.413745e+01	-9.825823e-05
2.427686e+01	-9.939656e-05
2.441709e+01	-1.005481e-04
2.455812e+01	-1.017130e-04
2.469997e+01	-1.028913e-04
2.484263e+01	-1.040833e-04
2.498612e+01	-1.052891e-04
2.513044e+01	-1.065089e-04
2.527559e+01	-1.077428e-04
2.542158e+01	-1.089911e-04
2.556842e+01	-1.102537e-04
2.571610e+01	-1.115310e-04
2.586463e+01	-1.128231e-04
2.601403e+01	-1.141302e-04
2.616428e+01	-1.154524e-04
2.631541e+01	-1.167900e-04
2.646740e+01	-1.181430e-04
2.662028e+01	-1.195117e-04
2.677404e+01	-1.208962e-04
2.692868e+01	-1.222968e-04
2.708422e+01	-1.237137e-04
2.724066e+01	-1.251469e-04
2.739800e+01	-1.265967e-04
2.755625e+01	-1.280634e-04
2.771541e+01	-1.295470e-04
2.787550e+01	-1.310478e-04
2.803650e+01	-1.325660e-04
2.819844e+01	-1.341018e-04
2.836131e+01	-1.356554e-04
2.852513e+01	-1.372270e-04
2.868989e+01	-1.388168e-04
2.885560e+01	-1.404250e-04
2.902227e+01	-1.420518e-04
2.918990e+01	-1.436975e-04
2.935850e+01	-1.453622e-04
2.952807e+01	-1.470463e-04
2.969863e+01	-1.487498e-04
2.987016e+01	-1.504731e-04
3.004269e+01	-1.522163e-04
3.021622e+01	-1.539798e-04
3.039075e+01	-1.557636e-04
3.056628e+01	-1.575682e-04
3.074283e+01	-1.593936e-04
3.092040e+01	-1.612402e-04
3.109900e+01	-1.631082e-04
3.127862e+01	-1.649978e-04
3.145929e+01	-1.669093e-04
3.164099e+01	-1.688430e-04
3.182375e+01	-1.707990e-04
3.200756e+01	-1.727777e-04
3.219244e+01	-1.747794e-04
3.237838e+01	-1.768042e-04
3.256540e+01	-1.788525e-04
3.275349e+01	-1.809245e-04
3.294268e+01	-1.830205e-04
3.313295e+01	-1.851408e-04
3.332433e+01	-1.872857e-04
3.351681e+01	-1.894554e-04
3.371040e+01	-1.916502e-04
3.390511e+01	-1.938705e-04
3.410094e+01	-1.961165e-04
3.429791e+01	-1.983885e-04
3.449601e+01	-2.006868e-04
3.469526e+01	-2.030118e-04
3.489566e+01	-2.053637e-04
3.509721e+01	-2.077428e-04
3.529993e+01	-2.101495e-04
3.550382e+01	-2.125841e-04
3.570889e+01	-2.150469e-04
3.591515e+01	-2.175382e-04
3.612259e+01	-2.200584e-04
3.633123e+01	-2.226077e-04
3.654108e+01	-2.251866e-04
3.675214e+01	-2.277954e-04
3.696442e+01	-2.304344e-04
3.717792e+01	-2.331040e-04
3.739266e+01	-2.358045e-04
3.760864e+01	-2.385363e-04
3.782587e+01	-2.412997e-04
3.804435e+01	-2.440952e-04
3.826409e+01	-2.469230e-04
3.848510e+01	-2.497836e-04
3.870739e+01	-2.526773e-04
3.893096e+01	-2.556046e-04
3.915583e+01	-2.585657e-04
3.938199e+01	-2.615612e-04
3.960946e+01	-2.645914e-04
3.983824e+01	-2.676566e-04
4.006834e+01	-2.707574e-04
4.029978e+01	-2.738941e-04
4.053255e+01	-2.770672e-04
4.076666e+01	-2.802770e-04
4.100213e+01	-2.835239e-04
4.123896e+01	-2.868085e-04
4.147715e+01	-2.901312e-04
4.171672e+01	-2.934923e-04
4.195767e+01	-2.968924e-04
4.220002e+01	-3.003318e-04
4.244377e+01	-3.038112e-04
4.268892e+01	-3.073308e-04
4.293549e+01	-3.108911e-04
4.318348e+01	-3.144928e-04
4.343291e+01	-3.181361e-04
4.368377e+01	-3.218217e-04
4.393609e+01	-3.255499e-04
4.418986e+01	-3.293214e-04
4.444510e+01	-3.331365e-04
4.470182e+01	-3.369959e-04
4.496001e+01	-3.408999e-04
4.521970e+01	-3.448492e-04
4.548089e+01	-3.488442e-04
4.574358e+01	-3.528855e-04
4.600779e+01	-3.569736e-04
4.627353e+01	-3.611090e-04
4.654081e+01	-3.652924e-04
4.680963e+01	-3.695242e-04
4.708000e+01	-3.738051e-04
4.735193e+01	-3.781355e-04
4.762543e+01	-3.825162e-04
4.790051e+01	-3.869475e-04
4.817719e+01	-3.914302e-04
4.845545e+01	-3.959648e-04
4.873533e+01	-4.005520e-04
4.901682e+01	-4.051923e-04
4.929994e+01	-4.098863e-04
4.958470e+01	-4.146347e-04
4.987110e+01	-4.194382e-04
5.015915e+01	-4.242972e-04
5.044887e+01	-4.292126e-04
5.074026e+01	-4.341849e-04
5.103333e+01	-4.392148e-04
5.132810e+01	-4.443029e-04
5.162457e+01	-4.494500e-04
5.192275e+01	-4.546568e-04
5.222265e+01	-4.599238e-04
5.252429e+01	-4.652519e-04
5.282767e+01	-4.706417e-04
5.313280e+01	-4.760939e-04
5.343969e+01	-4.816093e-04
5.374836e+01	-4.871885e-04
5.405880e+01	-4.928324e-04
5.437105e+01	-4.985417e-04
5.468509e+01	-5.043171e-04
5.500095e+01	-5.101594e-04
5.531863e+01	-5.160694e-04
5.563815e+01	-5.220478e-04
5.595951e+01	-5.280955e-04
5.628273e+01	-5.342133e-04
5.660782e+01	-5.404019e-04
5.693479e+01	-5.466622e-04
5.726364e+01	-5.529951e-04
5.759439e+01	-5.594012e-04
5.792705e+01	-5.658816e-04
5.826164e+01	-5.724371e-04
5.859815e+01	-5.790685e-04
5.893662e+01	-5.857767e-04
5.927703e+01	-5.925626e-04
5.961941e+01	-5.994272e-04
5.996377e+01	-6.063712e-04
6.031012e+01	-6.133957e-04
6.065847e+01	-6.205015e-04
6.100883e+01	-6.276897e-04
6.136121e+01	-6.349611e-04
6.171563e+01	-6.423168e-04
6.207210e+01	-6.497577e-04
6.243063e+01	-6.572847e-04
6.279122e+01	-6.648989e-04
6.315390e+01	-6.726014e-04
6.351868e+01	-6.803930e-04
6.388556e+01	-6.882750e-04
6.425456e+01	-6.962482e-04
6.462569e+01	-7.043138e-04
6.499897e+01	-7.124727e-04
6.537440e+01	-7.207263e-04
6.575200e+01	-7.290754e-04
6.613178e+01	-7.375212e-04
6.651375e+01	-7.460648e-04
6.689793e+01	-7.547075e-04
6.728433e+01	-7.634502e-04
6.767297e+01	-7.722942e-04
6.806384e+01	-7.812406e-04
6.845698e+01	-7.902907e-04
6.885238e+01	-7.994456e-04
6.925007e+01	-8.087065e-04
6.965005e+01	-8.180747e-04
7.005235e+01	-8.275514e-04
7.045697e+01	-8.371379e-04
7.086393e+01	-8.468354e-04
7.127323e+01	-8.566453e-04
7.168490e+01	-8.665688e-04
7.209895e+01	-8.766072e-04
7.251539e+01	-8.867619e-04
7.293424e+01	-8.970342e-04
7.335551e+01	-9.074255e-04
7.377920e+01	-9.179372e-04
7.420535e+01	-9.285706e-04
7.463396e+01	-9.393272e-04
7.506504e+01	-9.502083e-04
7.549861e+01	-9.612155e-04
7.593469e+01	-9.723502e-04
7.637328e+01	-9.836139e-04
7.681441e+01	-9.950080e-04
7.725809e+01	-1.006534e-03
7.770433e+01	-1.018194e-03
7.815315e+01	-1.029988e-03
7.860456e+01	-1.041920e-03
7.905857e+01	-1.053989e-03
7.951521e+01	-1.066198e-03
7.997449e+01	-1.078549e-03
8.043642e+01	-1.091043e-03
8.090102e+01	-1.103681e-03
8.136830e+01	-1.116466e-03
8.183828e+01	-1.129399e-03
8.231097e+01	-1.142482e-03
8.278640e+01	-1.155716e-03
8.326457e+01	-1.169103e-03
8.374550e+01	-1.182646e-03
8.422921e+01	-1.196345e-03
8.471572e+01	-1.210203e-03
8.520503e+01	-1.224222e-03
8.569717e+01	-1.238403e-03
8.619215e+01	-1.252748e-03
8.669000e+01	-1.267259e-03
8.719071e+01	-1.281938e-03
8.769432e+01	-1.296788e-03
8.820084e+01	-1.311809e-03
8.871029e+01	-1.327005e-03
8.922267e+01	-1.342376e-03
8.973802e+01	-1.357925e-03
9.025634e+01	-1.373655e-03
9.077766e+01	-1.389566e-03
9.130199e+01	-1.405662e-03
9.182935e+01	-1.421945e-03
9.235975e+01	-1.438415e-03
9.289321e+01	-1.455077e-03
9.342976e+01	-1.471932e-03
9.396941e+01	-1.488981e-03
9.451217e+01	-1.506229e-03
9.505807e+01	-1.523676e-03
9.560712e+01	-1.541325e-03
9.615934e+01	-1.559178e-03
9.671476e+01	-1.577238e-03
9.727338e+01	-1.595508e-03
9.783522e+01	-1.613989e-03
9.840032e+01	-1.632684e-03
9.896867e+01	-1.651595e-03
9.954031e+01	-1.670726e-03
1.001153e+02	-1.690078e-03
1.006935e+02	-1.709654e-03
1.012751e+02	-1.729457e-03
1.018601e+02	-1.749489e-03
1.024484e+02	-1.769753e-03
1.030402e+02	-1.790252e-03
1.036353e+02	-1.810988e-03
1.042339e+02	-1.831965e-03
1.048360e+02	-1.853184e-03
1.054415e+02	-1.874649e-03
1.060505e+02	-1.896362e-03
1.066631e+02	-1.918327e-03
1.072791e+02	-1.940547e-03
1.078988e+02	-1.963023e-03
1.085220e+02	-1.985760e-03
1.091488e+02	-2.008761e-03
1.097793e+02	-2.032027e-03
1.104133e+02	-2.055563e-03
1.110511e+02	-2.079372e-03
1.116925e+02	-2.103456e-03
1.123376e+02	-2.127819e-03
1.129865e+02	-2.152464e-03
1.136391e+02	-2.177395e-03
1.142955e+02	-2.202614e-03
1.149556e+02	-2.228126e-03
1.156196e+02	-2.253932e-03
1.162874e+02	-2.280038e-03
1.169591e+02	-2.306446e-03
1.176347e+02	-2.333159e-03
1.183141e+02	-2.360182e-03
1.189975e+02	-2.387518e-03
1.196848e+02	-2.415170e-03
1.203761e+02	-2.443143e-03
1.210714e+02	-2.471439e-03
1.217707e+02	-2.500063e-03
1.224740e+02	-2.529019e-03
1.231814e+02	-2.558310e-03
1.238929e+02	-2.587939e-03
1.246085e+02	-2.617912e-03
1.253283e+02	-2.648232e-03
1.260522e+02	-2.678903e-03
1.267802e+02	-2.709929e-03
1.275125e+02	-2.741315e-03
1.282490e+02	-2.773063e-03
1.289898e+02	-2.805180e-03
1.297348e+02	-2.837668e-03
1.304842e+02	-2.870532e-03
1.312378e+02	-2.903777e-03
1.319959e+02	-2.937406e-03
1.327583e+02	-2.971425e-03
1.335251e+02	-3.005838e-03
1.342963e+02	-3.040649e-03
1.350720e+02	-3.075864e-03
1.358522e+02	-3.111486e-03
1.366368e+02	-3.147520e-03
1.374260e+02	-3.183971e-03
1.382198e+02	-3.220845e-03
1.390182e+02	-3.258145e-03
1.398211e+02	-3.295877e-03
1.406287e+02	-3.334046e-03
1.414410e+02	-3.372657e-03
1.422579e+02	-3.411715e-03
1.430796e+02	-3.451225e-03
1.439060e+02	-3.491192e-03
1.447372e+02	-3.531622e-03
1.455732e+02	-3.572520e-03
1.464141e+02	-3.613891e-03
1.472597e+02	-3.655741e-03
1.481103e+02	-3.698076e-03
1.489658e+02	-3.740901e-03
1.498262e+02	-3.784221e-03
1.506916e+02	-3.828043e-03
1.515620e+02	-3.872372e-03
1.524374e+02	-3.917214e-03
1.533179e+02	-3.962575e-03
1.542034e+02	-4.008462e-03
1.550941e+02	-4.054879e-03
1.559899e+02	-4.101833e-03
1.568909e+02	-4.149332e-03
1.577971e+02	-4.197379e-03
1.587085e+02	-4.245983e-03
1.596252e+02	-4.295150e-03
1.605472e+02	-4.344885e-03
1.614745e+02	-4.395196e-03
1.624072e+02	-4.446090e-03
1.633453e+02	-4.497572e-03
1.642887e+02	-4.549650e-03
1.652377e+02	-4.602331e-03
1.661921e+02	-4.655622e-03
1.671520e+02	-4.709529e-03
1.681175e+02	-4.764060e-03
1.690885e+02	-4.819222e-03
1.700651e+02	-4.875023e-03
1.710474e+02	-4.931469e-03
1.720354e+02	-4.988569e-03
1.730291e+02	-5.046329e-03
1.740285e+02	-5.104758e-03
1.750337e+02	-5.163862e-03
1.760446e+02	-5.223651e-03
1.770615e+02	-5.284131e-03
1.780842e+02	-5.345312e-03
1.791128e+02	-5.407200e-03
1.801473e+02	-5.469804e-03
1.811878e+02	-5.533133e-03
1.822344e+02	-5.597194e-03
1.832870e+02	-5.661997e-03
1.843456e+02	-5.727549e-03
1.854104e+02	-5.793860e-03
1.864813e+02	-5.860938e-03
1.875584e+02	-5.928792e-03
1.886418e+02	-5.997431e-03
1.897313e+02	-6.066864e-03
1.908272e+02	-6.137100e-03
1.919294e+02	-6.208149e-03
1.930380e+02	-6.280020e-03
1.941530e+02	-6.352722e-03
1.952744e+02	-6.426266e-03
1.964023e+02	-6.500660e-03
1.975367e+02	-6.575915e-03
1.986777e+02	-6.652040e-03
1.998252e+02	-6.729046e-03
2.009794e+02	-6.806942e-03
2.021403e+02	-6.885739e-03
2.033078e+02	-6.965448e-03
2.044821e+02	-7.046079e-03
2.056632e+02	-7.127643e-03
2.068511e+02	-7.210150e-03
2.080459e+02	-7.293611e-03
2.092475e+02	-7.378037e-03
2.104561e+02	-7.463440e-03
2.116717e+02	-7.549830e-03
2.128943e+02	-7.637220e-03
2.141240e+02	-7.725620e-03
2.153608e+02	-7.815043e-03
2.166047e+02	-7.905500e-03
2.178558e+02	-7.997002e-03
2.191141e+02	-8.089563e-03
2.203797e+02	-8.183194e-03
2.216526e+02	-8.277908e-03
2.229329e+02	-8.373717e-03
2.242205e+02	-8.470634e-03
2.255156e+02	-8.568671e-03
2.268182e+02	-8.667842e-03
2.281283e+02	-8.768160e-03
2.294459e+02	-8.869637e-03
2.307712e+02	-8.972287e-03
2.321041e+02	-9.076125e-03
2.334447e+02	-9.181163e-03
2.347931e+02	-9.287415e-03
2.361493e+02	-9.394895e-03
2.375133e+02	-9.503618e-03
2.388851e+02	-9.613597e-03
2.402649e+02	-9.724848e-03
2.416527e+02	-9.837385e-03
2.430484e+02	-9.951223e-03
2.444523e+02	-1.006638e-02
2.458642e+02	-1.018286e-02
2.472843e+02	-1.030069e-02
2.487126e+02	-1.041988e-02
2.501492e+02	-1.054045e-02
2.515940e+02	-1.066242e-02
2.530472e+02	-1.078579e-02
2.545088e+02	-1.091059e-02
2.559789e+02	-1.103683e-02
2.574574e+02	-1.116453e-02
2.589444e+02	-1.129371e-02
2.604401e+02	-1.142437e-02
2.619444e+02	-1.155655e-02
2.634574e+02	-1.169026e-02
2.649791e+02	-1.182551e-02
2.665096e+02	-1.196232e-02
2.680489e+02	-1.210071e-02
2.695972e+02	-1.224070e-02
2.711544e+02	-1.238231e-02
2.727205e+02	-1.252556e-02
2.742958e+02	-1.267045e-02
2.758801e+02	-1.281703e-02
2.774736e+02	-1.296529e-02
2.790762e+02	-1.311527e-02
2.806882e+02	-1.326698e-02
2.823094e+02	-1.342045e-02
2.839400e+02	-1.357568e-02
2.855800e+02	-1.373271e-02
2.872295e+02	-1.389155e-02
2.888886e+02	-1.405223e-02
2.905572e+02	-1.421476e-02
2.922354e+02	-1.437917e-02
2.939234e+02	-1.454547e-02
2.956211e+02	-1.471370e-02
2.973286e+02	-1.488387e-02
2.990459e+02	-1.505600e-02
3.007732e+02	-1.523012e-02
3.025104e+02	-1.540626e-02
3.042577e+02	-1.558442e-02
3.060151e+02	-1.576464e-02
3.077826e+02	-1.594694e-02
3.095604e+02	-1.613135e-02
3.113484e+02	-1.631788e-02
3.131467e+02	-1.650657e-02
3.149554e+02	-1.669743e-02
3.167746e+02	-1.689050e-02
3.186043e+02	-1.708579e-02
3.204445e+02	-1.728334e-02
3.222954e+02	-1.748317e-02
3.241570e+02	-1.768530e-02
3.260293e+02	-1.788977e-02
3.279124e+02	-1.809659e-02
3.298064e+02	-1.830580e-02
3.317114e+02	-1.851743e-02
3.336273e+02	-1.873149e-02
3.355544e+02	-1.894802e-02
3.374925e+02	-1.916706e-02
3.394418e+02	-1.938861e-02
3.414024e+02	-1.961273e-02
3.433744e+02	-1.983943e-02
3.453577e+02	-2.006874e-02
3.473525e+02	-2.030069e-02
3.493588e+02	-2.053533e-02
3.513766e+02	-2.077266e-02
3.534062e+02	-2.101273e-02
3.554474e+02	-2.125557e-02
3.575005e+02	-2.150121e-02
3.595654e+02	-2.174969e-02
3.616422e+02	-2.200102e-02
3.637311e+02	-2.225525e-02
3.658320e+02	-2.251242e-02
3.679450e+02	-2.277254e-02
3.700702e+02	-2.303567e-02
3.722077e+02	-2.330182e-02
3.743576e+02	-2.357105e-02
3.765199e+02	-2.384337e-02
3.786946e+02	-2.411883e-02
3.808820e+02	-2.439747e-02
3.830819e+02	-2.467931e-02
3.852946e+02	-2.496441e-02
3.875200e+02	-2.525278e-02
3.897583e+02	-2.554448e-02
3.920096e+02	-2.583953e-02
3.942738e+02	-2.613799e-02
3.965511e+02	-2.643988e-02
3.988416e+02	-2.674525e-02
4.011452e+02	-2.705413e-02
4.034622e+02	-2.736657e-02
4.057926e+02	-2.768260e-02
4.081365e+02	-2.800228e-02
4.104938e+02	-2.832563e-02
4.128648e+02	-2.865270e-02
4.152495e+02	-2.898354e-02
4.176480e+02	-2.931819e-02
4.200603e+02	-2.965668e-02
4.224866e+02	-2.999907e-02
4.249268e+02	-3.034540e-02
4.273812e+02	-3.069572e-02
4.298497e+02	-3.105006e-02
4.323325e+02	-3.140848e-02
4.348297e+02	-3.177102e-02
4.373412e+02	-3.213773e-02
4.398673e+02	-3.250866e-02
4.424079e+02	-3.288385e-02
4.449633e+02	-3.326335e-02
4.475334e+02	-3.364722e-02
4.501183e+02	-3.403550e-02
4.527182e+02	-3.442825e-02
4.553330e+02	-3.482550e-02
4.579630e+02	-3.522732e-02
4.606082e+02	-3.563376e-02
4.632687e+02	-3.604487e-02
4.659445e+02	-3.646071e-02
4.686358e+02	-3.688131e-02
4.713426e+02	-3.730675e-02
4.740650e+02	-3.773708e-02
4.768032e+02	-3.817235e-02
4.795572e+02	-3.861262e-02
4.823271e+02	-3.905794e-02
4.851130e+02	-3.950837e-02
4.879150e+02	-3.996398e-02
4.907332e+02	-4.042481e-02
4.935676e+02	-4.089093e-02
4.964185e+02	-4.136240e-02
4.992858e+02	-4.183928e-02
5.021696e+02	-4.232164e-02
5.050701e+02	-4.280952e-02
5.079874e+02	-4.330301e-02
5.109215e+02	-4.380215e-02
5.138726e+02	-4.430701e-02
5.168407e+02	-4.481767e-02
5.198259e+02	-4.533418e-02
5.228284e+02	-4.585661e-02
5.258482e+02	-4.638503e-02
5.288855e+02	-4.691950e-02
5.319403e+02	-4.746010e-02
5.350128e+02	-4.800690e-02
5.381030e+02	-4.855995e-02
5.412111e+02	-4.911935e-02
5.443371e+02	-4.968515e-02
5.474812e+02	-5.025743e-02
5.506434e+02	-5.083626e-02
5.538239e+02	-5.142172e-02
5.570228e+02	-5.201388e-02
5.602401e+02	-5.261282e-02
5.634760e+02	-5.321862e-02
5.667306e+02	-5.383134e-02
5.700040e+02	-5.445108e-02
5.732964e+02	-5.507791e-02
5.766077e+02	-5.571190e-02
5.799382e+02	-5.635315e-02
5.832879e+02	-5.700172e-02
5.866569e+02	-5.765772e-02
5.900454e+02	-5.832121e-02
5.934535e+02	-5.899228e-02
5.968813e+02	-5.967102e-02
6.003288e+02	-6.035752e-02
6.037963e+02	-6.105186e-02
6.072838e+02	-6.175413e-02
6.107914e+02	-6.246442e-02
6.143194e+02	-6.318282e-02
6.178676e+02	-6.390942e-02
6.214364e+02	-6.464431e-02
6.250258e+02	-6.538760e-02
6.286359e+02	-6.613936e-02
6.322669e+02	-6.689970e-02
6.359189e+02	-6.766871e-02
6.395919e+02	-6.844649e-02
6.432862e+02	-6.923314e-02
6.470017e+02	-7.002876e-02
6.507388e+02	-7.083344e-02
6.544974e+02	-7.164730e-02
6.582778e+02	-7.247043e-02
6.620800e+02	-7.330293e-02
6.659041e+02	-7.414492e-02
6.697504e+02	-7.499649e-02
6.736188e+02	-7.585776e-02
6.775096e+02	-7.672883e-02
6.814229e+02	-7.760982e-02
6.853587e+02	-7.850083e-02
6.893173e+02	-7.940197e-02
6.932988e+02	-8.031336e-02
6.973033e+02	-8.123512e-02
7.013309e+02	-8.216736e-02
