Frequency(Hz)	Magnitude(dB)
1.000000e+01	-2.167649e+00
1.005776e+01	-2.187291e+00
1.011585e+01	-2.207238e+00
1.017428e+01	-2.227229e+00
1.023305e+01	-2.247301e+00
1.029215e+01	-2.267835e+00
1.035160e+01	-2.287948e+00
1.041139e+01	-2.308709e+00
1.047153e+01	-2.329358e+00
1.053201e+01	-2.350185e+00
1.059284e+01	-2.370980e+00
1.065403e+01	-2.392195e+00
1.071556e+01	-2.413532e+00
1.077746e+01	-2.435096e+00
1.083971e+01	-2.456427e+00
1.090232e+01	-2.478129e+00
1.096529e+01	-2.500114e+00
1.102862e+01	-2.521944e+00
1.109232e+01	-2.543964e+00
1.115639e+01	-2.566379e+00
1.122083e+01	-2.588756e+00
1.128564e+01	-2.611260e+00
1.135083e+01	-2.633965e+00
1.141639e+01	-2.656597e+00
1.148233e+01	-2.679847e+00
1.154865e+01	-2.702832e+00
1.161536e+01	-2.726037e+00
1.168245e+01	-2.749580e+00
1.174992e+01	-2.772881e+00
1.181779e+01	-2.796675e+00
1.188605e+01	-2.820418e+00
1.195470e+01	-2.844626e+00
1.202375e+01	-2.868337e+00
1.209320e+01	-2.892751e+00
1.216305e+01	-2.917184e+00
1.223330e+01	-2.941986e+00
1.230396e+01	-2.966331e+00
1.237503e+01	-2.991251e+00
1.244651e+01	-3.016286e+00
1.251840e+01	-3.041317e+00
1.259070e+01	-3.066650e+00
1.266343e+01	-3.092130e+00
1.273657e+01	-3.117471e+00
1.281014e+01	-3.143101e+00
1.288413e+01	-3.168838e+00
1.295855e+01	-3.195280e+00
1.303339e+01	-3.221318e+00
1.310867e+01	-3.247415e+00
1.318439e+01	-3.273782e+00
1.326054e+01	-3.300433e+00
1.333713e+01	-3.327177e+00
1.341417e+01	-3.354030e+00
1.349165e+01	-3.380899e+00
1.356958e+01	-3.408302e+00
1.364795e+01	-3.435310e+00
1.372678e+01	-3.462873e+00
1.380607e+01	-3.490241e+00
1.388581e+01	-3.517993e+00
1.396602e+01	-3.545881e+00
1.404668e+01	-3.573881e+00
1.412782e+01	-3.601989e+00
1.420942e+01	-3.630531e+00
1.429149e+01	-3.658713e+00
1.437404e+01	-3.687339e+00
1.445706e+01	-3.715768e+00
1.454057e+01	-3.744863e+00
1.462455e+01	-3.773810e+00
1.470902e+01	-3.802844e+00
1.479398e+01	-3.832303e+00
1.487943e+01	-3.861456e+00
1.496537e+01	-3.891250e+00
1.505181e+01	-3.920771e+00
1.513875e+01	-3.950458e+00
1.522619e+01	-3.980465e+00
1.531414e+01	-4.010671e+00
1.540259e+01	-4.041119e+00
1.549156e+01	-4.071023e+00
1.558103e+01	-4.101768e+00
1.567103e+01	-4.132089e+00
1.576155e+01	-4.163004e+00
1.585258e+01	-4.194021e+00
1.594415e+01	-4.225094e+00
1.603624e+01	-4.256340e+00
1.612886e+01	-4.287299e+00
1.622202e+01	-4.318973e+00
1.631572e+01	-4.350485e+00
1.640996e+01	-4.382474e+00
1.650474e+01	-4.414434e+00
1.660008e+01	-4.445950e+00
1.669596e+01	-4.478272e+00
1.679239e+01	-4.510435e+00
1.688938e+01	-4.543331e+00
1.698694e+01	-4.575556e+00
1.708505e+01	-4.607909e+00
1.718373e+01	-4.640885e+00
1.728299e+01	-4.673717e+00
1.738281e+01	-4.706686e+00
1.748322e+01	-4.740052e+00
1.758420e+01	-4.773210e+00
1.768576e+01	-4.807057e+00
1.778792e+01	-4.840619e+00
1.789066e+01	-4.874075e+00
1.799399e+01	-4.907825e+00
1.809793e+01	-4.941704e+00
1.820246e+01	-4.975684e+00
1.830760e+01	-5.009958e+00
1.841334e+01	-5.043880e+00
1.851969e+01	-5.078519e+00
1.862666e+01	-5.113292e+00
1.873425e+01	-5.147804e+00
1.884246e+01	-5.182767e+00
1.895129e+01	-5.217715e+00
1.906075e+01	-5.252638e+00
1.917085e+01	-5.287850e+00
1.928158e+01	-5.322836e+00
1.939295e+01	-5.358431e+00
1.950496e+01	-5.393927e+00
1.961762e+01	-5.429704e+00
1.973093e+01	-5.465351e+00
1.984490e+01	-5.501499e+00
1.995952e+01	-5.537077e+00
2.007480e+01	-5.573143e+00
2.019076e+01	-5.609876e+00
2.030738e+01	-5.645957e+00
2.042467e+01	-5.682258e+00
2.054264e+01	-5.718959e+00
2.066130e+01	-5.755426e+00
2.078064e+01	-5.792332e+00
2.090066e+01	-5.829429e+00
2.102139e+01	-5.866146e+00
2.114280e+01	-5.903481e+00
2.126492e+01	-5.940578e+00
2.138775e+01	-5.977648e+00
2.151128e+01	-6.015629e+00
2.163553e+01	-6.052921e+00
2.176050e+01	-6.090826e+00
2.188619e+01	-6.128415e+00
2.201260e+01	-6.165940e+00
2.213974e+01	-6.204229e+00
2.226762e+01	-6.242402e+00
2.239624e+01	-6.280525e+00
2.252560e+01	-6.318503e+00
2.265571e+01	-6.357614e+00
2.278656e+01	-6.395804e+00
2.291818e+01	-6.434134e+00
2.305055e+01	-6.472990e+00
2.318369e+01	-6.512037e+00
2.331760e+01	-6.550612e+00
2.345228e+01	-6.589626e+00
2.358774e+01	-6.629223e+00
2.372398e+01	-6.668212e+00
2.386101e+01	-6.707292e+00
2.399883e+01	-6.746564e+00
2.413745e+01	-6.786396e+00
2.427686e+01	-6.825929e+00
2.441709e+01	-6.865535e+00
2.455812e+01	-6.905337e+00
2.469997e+01	-6.945239e+00
2.484263e+01	-6.984988e+00
2.498612e+01	-7.025011e+00
2.513044e+01	-7.065522e+00
2.527559e+01	-7.105715e+00
2.542158e+01	-7.146008e+00
2.556842e+01	-7.186583e+00
2.571610e+01	-7.227350e+00
2.586463e+01	-7.267562e+00
2.601403e+01	-7.308735e+00
2.616428e+01	-7.348750e+00
2.631541e+01	-7.389403e+00
2.646740e+01	-7.431054e+00
2.662028e+01	-7.471458e+00
2.677404e+01	-7.512682e+00
2.692868e+01	-7.553619e+00
2.708422e+01	-7.595654e+00
2.724066e+01	-7.636565e+00
2.739800e+01	-7.678164e+00
2.755625e+01	-7.719748e+00
2.771541e+01	-7.761357e+00
2.787550e+01	-7.803037e+00
2.803650e+01	-7.845314e+00
2.819844e+01	-7.886650e+00
2.836131e+01	-7.928347e+00
2.852513e+01	-7.970415e+00
2.868989e+01	-8.012666e+00
2.885560e+01	-8.054707e+00
2.902227e+01	-8.096756e+00
2.918990e+01	-8.139591e+00
2.935850e+01	-8.181583e+00
2.952807e+01	-8.224585e+00
2.969863e+01	-8.266444e+00
2.987016e+01	-8.309093e+00
3.004269e+01	-8.351749e+00
3.021622e+01	-8.394714e+00
3.039075e+01	-8.437748e+00
3.056628e+01	-8.480441e+00
3.074283e+01	-8.523519e+00
3.092040e+01	-8.566424e+00
3.109900e+01	-8.609016e+00
3.127862e+01	-8.652485e+00
3.145929e+01	-8.696569e+00
3.164099e+01	-8.739006e+00
3.182375e+01	-8.782521e+00
3.200756e+01	-8.826003e+00
3.219244e+01	-8.869618e+00
3.237838e+01	-8.912837e+00
3.256540e+01	-8.956596e+00
3.275349e+01	-9.000636e+00
3.294268e+01	-9.044219e+00
3.313295e+01	-9.088257e+00
3.332433e+01	-9.131922e+00
3.351681e+01	-9.175624e+00
3.371040e+01	-9.219779e+00
3.390511e+01	-9.263886e+00
3.410094e+01	-9.308098e+00
3.429791e+01	-9.352339e+00
3.449601e+01	-9.396237e+00
3.469526e+01	-9.440527e+00
3.489566e+01	-9.485124e+00
3.509721e+01	-9.529846e+00
3.529993e+01	-9.574052e+00
3.550382e+01	-9.618697e+00
3.570889e+01	-9.663077e+00
3.591515e+01	-9.707815e+00
3.612259e+01	-9.752260e+00
3.633123e+01	-9.797345e+00
3.654108e+01	-9.842586e+00
3.675214e+01	-9.886501e+00
3.696442e+01	-9.931932e+00
3.717792e+01	-9.976900e+00
3.739266e+01	-1.002195e+01
3.760864e+01	-1.006694e+01
3.782587e+01	-1.011177e+01
3.804435e+01	-1.015730e+01
3.826409e+01	-1.020203e+01
3.848510e+01	-1.024819e+01
3.870739e+01	-1.029336e+01
3.893096e+01	-1.033836e+01
3.915583e+01	-1.038415e+01
3.938199e+01	-1.042946e+01
3.960946e+01	-1.047507e+01
3.983824e+01	-1.052052e+01
4.006834e+01	-1.056609e+01
4.029978e+01	-1.061198e+01
4.053255e+01	-1.065766e+01
4.076666e+01	-1.070293e+01
4.100213e+01	-1.074868e+01
4.123896e+01	-1.079460e+01
4.147715e+01	-1.084109e+01
4.171672e+01	-1.088673e+01
4.195767e+01	-1.093277e+01
4.220002e+01	-1.097825e+01
4.244377e+01	-1.102467e+01
4.268892e+01	-1.107066e+01
4.293549e+01	-1.111705e+01
4.318348e+01	-1.116333e+01
4.343291e+01	-1.120933e+01
4.368377e+01	-1.125537e+01
4.393609e+01	-1.130162e+01
4.418986e+01	-1.134827e+01
4.444510e+01	-1.139489e+01
4.470182e+01	-1.144161e+01
4.496001e+01	-1.148766e+01
4.521970e+01	-1.153349e+01
4.548089e+01	-1.158047e+01
4.574358e+01	-1.162659e+01
4.600779e+01	-1.167335e+01
4.627353e+01	-1.172085e+01
4.654081e+01	-1.176709e+01
4.680963e+01	-1.181408e+01
4.708000e+01	-1.186032e+01
4.735193e+01	-1.190727e+01
4.762543e+01	-1.195410e+01
4.790051e+01	-1.200094e+01
4.817719e+01	-1.204821e+01
4.845545e+01	-1.209457e+01
4.873533e+01	-1.214169e+01
4.901682e+01	-1.218867e+01
4.929994e+01	-1.223592e+01
4.958470e+01	-1.228242e+01
4.987110e+01	-1.233009e+01
5.015915e+01	-1.237700e+01
5.044887e+01	-1.242371e+01
5.074026e+01	-1.247161e+01
5.103333e+01	-1.251808e+01
5.132810e+01	-1.256561e+01
5.162457e+01	-1.261282e+01
5.192275e+01	-1.266029e+01
5.222265e+01	-1.270787e+01
5.252429e+01	-1.275580e+01
5.282767e+01	-1.280310e+01
5.313280e+01	-1.284985e+01
5.343969e+01	-1.289679e+01
5.374836e+01	-1.294515e+01
5.405880e+01	-1.299285e+01
5.437105e+01	-1.304022e+01
5.468509e+01	-1.308771e+01
5.500095e+01	-1.313442e+01
5.531863e+01	-1.318291e+01
5.563815e+01	-1.322993e+01
5.595951e+01	-1.327841e+01
5.628273e+01	-1.332545e+01
5.660782e+01	-1.337301e+01
5.693479e+01	-1.342116e+01
5.726364e+01	-1.346839e+01
5.759439e+01	-1.351660e+01
5.792705e+01	-1.356449e+01
5.826164e+01	-1.361199e+01
5.859815e+01	-1.365974e+01
5.893662e+01	-1.370745e+01
5.927703e+01	-1.375569e+01
5.961941e+01	-1.380278e+01
5.996377e+01	-1.385129e+01
6.031012e+01	-1.390022e+01
6.065847e+01	-1.394733e+01
6.100883e+01	-1.399567e+01
6.136121e+01	-1.404417e+01
6.171563e+01	-1.409147e+01
6.207210e+01	-1.413902e+01
6.243063e+01	-1.418909e+01
6.279122e+01	-1.423576e+01
6.315390e+01	-1.428351e+01
6.351868e+01	-1.433257e+01
6.388556e+01	-1.438055e+01
6.425456e+01	-1.442946e+01
6.462569e+01	-1.447717e+01
6.499897e+01	-1.452598e+01
6.537440e+01	-1.457282e+01
6.575200e+01	-1.462245e+01
6.613178e+01	-1.466985e+01
6.651375e+01	-1.471889e+01
6.689793e+01	-1.476810e+01
6.728433e+01	-1.481545e+01
6.767297e+01	-1.486368e+01
6.806384e+01	-1.491232e+01
6.845698e+01	-1.496084e+01
6.885238e+01	-1.500880e+01
6.925007e+01	-1.505663e+01
6.965005e+01	-1.510696e+01
7.005235e+01	-1.515500e+01
7.045697e+01	-1.520271e+01
7.086393e+01	-1.525177e+01
7.127323e+01	-1.529981e+01
7.168490e+01	-1.534808e+01
7.209895e+01	-1.539758e+01
7.251539e+01	-1.544608e+01
7.293424e+01	-1.549427e+01
7.335551e+01	-1.554155e+01
7.377920e+01	-1.559080e+01
7.420535e+01	-1.563973e+01
7.463396e+01	-1.568856e+01
7.506504e+01	-1.573744e+01
7.549861e+01	-1.578691e+01
7.593469e+01	-1.583515e+01
7.637328e+01	-1.588370e+01
7.681441e+01	-1.593250e+01
7.725809e+01	-1.598081e+01
7.770433e+01	-1.602974e+01
7.815315e+01	-1.607843e+01
7.860456e+01	-1.612776e+01
7.905857e+01	-1.617658e+01
7.951521e+01	-1.622607e+01
7.997449e+01	-1.627423e+01
8.043642e+01	-1.632352e+01
8.090102e+01	-1.637211e+01
8.136830e+01	-1.642038e+01
8.183828e+01	-1.647036e+01
8.231097e+01	-1.651795e+01
8.278640e+01	-1.656867e+01
8.326457e+01	-1.661646e+01
8.374550e+01	-1.666557e+01
8.422921e+01	-1.671319e+01
8.471572e+01	-1.676341e+01
8.520503e+01	-1.681175e+01
8.569717e+01	-1.686071e+01
8.619215e+01	-1.690997e+01
8.669000e+01	-1.695927e+01
8.719071e+01	-1.700885e+01
8.769432e+01	-1.705751e+01
8.820084e+01	-1.710715e+01
8.871029e+01	-1.715492e+01
8.922267e+01	-1.720539e+01
8.973802e+01	-1.725284e+01
9.025634e+01	-1.730279e+01
9.077766e+01	-1.735125e+01
9.130199e+01	-1.740154e+01
9.182935e+01	-1.744926e+01
9.235975e+01	-1.749819e+01
9.289321e+01	-1.754850e+01
9.342976e+01	-1.759700e+01
9.396941e+01	-1.764608e+01
9.451217e+01	-1.769503e+01
9.505807e+01	-1.774543e+01
9.560712e+01	-1.779395e+01
9.615934e+01	-1.784322e+01
9.671476e+01	-1.789293e+01
9.727338e+01	-1.794142e+01
9.783522e+01	-1.799047e+01
9.840032e+01	-1.803989e+01
9.896867e+01	-1.808845e+01
9.954031e+01	-1.814007e+01
1.001153e+02	-1.818851e+01
1.006935e+02	-1.823762e+01
1.012751e+02	-1.828644e+01
1.018601e+02	-1.833537e+01
1.024484e+02	-1.838435e+01
1.030402e+02	-1.843482e+01
1.036353e+02	-1.848375e+01
1.042339e+02	-1.853299e+01
1.048360e+02	-1.858230e+01
1.054415e+02	-1.863262e+01
1.060505e+02	-1.868116e+01
1.066631e+02	-1.873117e+01
1.072791e+02	-1.877960e+01
1.078988e+02	-1.882934e+01
1.085220e+02	-1.887749e+01
1.091488e+02	-1.892856e+01
1.097793e+02	-1.897663e+01
1.104133e+02	-1.902815e+01
1.110511e+02	-1.907499e+01
1.116925e+02	-1.912669e+01
1.123376e+02	-1.917499e+01
1.129865e+02	-1.922544e+01
1.136391e+02	-1.927447e+01
1.142955e+02	-1.932583e+01
1.149556e+02	-1.937338e+01
1.156196e+02	-1.942262e+01
1.162874e+02	-1.947402e+01
1.169591e+02	-1.952118e+01
1.176347e+02	-1.957075e+01
1.183141e+02	-1.961964e+01
1.189975e+02	-1.966886e+01
1.196848e+02	-1.971904e+01
1.203761e+02	-1.976880e+01
1.210714e+02	-1.981941e+01
1.217707e+02	-1.986890e+01
1.224740e+02	-1.991890e+01
1.231814e+02	-1.996613e+01
1.238929e+02	-2.001687e+01
1.246085e+02	-2.006703e+01
1.253283e+02	-2.011538e+01
1.260522e+02	-2.016510e+01
1.267802e+02	-2.021345e+01
1.275125e+02	-2.026415e+01
1.282490e+02	-2.031482e+01
1.289898e+02	-2.036374e+01
1.297348e+02	-2.041352e+01
1.304842e+02	-2.046391e+01
1.312378e+02	-2.051213e+01
1.319959e+02	-2.056062e+01
1.327583e+02	-2.061175e+01
1.335251e+02	-2.065950e+01
1.342963e+02	-2.071001e+01
1.350720e+02	-2.076113e+01
1.358522e+02	-2.080740e+01
1.366368e+02	-2.086001e+01
1.374260e+02	-2.090788e+01
1.382198e+02	-2.095797e+01
1.390182e+02	-2.100810e+01
1.398211e+02	-2.105783e+01
1.406287e+02	-2.110695e+01
1.414410e+02	-2.115845e+01
1.422579e+02	-2.120623e+01
1.430796e+02	-2.125671e+01
1.439060e+02	-2.130567e+01
1.447372e+02	-2.135564e+01
1.455732e+02	-2.140479e+01
1.464141e+02	-2.145490e+01
1.472597e+02	-2.150750e+01
1.481103e+02	-2.155542e+01
1.489658e+02	-2.160316e+01
1.498262e+02	-2.165318e+01
1.506916e+02	-2.170273e+01
1.515620e+02	-2.175145e+01
1.524374e+02	-2.180287e+01
1.533179e+02	-2.185329e+01
1.542034e+02	-2.190034e+01
1.550941e+02	-2.195312e+01
1.559899e+02	-2.200294e+01
1.568909e+02	-2.205384e+01
1.577971e+02	-2.210123e+01
1.587085e+02	-2.215123e+01
1.596252e+02	-2.220337e+01
1.605472e+02	-2.225169e+01
1.614745e+02	-2.229947e+01
1.624072e+02	-2.235087e+01
1.633453e+02	-2.239956e+01
1.642887e+02	-2.245101e+01
1.652377e+02	-2.250258e+01
1.661921e+02	-2.255074e+01
1.671520e+02	-2.259846e+01
1.681175e+02	-2.264999e+01
1.690885e+02	-2.269786e+01
1.700651e+02	-2.274821e+01
1.710474e+02	-2.279835e+01
1.720354e+02	-2.284845e+01
1.730291e+02	-2.289804e+01
1.740285e+02	-2.294905e+01
1.750337e+02	-2.299865e+01
1.760446e+02	-2.304846e+01
1.770615e+02	-2.309744e+01
1.780842e+02	-2.314581e+01
1.791128e+02	-2.319766e+01
1.801473e+02	-2.324713e+01
1.811878e+02	-2.329676e+01
1.822344e+02	-2.334455e+01
1.832870e+02	-2.339856e+01
1.843456e+02	-2.344454e+01
1.854104e+02	-2.349619e+01
1.864813e+02	-2.354584e+01
1.875584e+02	-2.359808e+01
1.886418e+02	-2.364264e+01
1.897313e+02	-2.369383e+01
1.908272e+02	-2.374563e+01
1.919294e+02	-2.379685e+01
1.930380e+02	-2.384433e+01
1.941530e+02	-2.389326e+01
1.952744e+02	-2.394410e+01
1.964023e+02	-2.399144e+01
1.975367e+02	-2.404250e+01
1.986777e+02	-2.409328e+01
1.998252e+02	-2.414269e+01
2.009794e+02	-2.419275e+01
2.021403e+02	-2.424405e+01
2.033078e+02	-2.429527e+01
2.044821e+02	-2.434057e+01
2.056632e+02	-2.439582e+01
2.068511e+02	-2.444243e+01
2.080459e+02	-2.449354e+01
2.092475e+02	-2.454406e+01
2.104561e+02	-2.458903e+01
2.116717e+02	-2.464098e+01
2.128943e+02	-2.469028e+01
2.141240e+02	-2.474110e+01
2.153608e+02	-2.479276e+01
2.166047e+02	-2.484405e+01
2.178558e+02	-2.489304e+01
2.191141e+02	-2.494089e+01
2.203797e+02	-2.499020e+01
2.216526e+02	-2.504135e+01
2.229329e+02	-2.509444e+01
2.242205e+02	-2.514229e+01
2.255156e+02	-2.519271e+01
2.268182e+02	-2.524289e+01
2.281283e+02	-2.528946e+01
2.294459e+02	-2.534413e+01
2.307712e+02	-2.539531e+01
2.321041e+02	-2.544132e+01
2.334447e+02	-2.549318e+01
2.347931e+02	-2.554374e+01
2.361493e+02	-2.559221e+01
2.375133e+02	-2.564242e+01
2.388851e+02	-2.569008e+01
2.402649e+02	-2.574129e+01
2.416527e+02	-2.579009e+01
2.430484e+02	-2.584037e+01
2.444523e+02	-2.589258e+01
2.458642e+02	-2.594082e+01
2.472843e+02	-2.599045e+01
2.487126e+02	-2.603889e+01
2.501492e+02	-2.608752e+01
2.515940e+02	-2.613677e+01
2.530472e+02	-2.618868e+01
2.545088e+02	-2.623962e+01
2.559789e+02	-2.628943e+01
2.574574e+02	-2.633877e+01
2.589444e+02	-2.638978e+01
2.604401e+02	-2.644299e+01
2.619444e+02	-2.649042e+01
2.634574e+02	-2.654053e+01
2.649791e+02	-2.658855e+01
2.665096e+02	-2.664282e+01
2.680489e+02	-2.669445e+01
2.695972e+02	-2.674047e+01
2.711544e+02	-2.679147e+01
2.727205e+02	-2.684172e+01
2.742958e+02	-2.689109e+01
2.758801e+02	-2.694116e+01
2.774736e+02	-2.698565e+01
2.790762e+02	-2.704024e+01
2.806882e+02	-2.709090e+01
2.823094e+02	-2.713946e+01
2.839400e+02	-2.718700e+01
2.855800e+02	-2.724120e+01
2.872295e+02	-2.729434e+01
2.888886e+02	-2.734267e+01
2.905572e+02	-2.738728e+01
2.922354e+02	-2.743943e+01
2.939234e+02	-2.749187e+01
2.956211e+02	-2.753861e+01
2.973286e+02	-2.759061e+01
2.990459e+02	-2.764387e+01
3.007732e+02	-2.769116e+01
3.025104e+02	-2.773740e+01
3.042577e+02	-2.779212e+01
3.060151e+02	-2.784316e+01
3.077826e+02	-2.789092e+01
3.095604e+02	-2.794045e+01
3.113484e+02	-2.799149e+01
3.131467e+02	-2.803968e+01
3.149554e+02	-2.808965e+01
3.167746e+02	-2.814095e+01
3.186043e+02	-2.819129e+01
3.204445e+02	-2.823810e+01
3.222954e+02	-2.828836e+01
3.241570e+02	-2.833858e+01
3.260293e+02	-2.839180e+01
3.279124e+02	-2.844142e+01
3.298064e+02	-2.849203e+01
3.317114e+02	-2.853730e+01
3.336273e+02	-2.858983e+01
3.355544e+02	-2.863867e+01
3.374925e+02	-2.869388e+01
3.394418e+02	-2.873937e+01
3.414024e+02	-2.879537e+01
3.433744e+02	-2.883799e+01
3.453577e+02	-2.888905e+01
3.473525e+02	-2.894108e+01
3.493588e+02	-2.898939e+01
3.513766e+02	-2.904185e+01
3.534062e+02	-2.908869e+01
3.554474e+02	-2.913834e+01
3.575005e+02	-2.918899e+01
3.595654e+02	-2.924319e+01
3.616422e+02	-2.928847e+01
3.637311e+02	-2.934058e+01
3.658320e+02	-2.939041e+01
3.679450e+02	-2.944148e+01
3.700702e+02	-2.948937e+01
3.722077e+02	-2.954050e+01
3.743576e+02	-2.958852e+01
3.765199e+02	-2.963831e+01
3.786946e+02	-2.969073e+01
3.808820e+02	-2.973953e+01
3.830819e+02	-2.979393e+01
3.852946e+02	-2.984152e+01
3.875200e+02	-2.989379e+01
3.897583e+02	-2.994201e+01
3.920096e+02	-2.999325e+01
3.942738e+02	-3.004196e+01
3.965511e+02	-3.009421e+01
3.988416e+02	-3.014370e+01
4.011452e+02	-3.018722e+01
4.034622e+02	-3.024786e+01
4.057926e+02	-3.029735e+01
4.081365e+02	-3.034173e+01
4.104938e+02	-3.039150e+01
4.128648e+02	-3.044786e+01
4.152495e+02	-3.049455e+01
4.176480e+02	-3.054419e+01
4.200603e+02	-3.059521e+01
4.224866e+02	-3.064506e+01
4.249268e+02	-3.069565e+01
4.273812e+02	-3.074775e+01
4.298497e+02	-3.079132e+01
4.323325e+02	-3.084291e+01
4.348297e+02	-3.089475e+01
4.373412e+02	-3.094866e+01
4.398673e+02	-3.099563e+01
4.424079e+02	-3.104841e+01
4.449633e+02	-3.109561e+01
4.475334e+02	-3.114629e+01
4.501183e+02	-3.119654e+01
4.527182e+02	-3.124695e+01
4.553330e+02	-3.129376e+01
4.579630e+02	-3.135101e+01
4.606082e+02	-3.140230e+01
4.632687e+02	-3.144188e+01
4.659445e+02	-3.150218e+01
4.686358e+02	-3.154599e+01
4.713426e+02	-3.159675e+01
4.740650e+02	-3.164307e+01
4.768032e+02	-3.169988e+01
4.795572e+02	-3.174553e+01
4.823271e+02	-3.180087e+01
4.851130e+02	-3.184862e+01
4.879150e+02	-3.189654e+01
4.907332e+02	-3.194941e+01
4.935676e+02	-3.200022e+01
4.964185e+02	-3.205085e+01
4.992858e+02	-3.210053e+01
5.021696e+02	-3.214401e+01
5.050701e+02	-3.220030e+01
5.079874e+02	-3.225431e+01
5.109215e+02	-3.229621e+01
5.138726e+02	-3.235151e+01
5.168407e+02	-3.240631e+01
5.198259e+02	-3.245842e+01
5.228284e+02	-3.250252e+01
5.258482e+02	-3.255187e+01
5.288855e+02	-3.260342e+01
5.319403e+02	-3.264849e+01
5.350128e+02	-3.270239e+01
5.381030e+02	-3.274883e+01
5.412111e+02	-3.280220e+01
5.443371e+02	-3.284841e+01
5.474812e+02	-3.290690e+01
5.506434e+02	-3.294948e+01
5.538239e+02	-3.299813e+01
5.570228e+02	-3.304684e+01
5.602401e+02	-3.310788e+01
5.634760e+02	-3.315177e+01
5.667306e+02	-3.319907e+01
5.700040e+02	-3.325398e+01
5.732964e+02	-3.330921e+01
5.766077e+02	-3.336744e+01
5.799382e+02	-3.340469e+01
5.832879e+02	-3.345808e+01
5.866569e+02	-3.350497e+01
5.900454e+02	-3.356065e+01
5.934535e+02	-3.360068e+01
5.968813e+02	-3.365431e+01
6.003288e+02	-3.370273e+01
6.037963e+02	-3.375971e+01
6.072838e+02	-3.380458e+01
6.107914e+02	-3.385050e+01
6.143194e+02	-3.392142e+01
6.178676e+02	-3.396159e+01
6.214364e+02	-3.400883e+01
6.250258e+02	-3.406369e+01
6.286359e+02	-3.411351e+01
6.322669e+02	-3.417201e+01
6.359189e+02	-3.421124e+01
6.395919e+02	-3.426344e+01
6.432862e+02	-3.431061e+01
6.470017e+02	-3.435486e+01
6.507388e+02	-3.442060e+01
6.544974e+02	-3.446519e+01
6.582778e+02	-3.450663e+01
6.620800e+02	-3.456187e+01
6.659041e+02	-3.462234e+01
6.697504e+02	-3.466713e+01
6.736188e+02	-3.471140e+01
6.775096e+02	-3.476060e+01
6.814229e+02	-3.481848e+01
6.853587e+02	-3.486311e+01
6.893173e+02	-3.492557e+01
6.932988e+02	-3.496511e+01
6.973033e+02	-3.502200e+01
7.013309e+02	-3.507439e+01
