Frequency(Hz)	Magnitude(dB)
1.000000e+01	-1.943480e+00
1.005776e+01	-1.961772e+00
1.011585e+01	-1.979808e+00
1.017428e+01	-1.998250e+00
1.023305e+01	-2.016486e+00
1.029215e+01	-2.035253e+00
1.035160e+01	-2.054021e+00
1.041139e+01	-2.073062e+00
1.047153e+01	-2.092119e+00
1.053201e+01	-2.111300e+00
1.059284e+01	-2.130423e+00
1.065403e+01	-2.150106e+00
1.071556e+01	-2.169541e+00
1.077746e+01	-2.189255e+00
1.083971e+01	-2.209168e+00
1.090232e+01	-2.229229e+00
1.096529e+01	-2.249319e+00
1.102862e+01	-2.269632e+00
1.109232e+01	-2.290035e+00
1.115639e+01	-2.310716e+00
1.122083e+01	-2.331364e+00
1.128564e+01	-2.352311e+00
1.135083e+01	-2.373246e+00
1.141639e+01	-2.394225e+00
1.148233e+01	-2.415337e+00
1.154865e+01	-2.436979e+00
1.161536e+01	-2.458434e+00
1.168245e+01	-2.480283e+00
1.174992e+01	-2.502128e+00
1.181779e+01	-2.523830e+00
1.188605e+01	-2.546072e+00
1.195470e+01	-2.568300e+00
1.202375e+01	-2.590915e+00
1.209320e+01	-2.613412e+00
1.216305e+01	-2.636171e+00
1.223330e+01	-2.659032e+00
1.230396e+01	-2.682231e+00
1.237503e+01	-2.704904e+00
1.244651e+01	-2.728306e+00
1.251840e+01	-2.751751e+00
1.259070e+01	-2.775490e+00
1.266343e+01	-2.799130e+00
1.273657e+01	-2.822915e+00
1.281014e+01	-2.846716e+00
1.288413e+01	-2.870971e+00
1.295855e+01	-2.895086e+00
1.303339e+01	-2.919632e+00
1.310867e+01	-2.944079e+00
1.318439e+01	-2.968650e+00
1.326054e+01	-2.993586e+00
1.333713e+01	-3.018492e+00
1.341417e+01	-3.043975e+00
1.349165e+01	-3.069136e+00
1.356958e+01	-3.094299e+00
1.364795e+01	-3.120205e+00
1.372678e+01	-3.145974e+00
1.380607e+01	-3.171709e+00
1.388581e+01	-3.197656e+00
1.396602e+01	-3.223902e+00
1.404668e+01	-3.249900e+00
1.412782e+01	-3.276611e+00
1.420942e+01	-3.302953e+00
1.429149e+01	-3.329884e+00
1.437404e+01	-3.356510e+00
1.445706e+01	-3.383659e+00
1.454057e+01	-3.410815e+00
1.462455e+01	-3.437839e+00
1.470902e+01	-3.465509e+00
1.479398e+01	-3.493090e+00
1.487943e+01	-3.520728e+00
1.496537e+01	-3.548641e+00
1.505181e+01	-3.576548e+00
1.513875e+01	-3.604709e+00
1.522619e+01	-3.632993e+00
1.531414e+01	-3.661407e+00
1.540259e+01	-3.689903e+00
1.549156e+01	-3.718797e+00
1.558103e+01	-3.747645e+00
1.567103e+01	-3.776530e+00
1.576155e+01	-3.805666e+00
1.585258e+01	-3.835180e+00
1.594415e+01	-3.864315e+00
1.603624e+01	-3.894056e+00
1.612886e+01	-3.923407e+00
1.622202e+01	-3.953554e+00
1.631572e+01	-3.983247e+00
1.640996e+01	-4.013341e+00
1.650474e+01	-4.043783e+00
1.660008e+01	-4.074163e+00
1.669596e+01	-4.104774e+00
1.679239e+01	-4.135278e+00
1.688938e+01	-4.166118e+00
1.698694e+01	-4.197210e+00
1.708505e+01	-4.228107e+00
1.718373e+01	-4.259326e+00
1.728299e+01	-4.290499e+00
1.738281e+01	-4.322163e+00
1.748322e+01	-4.353311e+00
1.758420e+01	-4.385555e+00
1.768576e+01	-4.417258e+00
1.778792e+01	-4.449406e+00
1.789066e+01	-4.481420e+00
1.799399e+01	-4.513699e+00
1.809793e+01	-4.546289e+00
1.820246e+01	-4.578706e+00
1.830760e+01	-4.611250e+00
1.841334e+01	-4.643948e+00
1.851969e+01	-4.676955e+00
1.862666e+01	-4.710260e+00
1.873425e+01	-4.743348e+00
1.884246e+01	-4.776579e+00
1.895129e+01	-4.809995e+00
1.906075e+01	-4.843627e+00
1.917085e+01	-4.877155e+00
1.928158e+01	-4.911082e+00
1.939295e+01	-4.944945e+00
1.950496e+01	-4.978847e+00
1.961762e+01	-5.013364e+00
1.973093e+01	-5.047556e+00
1.984490e+01	-5.081965e+00
1.995952e+01	-5.116688e+00
2.007480e+01	-5.151414e+00
2.019076e+01	-5.186082e+00
2.030738e+01	-5.220872e+00
2.042467e+01	-5.255901e+00
2.054264e+01	-5.291168e+00
2.066130e+01	-5.326279e+00
2.078064e+01	-5.361919e+00
2.090066e+01	-5.397227e+00
2.102139e+01	-5.433412e+00
2.114280e+01	-5.468690e+00
2.126492e+01	-5.504671e+00
2.138775e+01	-5.540694e+00
2.151128e+01	-5.576906e+00
2.163553e+01	-5.612938e+00
2.176050e+01	-5.649341e+00
2.188619e+01	-5.685831e+00
2.201260e+01	-5.722395e+00
2.213974e+01	-5.759078e+00
2.226762e+01	-5.795991e+00
2.239624e+01	-5.832980e+00
2.252560e+01	-5.869879e+00
2.265571e+01	-5.907102e+00
2.278656e+01	-5.944476e+00
2.291818e+01	-5.981645e+00
2.305055e+01	-6.018606e+00
2.318369e+01	-6.056639e+00
2.331760e+01	-6.094173e+00
2.345228e+01	-6.131928e+00
2.358774e+01	-6.169888e+00
2.372398e+01	-6.207980e+00
2.386101e+01	-6.246057e+00
2.399883e+01	-6.284480e+00
2.413745e+01	-6.322753e+00
2.427686e+01	-6.361078e+00
2.441709e+01	-6.399473e+00
2.455812e+01	-6.437924e+00
2.469997e+01	-6.476557e+00
2.484263e+01	-6.515537e+00
2.498612e+01	-6.554735e+00
2.513044e+01	-6.593501e+00
2.527559e+01	-6.632507e+00
2.542158e+01	-6.672441e+00
2.556842e+01	-6.711223e+00
2.571610e+01	-6.750922e+00
2.586463e+01	-6.790291e+00
2.601403e+01	-6.829691e+00
2.616428e+01	-6.869246e+00
2.631541e+01	-6.909350e+00
2.646740e+01	-6.949022e+00
2.662028e+01	-6.988875e+00
2.677404e+01	-7.029053e+00
2.692868e+01	-7.069023e+00
2.708422e+01	-7.109446e+00
2.724066e+01	-7.150107e+00
2.739800e+01	-7.190356e+00
2.755625e+01	-7.230572e+00
2.771541e+01	-7.271689e+00
2.787550e+01	-7.312227e+00
2.803650e+01	-7.352758e+00
2.819844e+01	-7.393262e+00
2.836131e+01	-7.435094e+00
2.852513e+01	-7.475814e+00
2.868989e+01	-7.517211e+00
2.885560e+01	-7.557753e+00
2.902227e+01	-7.599636e+00
2.918990e+01	-7.640849e+00
2.935850e+01	-7.682384e+00
2.952807e+01	-7.723547e+00
2.969863e+01	-7.765506e+00
2.987016e+01	-7.807051e+00
3.004269e+01	-7.848625e+00
3.021622e+01	-7.890622e+00
3.039075e+01	-7.932879e+00
3.056628e+01	-7.974256e+00
3.074283e+01	-8.016733e+00
3.092040e+01	-8.058705e+00
3.109900e+01	-8.101148e+00
3.127862e+01	-8.143478e+00
3.145929e+01	-8.186133e+00
3.164099e+01	-8.228331e+00
3.182375e+01	-8.270678e+00
3.200756e+01	-8.313331e+00
3.219244e+01	-8.356067e+00
3.237838e+01	-8.399346e+00
3.256540e+01	-8.442073e+00
3.275349e+01	-8.484666e+00
3.294268e+01	-8.527384e+00
3.313295e+01	-8.570564e+00
3.332433e+01	-8.613911e+00
3.351681e+01	-8.657155e+00
3.371040e+01	-8.700174e+00
3.390511e+01	-8.743417e+00
3.410094e+01	-8.786787e+00
3.429791e+01	-8.830362e+00
3.449601e+01	-8.874153e+00
3.469526e+01	-8.917821e+00
3.489566e+01	-8.960857e+00
3.509721e+01	-9.004590e+00
3.529993e+01	-9.048662e+00
3.550382e+01	-9.092392e+00
3.570889e+01	-9.135985e+00
3.591515e+01	-9.180297e+00
3.612259e+01	-9.223833e+00
3.633123e+01	-9.268554e+00
3.654108e+01	-9.312872e+00
3.675214e+01	-9.356505e+00
3.696442e+01	-9.400839e+00
3.717792e+01	-9.444897e+00
3.739266e+01	-9.489701e+00
3.760864e+01	-9.533962e+00
3.782587e+01	-9.578649e+00
3.804435e+01	-9.623150e+00
3.826409e+01	-9.667543e+00
3.848510e+01	-9.712509e+00
3.870739e+01	-9.756944e+00
3.893096e+01	-9.801637e+00
3.915583e+01	-9.846845e+00
3.938199e+01	-9.891948e+00
3.960946e+01	-9.936450e+00
3.983824e+01	-9.981046e+00
4.006834e+01	-1.002623e+01
4.029978e+01	-1.007125e+01
4.053255e+01	-1.011651e+01
4.076666e+01	-1.016149e+01
4.100213e+01	-1.020690e+01
4.123896e+01	-1.025159e+01
4.147715e+01	-1.029783e+01
4.171672e+01	-1.034274e+01
4.195767e+01	-1.038787e+01
4.220002e+01	-1.043399e+01
4.244377e+01	-1.047936e+01
4.268892e+01	-1.052480e+01
4.293549e+01	-1.057075e+01
4.318348e+01	-1.061620e+01
4.343291e+01	-1.066142e+01
4.368377e+01	-1.070797e+01
4.393609e+01	-1.075367e+01
4.418986e+01	-1.079935e+01
4.444510e+01	-1.084519e+01
4.470182e+01	-1.089156e+01
4.496001e+01	-1.093699e+01
4.521970e+01	-1.098229e+01
4.548089e+01	-1.102902e+01
4.574358e+01	-1.107515e+01
4.600779e+01	-1.112093e+01
4.627353e+01	-1.116723e+01
4.654081e+01	-1.121392e+01
4.680963e+01	-1.126000e+01
4.708000e+01	-1.130656e+01
4.735193e+01	-1.135292e+01
4.762543e+01	-1.139956e+01
4.790051e+01	-1.144498e+01
4.817719e+01	-1.149174e+01
4.845545e+01	-1.153849e+01
4.873533e+01	-1.158481e+01
4.901682e+01	-1.163196e+01
4.929994e+01	-1.167826e+01
4.958470e+01	-1.172532e+01
4.987110e+01	-1.177178e+01
5.015915e+01	-1.181847e+01
5.044887e+01	-1.186507e+01
5.074026e+01	-1.191146e+01
5.103333e+01	-1.195832e+01
5.132810e+01	-1.200549e+01
5.162457e+01	-1.205230e+01
5.192275e+01	-1.209943e+01
5.222265e+01	-1.214636e+01
5.252429e+01	-1.219344e+01
5.282767e+01	-1.224026e+01
5.313280e+01	-1.228731e+01
5.343969e+01	-1.233464e+01
5.374836e+01	-1.238225e+01
5.405880e+01	-1.242878e+01
5.437105e+01	-1.247519e+01
5.468509e+01	-1.252287e+01
5.500095e+01	-1.257038e+01
5.531863e+01	-1.261741e+01
5.563815e+01	-1.266516e+01
5.595951e+01	-1.271257e+01
5.628273e+01	-1.275990e+01
5.660782e+01	-1.280717e+01
5.693479e+01	-1.285466e+01
5.726364e+01	-1.290230e+01
5.759439e+01	-1.294912e+01
5.792705e+01	-1.299669e+01
5.826164e+01	-1.304418e+01
5.859815e+01	-1.309214e+01
5.893662e+01	-1.313925e+01
5.927703e+01	-1.318702e+01
5.961941e+01	-1.323498e+01
5.996377e+01	-1.328258e+01
6.031012e+01	-1.333038e+01
6.065847e+01	-1.337813e+01
6.100883e+01	-1.342548e+01
6.136121e+01	-1.347325e+01
6.171563e+01	-1.352129e+01
6.207210e+01	-1.356907e+01
6.243063e+01	-1.361609e+01
6.279122e+01	-1.366471e+01
6.315390e+01	-1.371276e+01
6.351868e+01	-1.375990e+01
6.388556e+01	-1.380867e+01
6.425456e+01	-1.385629e+01
6.462569e+01	-1.390340e+01
6.499897e+01	-1.395275e+01
6.537440e+01	-1.400087e+01
6.575200e+01	-1.404868e+01
6.613178e+01	-1.409727e+01
6.651375e+01	-1.414369e+01
6.689793e+01	-1.419268e+01
6.728433e+01	-1.424070e+01
6.767297e+01	-1.428919e+01
6.806384e+01	-1.433754e+01
6.845698e+01	-1.438504e+01
6.885238e+01	-1.443380e+01
6.925007e+01	-1.448215e+01
6.965005e+01	-1.453001e+01
7.005235e+01	-1.457948e+01
7.045697e+01	-1.462649e+01
7.086393e+01	-1.467495e+01
7.127323e+01	-1.472318e+01
7.168490e+01	-1.477165e+01
7.209895e+01	-1.482113e+01
7.251539e+01	-1.486891e+01
7.293424e+01	-1.491549e+01
7.335551e+01	-1.496520e+01
7.377920e+01	-1.501311e+01
7.420535e+01	-1.506277e+01
7.463396e+01	-1.511072e+01
7.506504e+01	-1.515849e+01
7.549861e+01	-1.520722e+01
7.593469e+01	-1.525638e+01
7.637328e+01	-1.530476e+01
7.681441e+01	-1.535276e+01
7.725809e+01	-1.540206e+01
7.770433e+01	-1.545004e+01
7.815315e+01	-1.549930e+01
7.860456e+01	-1.554796e+01
7.905857e+01	-1.559575e+01
7.951521e+01	-1.564397e+01
7.997449e+01	-1.569402e+01
8.043642e+01	-1.574273e+01
8.090102e+01	-1.579124e+01
8.136830e+01	-1.584016e+01
8.183828e+01	-1.588837e+01
8.231097e+01	-1.593798e+01
8.278640e+01	-1.598562e+01
8.326457e+01	-1.603551e+01
8.374550e+01	-1.608325e+01
8.422921e+01	-1.613220e+01
8.471572e+01	-1.618144e+01
8.520503e+01	-1.623023e+01
8.569717e+01	-1.627949e+01
8.619215e+01	-1.632846e+01
8.669000e+01	-1.637799e+01
8.719071e+01	-1.642490e+01
8.769432e+01	-1.647333e+01
8.820084e+01	-1.652360e+01
8.871029e+01	-1.657207e+01
8.922267e+01	-1.662114e+01
8.973802e+01	-1.667086e+01
9.025634e+01	-1.671857e+01
9.077766e+01	-1.676871e+01
9.130199e+01	-1.681705e+01
9.182935e+01	-1.686762e+01
9.235975e+01	-1.691515e+01
9.289321e+01	-1.696394e+01
9.342976e+01	-1.701238e+01
9.396941e+01	-1.706138e+01
9.451217e+01	-1.711204e+01
9.505807e+01	-1.716056e+01
9.560712e+01	-1.720948e+01
9.615934e+01	-1.725886e+01
9.671476e+01	-1.730687e+01
9.727338e+01	-1.735673e+01
9.783522e+01	-1.740529e+01
9.840032e+01	-1.745540e+01
9.896867e+01	-1.750336e+01
9.954031e+01	-1.755405e+01
1.001153e+02	-1.760261e+01
1.006935e+02	-1.765123e+01
1.012751e+02	-1.770125e+01
1.018601e+02	-1.775052e+01
1.024484e+02	-1.779883e+01
1.030402e+02	-1.784778e+01
1.036353e+02	-1.789849e+01
1.042339e+02	-1.794603e+01
1.048360e+02	-1.799575e+01
1.054415e+02	-1.804603e+01
1.060505e+02	-1.809505e+01
1.066631e+02	-1.814243e+01
1.072791e+02	-1.819323e+01
1.078988e+02	-1.824237e+01
1.085220e+02	-1.829231e+01
1.091488e+02	-1.833997e+01
1.097793e+02	-1.839055e+01
1.104133e+02	-1.843848e+01
1.110511e+02	-1.848878e+01
1.116925e+02	-1.853721e+01
1.123376e+02	-1.858744e+01
1.129865e+02	-1.863602e+01
1.136391e+02	-1.868578e+01
1.142955e+02	-1.873490e+01
1.149556e+02	-1.878417e+01
1.156196e+02	-1.883420e+01
1.162874e+02	-1.888358e+01
1.169591e+02	-1.893355e+01
1.176347e+02	-1.898216e+01
1.183141e+02	-1.903162e+01
1.189975e+02	-1.908097e+01
1.196848e+02	-1.912968e+01
1.203761e+02	-1.918024e+01
1.210714e+02	-1.922905e+01
1.217707e+02	-1.927979e+01
1.224740e+02	-1.932871e+01
1.231814e+02	-1.937783e+01
1.238929e+02	-1.942620e+01
1.246085e+02	-1.947652e+01
1.253283e+02	-1.952623e+01
1.260522e+02	-1.957516e+01
1.267802e+02	-1.962580e+01
1.275125e+02	-1.967514e+01
1.282490e+02	-1.972503e+01
1.289898e+02	-1.977323e+01
1.297348e+02	-1.982185e+01
1.304842e+02	-1.987180e+01
1.312378e+02	-1.992234e+01
1.319959e+02	-1.997158e+01
1.327583e+02	-2.002259e+01
1.335251e+02	-2.006975e+01
1.342963e+02	-2.011927e+01
1.350720e+02	-2.016864e+01
1.358522e+02	-2.021974e+01
1.366368e+02	-2.026926e+01
1.374260e+02	-2.031723e+01
1.382198e+02	-2.036911e+01
1.390182e+02	-2.041830e+01
1.398211e+02	-2.046513e+01
1.406287e+02	-2.051642e+01
1.414410e+02	-2.056665e+01
1.422579e+02	-2.061753e+01
1.430796e+02	-2.066504e+01
1.439060e+02	-2.071475e+01
1.447372e+02	-2.076385e+01
1.455732e+02	-2.081523e+01
1.464141e+02	-2.086374e+01
1.472597e+02	-2.091362e+01
1.481103e+02	-2.096353e+01
1.489658e+02	-2.101158e+01
1.498262e+02	-2.106197e+01
1.506916e+02	-2.111195e+01
1.515620e+02	-2.116324e+01
1.524374e+02	-2.121148e+01
1.533179e+02	-2.126198e+01
1.542034e+02	-2.131171e+01
1.550941e+02	-2.136182e+01
1.559899e+02	-2.141135e+01
1.568909e+02	-2.145933e+01
1.577971e+02	-2.151064e+01
1.587085e+02	-2.155943e+01
1.596252e+02	-2.160832e+01
1.605472e+02	-2.165891e+01
1.614745e+02	-2.170861e+01
1.624072e+02	-2.175742e+01
1.633453e+02	-2.180798e+01
1.642887e+02	-2.185791e+01
1.652377e+02	-2.190848e+01
1.661921e+02	-2.195715e+01
1.671520e+02	-2.200671e+01
1.681175e+02	-2.205822e+01
1.690885e+02	-2.210669e+01
1.700651e+02	-2.215635e+01
1.710474e+02	-2.220544e+01
1.720354e+02	-2.225515e+01
1.730291e+02	-2.230688e+01
1.740285e+02	-2.235518e+01
1.750337e+02	-2.240578e+01
1.760446e+02	-2.245527e+01
1.770615e+02	-2.250452e+01
1.780842e+02	-2.255354e+01
1.791128e+02	-2.260483e+01
1.801473e+02	-2.265349e+01
1.811878e+02	-2.270292e+01
1.822344e+02	-2.275382e+01
1.832870e+02	-2.280391e+01
1.843456e+02	-2.285200e+01
1.854104e+02	-2.290303e+01
1.864813e+02	-2.295218e+01
1.875584e+02	-2.300179e+01
1.886418e+02	-2.305182e+01
1.897313e+02	-2.310296e+01
1.908272e+02	-2.314906e+01
1.919294e+02	-2.320027e+01
1.930380e+02	-2.325185e+01
1.941530e+02	-2.330031e+01
1.952744e+02	-2.335031e+01
1.964023e+02	-2.340260e+01
1.975367e+02	-2.345137e+01
1.986777e+02	-2.349978e+01
1.998252e+02	-2.355017e+01
2.009794e+02	-2.359995e+01
2.021403e+02	-2.364926e+01
2.033078e+02	-2.369950e+01
2.044821e+02	-2.375141e+01
2.056632e+02	-2.379926e+01
2.068511e+02	-2.384712e+01
2.080459e+02	-2.389895e+01
2.092475e+02	-2.394855e+01
2.104561e+02	-2.400132e+01
2.116717e+02	-2.405059e+01
2.128943e+02	-2.409810e+01
2.141240e+02	-2.414989e+01
2.153608e+02	-2.420053e+01
2.166047e+02	-2.424639e+01
2.178558e+02	-2.429595e+01
2.191141e+02	-2.434676e+01
2.203797e+02	-2.439998e+01
2.216526e+02	-2.445012e+01
2.229329e+02	-2.449649e+01
2.242205e+02	-2.454900e+01
2.255156e+02	-2.459599e+01
2.268182e+02	-2.464981e+01
2.281283e+02	-2.469786e+01
2.294459e+02	-2.474816e+01
2.307712e+02	-2.479988e+01
2.321041e+02	-2.484475e+01
2.334447e+02	-2.489885e+01
2.347931e+02	-2.494422e+01
2.361493e+02	-2.499518e+01
2.375133e+02	-2.504877e+01
2.388851e+02	-2.509606e+01
2.402649e+02	-2.514666e+01
2.416527e+02	-2.519735e+01
2.430484e+02	-2.524471e+01
2.444523e+02	-2.529363e+01
2.458642e+02	-2.534614e+01
2.472843e+02	-2.539828e+01
2.487126e+02	-2.544855e+01
2.501492e+02	-2.549633e+01
2.515940e+02	-2.554522e+01
2.530472e+02	-2.559474e+01
2.545088e+02	-2.564731e+01
2.559789e+02	-2.569659e+01
2.574574e+02	-2.574522e+01
2.589444e+02	-2.579532e+01
2.604401e+02	-2.584436e+01
2.619444e+02	-2.589454e+01
2.634574e+02	-2.594612e+01
2.649791e+02	-2.599379e+01
2.665096e+02	-2.604353e+01
2.680489e+02	-2.609461e+01
2.695972e+02	-2.614659e+01
2.711544e+02	-2.619816e+01
2.727205e+02	-2.624805e+01
2.742958e+02	-2.629608e+01
2.758801e+02	-2.634592e+01
2.774736e+02	-2.639588e+01
2.790762e+02	-2.644293e+01
2.806882e+02	-2.649193e+01
2.823094e+02	-2.654472e+01
2.839400e+02	-2.659573e+01
2.855800e+02	-2.664174e+01
2.872295e+02	-2.669385e+01
2.888886e+02	-2.674708e+01
2.905572e+02	-2.679396e+01
2.922354e+02	-2.684349e+01
2.939234e+02	-2.689597e+01
2.956211e+02	-2.694448e+01
2.973286e+02	-2.699315e+01
2.990459e+02	-2.704427e+01
3.007732e+02	-2.709535e+01
3.025104e+02	-2.714603e+01
3.042577e+02	-2.719333e+01
3.060151e+02	-2.724506e+01
3.077826e+02	-2.729545e+01
3.095604e+02	-2.734702e+01
3.113484e+02	-2.739351e+01
3.131467e+02	-2.744635e+01
3.149554e+02	-2.749624e+01
3.167746e+02	-2.754049e+01
3.186043e+02	-2.759363e+01
3.204445e+02	-2.764246e+01
3.222954e+02	-2.769391e+01
3.241570e+02	-2.774598e+01
3.260293e+02	-2.779055e+01
3.279124e+02	-2.784373e+01
3.298064e+02	-2.789383e+01
3.317114e+02	-2.794164e+01
3.336273e+02	-2.799819e+01
3.355544e+02	-2.804576e+01
3.374925e+02	-2.809479e+01
3.394418e+02	-2.814495e+01
3.414024e+02	-2.819148e+01
3.433744e+02	-2.824239e+01
3.453577e+02	-2.829563e+01
3.473525e+02	-2.834715e+01
3.493588e+02	-2.839335e+01
3.513766e+02	-2.844194e+01
3.534062e+02	-2.850105e+01
3.554474e+02	-2.854741e+01
3.575005e+02	-2.859630e+01
3.595654e+02	-2.864357e+01
3.616422e+02	-2.869299e+01
3.637311e+02	-2.874770e+01
3.658320e+02	-2.879323e+01
3.679450e+02	-2.884766e+01
3.700702e+02	-2.889385e+01
3.722077e+02	-2.894702e+01
3.743576e+02	-2.899969e+01
3.765199e+02	-2.904078e+01
3.786946e+02	-2.909330e+01
3.808820e+02	-2.914509e+01
3.830819e+02	-2.919587e+01
3.852946e+02	-2.924592e+01
3.875200e+02	-2.929428e+01
3.897583e+02	-2.934658e+01
3.920096e+02	-2.939574e+01
3.942738e+02	-2.944952e+01
3.965511e+02	-2.949787e+01
3.988416e+02	-2.954633e+01
4.011452e+02	-2.960079e+01
4.034622e+02	-2.964788e+01
4.057926e+02	-2.969584e+01
4.081365e+02	-2.974713e+01
4.104938e+02	-2.979904e+01
4.128648e+02	-2.984583e+01
4.152495e+02	-2.989921e+01
4.176480e+02	-2.994868e+01
4.200603e+02	-2.999938e+01
4.224866e+02	-3.004976e+01
4.249268e+02	-3.009730e+01
4.273812e+02	-3.014924e+01
4.298497e+02	-3.019340e+01
4.323325e+02	-3.024441e+01
4.348297e+02	-3.029900e+01
4.373412e+02	-3.035407e+01
4.398673e+02	-3.039880e+01
4.424079e+02	-3.045355e+01
4.449633e+02	-3.049761e+01
4.475334e+02	-3.054977e+01
4.501183e+02	-3.060102e+01
4.527182e+02	-3.064674e+01
4.553330e+02	-3.069508e+01
4.579630e+02	-3.074256e+01
4.606082e+02	-3.079971e+01
4.632687e+02	-3.084433e+01
4.659445e+02	-3.089989e+01
4.686358e+02	-3.094909e+01
4.713426e+02	-3.099821e+01
4.740650e+02	-3.104968e+01
4.768032e+02	-3.109536e+01
4.795572e+02	-3.115063e+01
4.823271e+02	-3.119910e+01
4.851130e+02	-3.124844e+01
4.879150e+02	-3.130201e+01
4.907332e+02	-3.135223e+01
4.935676e+02	-3.139474e+01
4.964185e+02	-3.145438e+01
4.992858e+02	-3.149413e+01
5.021696e+02	-3.155044e+01
5.050701e+02	-3.160384e+01
5.079874e+02	-3.165468e+01
5.109215e+02	-3.170160e+01
5.138726e+02	-3.174995e+01
5.168407e+02	-3.180204e+01
5.198259e+02	-3.185291e+01
5.228284e+02	-3.190424e+01
5.258482e+02	-3.194702e+01
5.288855e+02	-3.200131e+01
5.319403e+02	-3.205168e+01
5.350128e+02	-3.210155e+01
5.381030e+02	-3.215067e+01
5.412111e+02	-3.220354e+01
5.443371e+02	-3.225420e+01
5.474812e+02	-3.230435e+01
5.506434e+02	-3.235153e+01
5.538239e+02	-3.240150e+01
5.570228e+02	-3.245880e+01
5.602401e+02	-3.251022e+01
5.634760e+02	-3.255142e+01
5.667306e+02	-3.259421e+01
5.700040e+02	-3.265802e+01
5.732964e+02	-3.270762e+01
5.766077e+02	-3.275429e+01
5.799382e+02	-3.280488e+01
5.832879e+02	-3.285847e+01
5.866569e+02	-3.290459e+01
5.900454e+02	-3.295050e+01
5.934535e+02	-3.301993e+01
5.968813e+02	-3.305967e+01
6.003288e+02	-3.310415e+01
6.037963e+02	-3.316148e+01
6.072838e+02	-3.321282e+01
6.107914e+02	-3.325822e+01
6.143194e+02	-3.330837e+01
6.178676e+02	-3.336290e+01
6.214364e+02	-3.341193e+01
6.250258e+02	-3.345809e+01
6.286359e+02	-3.351125e+01
6.322669e+02	-3.355878e+01
6.359189e+02	-3.360948e+01
6.395919e+02	-3.366773e+01
6.432862e+02	-3.371302e+01
6.470017e+02	-3.375690e+01
6.507388e+02	-3.381600e+01
6.544974e+02	-3.386906e+01
6.582778e+02	-3.391079e+01
6.620800e+02	-3.396274e+01
6.659041e+02	-3.401637e+01
6.697504e+02	-3.406129e+01
6.736188e+02	-3.411299e+01
6.775096e+02	-3.416811e+01
6.814229e+02	-3.421566e+01
6.853587e+02	-3.425988e+01
6.893173e+02	-3.432152e+01
6.932988e+02	-3.435854e+01
6.973033e+02	-3.442089e+01
7.013309e+02	-3.446472e+01
