Frequency(Hz)	Magnitude(dB)
1.000000e+01	-2.115214e+00
1.005776e+01	-2.134423e+00
1.011585e+01	-2.154104e+00
1.017428e+01	-2.173583e+00
1.023305e+01	-2.193488e+00
1.029215e+01	-2.213153e+00
1.035160e+01	-2.233263e+00
1.041139e+01	-2.253442e+00
1.047153e+01	-2.273899e+00
1.053201e+01	-2.294341e+00
1.059284e+01	-2.314991e+00
1.065403e+01	-2.335576e+00
1.071556e+01	-2.356607e+00
1.077746e+01	-2.377556e+00
1.083971e+01	-2.398707e+00
1.090232e+01	-2.420165e+00
1.096529e+01	-2.441465e+00
1.102862e+01	-2.462996e+00
1.109232e+01	-2.485010e+00
1.115639e+01	-2.506573e+00
1.122083e+01	-2.528628e+00
1.128564e+01	-2.550668e+00
1.135083e+01	-2.573157e+00
1.141639e+01	-2.595352e+00
1.148233e+01	-2.618168e+00
1.154865e+01	-2.640515e+00
1.161536e+01	-2.663641e+00
1.168245e+01	-2.686858e+00
1.174992e+01	-2.709701e+00
1.181779e+01	-2.733214e+00
1.188605e+01	-2.756717e+00
1.195470e+01	-2.780366e+00
1.202375e+01	-2.803699e+00
1.209320e+01	-2.827504e+00
1.216305e+01	-2.851857e+00
1.223330e+01	-2.875945e+00
1.230396e+01	-2.900344e+00
1.237503e+01	-2.924524e+00
1.244651e+01	-2.949023e+00
1.251840e+01	-2.974077e+00
1.259070e+01	-2.999006e+00
1.266343e+01	-3.024120e+00
1.273657e+01	-3.049168e+00
1.281014e+01	-3.074307e+00
1.288413e+01	-3.099608e+00
1.295855e+01	-3.125452e+00
1.303339e+01	-3.151051e+00
1.310867e+01	-3.177022e+00
1.318439e+01	-3.203255e+00
1.326054e+01	-3.229016e+00
1.333713e+01	-3.255788e+00
1.341417e+01	-3.281990e+00
1.349165e+01	-3.308454e+00
1.356958e+01	-3.335308e+00
1.364795e+01	-3.362138e+00
1.372678e+01	-3.389329e+00
1.380607e+01	-3.416261e+00
1.388581e+01	-3.443734e+00
1.396602e+01	-3.471237e+00
1.404668e+01	-3.498716e+00
1.412782e+01	-3.526455e+00
1.420942e+01	-3.554336e+00
1.429149e+01	-3.582480e+00
1.437404e+01	-3.610509e+00
1.445706e+01	-3.638964e+00
1.454057e+01	-3.667395e+00
1.462455e+01	-3.696198e+00
1.470902e+01	-3.724364e+00
1.479398e+01	-3.753562e+00
1.487943e+01	-3.782566e+00
1.496537e+01	-3.811714e+00
1.505181e+01	-3.841029e+00
1.513875e+01	-3.870495e+00
1.522619e+01	-3.900186e+00
1.531414e+01	-3.929814e+00
1.540259e+01	-3.959874e+00
1.549156e+01	-3.989531e+00
1.558103e+01	-4.019687e+00
1.567103e+01	-4.049866e+00
1.576155e+01	-4.080644e+00
1.585258e+01	-4.110805e+00
1.594415e+01	-4.141777e+00
1.603624e+01	-4.172469e+00
1.612886e+01	-4.203534e+00
1.622202e+01	-4.234375e+00
1.631572e+01	-4.265773e+00
1.640996e+01	-4.297280e+00
1.650474e+01	-4.328864e+00
1.660008e+01	-4.360372e+00
1.669596e+01	-4.391906e+00
1.679239e+01	-4.423693e+00
1.688938e+01	-4.455753e+00
1.698694e+01	-4.488224e+00
1.708505e+01	-4.520276e+00
1.718373e+01	-4.552540e+00
1.728299e+01	-4.584967e+00
1.738281e+01	-4.618002e+00
1.748322e+01	-4.651187e+00
1.758420e+01	-4.683764e+00
1.768576e+01	-4.717038e+00
1.778792e+01	-4.750216e+00
1.789066e+01	-4.783612e+00
1.799399e+01	-4.816812e+00
1.809793e+01	-4.850591e+00
1.820246e+01	-4.884394e+00
1.830760e+01	-4.918019e+00
1.841334e+01	-4.951839e+00
1.851969e+01	-4.985952e+00
1.862666e+01	-5.020355e+00
1.873425e+01	-5.054112e+00
1.884246e+01	-5.089080e+00
1.895129e+01	-5.124116e+00
1.906075e+01	-5.158462e+00
1.917085e+01	-5.193406e+00
1.928158e+01	-5.228423e+00
1.939295e+01	-5.263231e+00
1.950496e+01	-5.298305e+00
1.961762e+01	-5.333993e+00
1.973093e+01	-5.368956e+00
1.984490e+01	-5.404404e+00
1.995952e+01	-5.440054e+00
2.007480e+01	-5.476286e+00
2.019076e+01	-5.512048e+00
2.030738e+01	-5.547968e+00
2.042467e+01	-5.584150e+00
2.054264e+01	-5.620660e+00
2.066130e+01	-5.656952e+00
2.078064e+01	-5.693504e+00
2.090066e+01	-5.730134e+00
2.102139e+01	-5.766924e+00
2.114280e+01	-5.803352e+00
2.126492e+01	-5.840261e+00
2.138775e+01	-5.877379e+00
2.151128e+01	-5.914631e+00
2.163553e+01	-5.951829e+00
2.176050e+01	-5.989289e+00
2.188619e+01	-6.026877e+00
2.201260e+01	-6.064207e+00
2.213974e+01	-6.101762e+00
2.226762e+01	-6.139641e+00
2.239624e+01	-6.177613e+00
2.252560e+01	-6.216173e+00
2.265571e+01	-6.253681e+00
2.278656e+01	-6.292038e+00
2.291818e+01	-6.330653e+00
2.305055e+01	-6.369120e+00
2.318369e+01	-6.407250e+00
2.331760e+01	-6.446559e+00
2.345228e+01	-6.485112e+00
2.358774e+01	-6.523538e+00
2.372398e+01	-6.562518e+00
2.386101e+01	-6.601714e+00
2.399883e+01	-6.640624e+00
2.413745e+01	-6.680013e+00
2.427686e+01	-6.719403e+00
2.441709e+01	-6.758848e+00
2.455812e+01	-6.798345e+00
2.469997e+01	-6.837961e+00
2.484263e+01	-6.877522e+00
2.498612e+01	-6.917616e+00
2.513044e+01	-6.957129e+00
2.527559e+01	-6.997557e+00
2.542158e+01	-7.037339e+00
2.556842e+01	-7.077577e+00
2.571610e+01	-7.118067e+00
2.586463e+01	-7.158389e+00
2.601403e+01	-7.198354e+00
2.616428e+01	-7.239567e+00
2.631541e+01	-7.279965e+00
2.646740e+01	-7.320636e+00
2.662028e+01	-7.361437e+00
2.677404e+01	-7.402059e+00
2.692868e+01	-7.442968e+00
2.708422e+01	-7.484365e+00
2.724066e+01	-7.525375e+00
2.739800e+01	-7.566542e+00
2.755625e+01	-7.607824e+00
2.771541e+01	-7.649455e+00
2.787550e+01	-7.690703e+00
2.803650e+01	-7.732230e+00
2.819844e+01	-7.773845e+00
2.836131e+01	-7.816148e+00
2.852513e+01	-7.857160e+00
2.868989e+01	-7.899403e+00
2.885560e+01	-7.941331e+00
2.902227e+01	-7.983170e+00
2.918990e+01	-8.025529e+00
2.935850e+01	-8.067616e+00
2.952807e+01	-8.109780e+00
2.969863e+01	-8.152145e+00
2.987016e+01	-8.194876e+00
3.004269e+01	-8.237258e+00
3.021622e+01	-8.279825e+00
3.039075e+01	-8.322266e+00
3.056628e+01	-8.364844e+00
3.074283e+01	-8.407607e+00
3.092040e+01	-8.450739e+00
3.109900e+01	-8.493793e+00
3.127862e+01	-8.536213e+00
3.145929e+01	-8.579878e+00
3.164099e+01	-8.622568e+00
3.182375e+01	-8.665610e+00
3.200756e+01	-8.708968e+00
3.219244e+01	-8.752113e+00
3.237838e+01	-8.795737e+00
3.256540e+01	-8.839096e+00
3.275349e+01	-8.883087e+00
3.294268e+01	-8.926043e+00
3.313295e+01	-8.969796e+00
3.332433e+01	-9.013784e+00
3.351681e+01	-9.057360e+00
3.371040e+01	-9.101112e+00
3.390511e+01	-9.145289e+00
3.410094e+01	-9.188714e+00
3.429791e+01	-9.232815e+00
3.449601e+01	-9.276704e+00
3.469526e+01	-9.321839e+00
3.489566e+01	-9.365915e+00
3.509721e+01	-9.409890e+00
3.529993e+01	-9.454240e+00
3.550382e+01	-9.498909e+00
3.570889e+01	-9.542686e+00
3.591515e+01	-9.587661e+00
3.612259e+01	-9.632296e+00
3.633123e+01	-9.677020e+00
3.654108e+01	-9.721596e+00
3.675214e+01	-9.766089e+00
3.696442e+01	-9.811142e+00
3.717792e+01	-9.855491e+00
3.739266e+01	-9.900570e+00
3.760864e+01	-9.945139e+00
3.782587e+01	-9.990677e+00
3.804435e+01	-1.003533e+01
3.826409e+01	-1.008043e+01
3.848510e+01	-1.012570e+01
3.870739e+01	-1.017119e+01
3.893096e+01	-1.021595e+01
3.915583e+01	-1.026151e+01
3.938199e+01	-1.030686e+01
3.960946e+01	-1.035254e+01
3.983824e+01	-1.039838e+01
4.006834e+01	-1.044323e+01
4.029978e+01	-1.048824e+01
4.053255e+01	-1.053494e+01
4.076666e+01	-1.057995e+01
4.100213e+01	-1.062548e+01
4.123896e+01	-1.067140e+01
4.147715e+01	-1.071606e+01
4.171672e+01	-1.076242e+01
4.195767e+01	-1.080895e+01
4.220002e+01	-1.085466e+01
4.244377e+01	-1.090089e+01
4.268892e+01	-1.094653e+01
4.293549e+01	-1.099232e+01
4.318348e+01	-1.103831e+01
4.343291e+01	-1.108465e+01
4.368377e+01	-1.113141e+01
4.393609e+01	-1.117668e+01
4.418986e+01	-1.122391e+01
4.444510e+01	-1.126934e+01
4.470182e+01	-1.131647e+01
4.496001e+01	-1.136216e+01
4.521970e+01	-1.140876e+01
4.548089e+01	-1.145509e+01
4.574358e+01	-1.150145e+01
4.600779e+01	-1.154797e+01
4.627353e+01	-1.159482e+01
4.654081e+01	-1.164098e+01
4.680963e+01	-1.168812e+01
4.708000e+01	-1.173430e+01
4.735193e+01	-1.178150e+01
4.762543e+01	-1.182813e+01
4.790051e+01	-1.187448e+01
4.817719e+01	-1.192122e+01
4.845545e+01	-1.196846e+01
4.873533e+01	-1.201552e+01
4.901682e+01	-1.206195e+01
4.929994e+01	-1.210947e+01
4.958470e+01	-1.215620e+01
4.987110e+01	-1.220308e+01
5.015915e+01	-1.224960e+01
5.044887e+01	-1.229780e+01
5.074026e+01	-1.234404e+01
5.103333e+01	-1.239052e+01
5.132810e+01	-1.243830e+01
5.162457e+01	-1.248533e+01
5.192275e+01	-1.253231e+01
5.222265e+01	-1.257972e+01
5.252429e+01	-1.262693e+01
5.282767e+01	-1.267494e+01
5.313280e+01	-1.272173e+01
5.343969e+01	-1.276930e+01
5.374836e+01	-1.281697e+01
5.405880e+01	-1.286431e+01
5.437105e+01	-1.291195e+01
5.468509e+01	-1.295903e+01
5.500095e+01	-1.300638e+01
5.531863e+01	-1.305413e+01
5.563815e+01	-1.310141e+01
5.595951e+01	-1.315027e+01
5.628273e+01	-1.319679e+01
5.660782e+01	-1.324433e+01
5.693479e+01	-1.329244e+01
5.726364e+01	-1.333985e+01
5.759439e+01	-1.338706e+01
5.792705e+01	-1.343564e+01
5.826164e+01	-1.348263e+01
5.859815e+01	-1.352975e+01
5.893662e+01	-1.357922e+01
5.927703e+01	-1.362666e+01
5.961941e+01	-1.367452e+01
5.996377e+01	-1.372191e+01
6.031012e+01	-1.377081e+01
6.065847e+01	-1.381867e+01
6.100883e+01	-1.386638e+01
6.136121e+01	-1.391403e+01
6.171563e+01	-1.396198e+01
6.207210e+01	-1.401002e+01
6.243063e+01	-1.405846e+01
6.279122e+01	-1.410591e+01
6.315390e+01	-1.415430e+01
6.351868e+01	-1.420313e+01
6.388556e+01	-1.425111e+01
6.425456e+01	-1.429812e+01
6.462569e+01	-1.434732e+01
6.499897e+01	-1.439609e+01
6.537440e+01	-1.444355e+01
6.575200e+01	-1.449192e+01
6.613178e+01	-1.454028e+01
6.651375e+01	-1.458823e+01
6.689793e+01	-1.463669e+01
6.728433e+01	-1.468424e+01
6.767297e+01	-1.473295e+01
6.806384e+01	-1.478087e+01
6.845698e+01	-1.482932e+01
6.885238e+01	-1.487808e+01
6.925007e+01	-1.492621e+01
6.965005e+01	-1.497443e+01
7.005235e+01	-1.502471e+01
7.045697e+01	-1.507265e+01
7.086393e+01	-1.512227e+01
7.127323e+01	-1.516863e+01
7.168490e+01	-1.521691e+01
7.209895e+01	-1.526595e+01
7.251539e+01	-1.531400e+01
7.293424e+01	-1.536256e+01
7.335551e+01	-1.541214e+01
7.377920e+01	-1.546153e+01
7.420535e+01	-1.550922e+01
7.463396e+01	-1.555715e+01
7.506504e+01	-1.560604e+01
7.549861e+01	-1.565506e+01
7.593469e+01	-1.570313e+01
7.637328e+01	-1.575300e+01
7.681441e+01	-1.580184e+01
7.725809e+01	-1.584947e+01
7.770433e+01	-1.589801e+01
7.815315e+01	-1.594660e+01
7.860456e+01	-1.599692e+01
7.905857e+01	-1.604539e+01
7.951521e+01	-1.609317e+01
7.997449e+01	-1.614221e+01
8.043642e+01	-1.619154e+01
8.090102e+01	-1.624074e+01
8.136830e+01	-1.628874e+01
8.183828e+01	-1.633857e+01
8.231097e+01	-1.638696e+01
8.278640e+01	-1.643476e+01
8.326457e+01	-1.648407e+01
8.374550e+01	-1.653342e+01
8.422921e+01	-1.658265e+01
8.471572e+01	-1.663029e+01
8.520503e+01	-1.667888e+01
8.569717e+01	-1.672944e+01
8.619215e+01	-1.677870e+01
8.669000e+01	-1.682710e+01
8.719071e+01	-1.687672e+01
8.769432e+01	-1.692564e+01
8.820084e+01	-1.697318e+01
8.871029e+01	-1.702402e+01
8.922267e+01	-1.707216e+01
8.973802e+01	-1.712172e+01
9.025634e+01	-1.717012e+01
9.077766e+01	-1.722032e+01
9.130199e+01	-1.726805e+01
9.182935e+01	-1.731813e+01
9.235975e+01	-1.736742e+01
9.289321e+01	-1.741609e+01
9.342976e+01	-1.746495e+01
9.396941e+01	-1.751356e+01
9.451217e+01	-1.756326e+01
9.505807e+01	-1.761347e+01
9.560712e+01	-1.766112e+01
9.615934e+01	-1.771096e+01
9.671476e+01	-1.775960e+01
9.727338e+01	-1.780900e+01
9.783522e+01	-1.785857e+01
9.840032e+01	-1.790569e+01
9.896867e+01	-1.795676e+01
9.954031e+01	-1.800660e+01
1.001153e+02	-1.805551e+01
1.006935e+02	-1.810345e+01
1.012751e+02	-1.815461e+01
1.018601e+02	-1.820190e+01
1.024484e+02	-1.825352e+01
1.030402e+02	-1.830231e+01
1.036353e+02	-1.835067e+01
1.042339e+02	-1.840010e+01
1.048360e+02	-1.844904e+01
1.054415e+02	-1.849908e+01
1.060505e+02	-1.854775e+01
1.066631e+02	-1.859682e+01
1.072791e+02	-1.864684e+01
1.078988e+02	-1.869727e+01
1.085220e+02	-1.874711e+01
1.091488e+02	-1.879387e+01
1.097793e+02	-1.884391e+01
1.104133e+02	-1.889275e+01
1.110511e+02	-1.894325e+01
1.116925e+02	-1.899274e+01
1.123376e+02	-1.904088e+01
1.129865e+02	-1.909156e+01
1.136391e+02	-1.914096e+01
1.142955e+02	-1.919034e+01
1.149556e+02	-1.923946e+01
1.156196e+02	-1.928912e+01
1.162874e+02	-1.933914e+01
1.169591e+02	-1.938837e+01
1.176347e+02	-1.943808e+01
1.183141e+02	-1.948673e+01
1.189975e+02	-1.953571e+01
1.196848e+02	-1.958418e+01
1.203761e+02	-1.963620e+01
1.210714e+02	-1.968608e+01
1.217707e+02	-1.973509e+01
1.224740e+02	-1.978585e+01
1.231814e+02	-1.983343e+01
1.238929e+02	-1.988253e+01
1.246085e+02	-1.993101e+01
1.253283e+02	-1.998162e+01
1.260522e+02	-2.003096e+01
1.267802e+02	-2.008084e+01
1.275125e+02	-2.013103e+01
1.282490e+02	-2.017859e+01
1.289898e+02	-2.023082e+01
1.297348e+02	-2.027931e+01
1.304842e+02	-2.033015e+01
1.312378e+02	-2.037643e+01
1.319959e+02	-2.042913e+01
1.327583e+02	-2.047587e+01
1.335251e+02	-2.052592e+01
1.342963e+02	-2.057622e+01
1.350720e+02	-2.062636e+01
1.358522e+02	-2.067639e+01
1.366368e+02	-2.072474e+01
1.374260e+02	-2.077594e+01
1.382198e+02	-2.082466e+01
1.390182e+02	-2.087434e+01
1.398211e+02	-2.092396e+01
1.406287e+02	-2.097366e+01
1.414410e+02	-2.102481e+01
1.422579e+02	-2.107382e+01
1.430796e+02	-2.112249e+01
1.439060e+02	-2.117449e+01
1.447372e+02	-2.122020e+01
1.455732e+02	-2.127129e+01
1.464141e+02	-2.132033e+01
1.472597e+02	-2.137244e+01
1.481103e+02	-2.142297e+01
1.489658e+02	-2.147059e+01
1.498262e+02	-2.151895e+01
1.506916e+02	-2.157088e+01
1.515620e+02	-2.161886e+01
1.524374e+02	-2.166916e+01
1.533179e+02	-2.171802e+01
1.542034e+02	-2.176781e+01
1.550941e+02	-2.181947e+01
1.559899e+02	-2.186697e+01
1.568909e+02	-2.191759e+01
1.577971e+02	-2.196827e+01
1.587085e+02	-2.201726e+01
1.596252e+02	-2.206462e+01
1.605472e+02	-2.211619e+01
1.614745e+02	-2.216471e+01
1.624072e+02	-2.221585e+01
1.633453e+02	-2.226650e+01
1.642887e+02	-2.231408e+01
1.652377e+02	-2.236605e+01
1.661921e+02	-2.241538e+01
1.671520e+02	-2.246641e+01
1.681175e+02	-2.251426e+01
1.690885e+02	-2.256291e+01
1.700651e+02	-2.261561e+01
1.710474e+02	-2.266357e+01
1.720354e+02	-2.271503e+01
1.730291e+02	-2.276329e+01
1.740285e+02	-2.281211e+01
1.750337e+02	-2.286522e+01
1.760446e+02	-2.291275e+01
1.770615e+02	-2.296197e+01
1.780842e+02	-2.301341e+01
1.791128e+02	-2.306285e+01
1.801473e+02	-2.311076e+01
1.811878e+02	-2.316310e+01
1.822344e+02	-2.321089e+01
1.832870e+02	-2.326219e+01
1.843456e+02	-2.331136e+01
1.854104e+02	-2.336169e+01
1.864813e+02	-2.341041e+01
1.875584e+02	-2.346090e+01
1.886418e+02	-2.350855e+01
1.897313e+02	-2.356378e+01
1.908272e+02	-2.360923e+01
1.919294e+02	-2.365927e+01
1.930380e+02	-2.371072e+01
1.941530e+02	-2.376080e+01
1.952744e+02	-2.380828e+01
1.964023e+02	-2.385860e+01
1.975367e+02	-2.391072e+01
1.986777e+02	-2.395916e+01
1.998252e+02	-2.401079e+01
2.009794e+02	-2.405831e+01
2.021403e+02	-2.411130e+01
2.033078e+02	-2.415924e+01
2.044821e+02	-2.420810e+01
2.056632e+02	-2.425798e+01
2.068511e+02	-2.430783e+01
2.080459e+02	-2.435593e+01
2.092475e+02	-2.440811e+01
2.104561e+02	-2.445852e+01
2.116717e+02	-2.450806e+01
2.128943e+02	-2.455729e+01
2.141240e+02	-2.460993e+01
2.153608e+02	-2.465597e+01
2.166047e+02	-2.470811e+01
2.178558e+02	-2.475717e+01
2.191141e+02	-2.481224e+01
2.203797e+02	-2.485788e+01
2.216526e+02	-2.490733e+01
2.229329e+02	-2.495688e+01
2.242205e+02	-2.500548e+01
2.255156e+02	-2.505621e+01
2.268182e+02	-2.510584e+01
2.281283e+02	-2.515800e+01
2.294459e+02	-2.520777e+01
2.307712e+02	-2.525671e+01
2.321041e+02	-2.530624e+01
2.334447e+02	-2.535546e+01
2.347931e+02	-2.540351e+01
2.361493e+02	-2.545757e+01
2.375133e+02	-2.550616e+01
2.388851e+02	-2.555787e+01
2.402649e+02	-2.560557e+01
2.416527e+02	-2.565778e+01
2.430484e+02	-2.570430e+01
2.444523e+02	-2.575883e+01
2.458642e+02	-2.580869e+01
2.472843e+02	-2.585782e+01
2.487126e+02	-2.590657e+01
2.501492e+02	-2.595293e+01
2.515940e+02	-2.600696e+01
2.530472e+02	-2.605580e+01
2.545088e+02	-2.610605e+01
2.559789e+02	-2.615249e+01
2.574574e+02	-2.619915e+01
2.589444e+02	-2.625729e+01
2.604401e+02	-2.630814e+01
2.619444e+02	-2.635481e+01
2.634574e+02	-2.640293e+01
2.649791e+02	-2.645570e+01
2.665096e+02	-2.650566e+01
2.680489e+02	-2.655850e+01
2.695972e+02	-2.660589e+01
2.711544e+02	-2.665406e+01
2.727205e+02	-2.670902e+01
2.742958e+02	-2.675804e+01
2.758801e+02	-2.680343e+01
2.774736e+02	-2.685488e+01
2.790762e+02	-2.690609e+01
2.806882e+02	-2.695150e+01
2.823094e+02	-2.700917e+01
2.839400e+02	-2.705583e+01
2.855800e+02	-2.710601e+01
2.872295e+02	-2.715356e+01
2.888886e+02	-2.720662e+01
2.905572e+02	-2.725104e+01
2.922354e+02	-2.730579e+01
2.939234e+02	-2.735098e+01
2.956211e+02	-2.739896e+01
2.973286e+02	-2.745671e+01
2.990459e+02	-2.750652e+01
3.007732e+02	-2.755554e+01
3.025104e+02	-2.760057e+01
3.042577e+02	-2.765592e+01
3.060151e+02	-2.770186e+01
3.077826e+02	-2.775536e+01
3.095604e+02	-2.780442e+01
3.113484e+02	-2.785228e+01
3.131467e+02	-2.790401e+01
3.149554e+02	-2.795579e+01
3.167746e+02	-2.800343e+01
3.186043e+02	-2.805585e+01
3.204445e+02	-2.810776e+01
3.222954e+02	-2.815550e+01
3.241570e+02	-2.820297e+01
3.260293e+02	-2.825939e+01
3.279124e+02	-2.830748e+01
3.298064e+02	-2.835570e+01
3.317114e+02	-2.840659e+01
3.336273e+02	-2.845558e+01
3.355544e+02	-2.850614e+01
3.374925e+02	-2.855826e+01
3.394418e+02	-2.860611e+01
3.414024e+02	-2.865738e+01
3.433744e+02	-2.870808e+01
3.453577e+02	-2.875490e+01
3.473525e+02	-2.880393e+01
3.493588e+02	-2.885427e+01
3.513766e+02	-2.890558e+01
3.534062e+02	-2.896011e+01
3.554474e+02	-2.900586e+01
3.575005e+02	-2.905670e+01
3.595654e+02	-2.911036e+01
3.616422e+02	-2.915669e+01
3.637311e+02	-2.920821e+01
3.658320e+02	-2.925981e+01
3.679450e+02	-2.930846e+01
3.700702e+02	-2.935817e+01
3.722077e+02	-2.940557e+01
3.743576e+02	-2.945541e+01
3.765199e+02	-2.950867e+01
3.786946e+02	-2.955807e+01
3.808820e+02	-2.960732e+01
3.830819e+02	-2.965438e+01
3.852946e+02	-2.970649e+01
3.875200e+02	-2.975323e+01
3.897583e+02	-2.980853e+01
3.920096e+02	-2.985707e+01
3.942738e+02	-2.990336e+01
3.965511e+02	-2.995543e+01
3.988416e+02	-3.000712e+01
4.011452e+02	-3.006003e+01
4.034622e+02	-3.010731e+01
4.057926e+02	-3.015957e+01
4.081365e+02	-3.020838e+01
4.104938e+02	-3.026189e+01
4.128648e+02	-3.030934e+01
4.152495e+02	-3.034938e+01
4.176480e+02	-3.040985e+01
4.200603e+02	-3.046044e+01
4.224866e+02	-3.050957e+01
4.249268e+02	-3.056060e+01
4.273812e+02	-3.061211e+01
4.298497e+02	-3.066372e+01
4.323325e+02	-3.071372e+01
4.348297e+02	-3.075836e+01
4.373412e+02	-3.080678e+01
4.398673e+02	-3.086288e+01
4.424079e+02	-3.090829e+01
4.449633e+02	-3.095730e+01
4.475334e+02	-3.101026e+01
4.501183e+02	-3.105667e+01
4.527182e+02	-3.111371e+01
4.553330e+02	-3.116167e+01
4.579630e+02	-3.120853e+01
4.606082e+02	-3.125883e+01
4.632687e+02	-3.131244e+01
4.659445e+02	-3.136857e+01
4.686358e+02	-3.141129e+01
4.713426e+02	-3.146033e+01
4.740650e+02	-3.150784e+01
4.768032e+02	-3.156270e+01
4.795572e+02	-3.161267e+01
4.823271e+02	-3.166228e+01
4.851130e+02	-3.171406e+01
4.879150e+02	-3.175656e+01
4.907332e+02	-3.181164e+01
4.935676e+02	-3.186353e+01
4.964185e+02	-3.191654e+01
4.992858e+02	-3.196884e+01
5.021696e+02	-3.201934e+01
5.050701e+02	-3.206079e+01
5.079874e+02	-3.211842e+01
5.109215e+02	-3.216353e+01
5.138726e+02	-3.221246e+01
5.168407e+02	-3.226386e+01
5.198259e+02	-3.231464e+01
5.228284e+02	-3.235609e+01
5.258482e+02	-3.241514e+01
5.288855e+02	-3.246714e+01
5.319403e+02	-3.250937e+01
5.350128e+02	-3.256000e+01
5.381030e+02	-3.261370e+01
5.412111e+02	-3.267310e+01
5.443371e+02	-3.271322e+01
5.474812e+02	-3.276785e+01
5.506434e+02	-3.281818e+01
5.538239e+02	-3.286616e+01
5.570228e+02	-3.291862e+01
5.602401e+02	-3.296662e+01
5.634760e+02	-3.301635e+01
5.667306e+02	-3.306728e+01
5.700040e+02	-3.311770e+01
5.732964e+02	-3.317205e+01
5.766077e+02	-3.321323e+01
5.799382e+02	-3.327184e+01
5.832879e+02	-3.332012e+01
5.866569e+02	-3.337787e+01
5.900454e+02	-3.341845e+01
5.934535e+02	-3.347769e+01
5.968813e+02	-3.352984e+01
6.003288e+02	-3.357153e+01
6.037963e+02	-3.362220e+01
6.072838e+02	-3.366886e+01
6.107914e+02	-3.372789e+01
6.143194e+02	-3.377684e+01
6.178676e+02	-3.381805e+01
6.214364e+02	-3.387315e+01
6.250258e+02	-3.391985e+01
6.286359e+02	-3.397512e+01
6.322669e+02	-3.402518e+01
6.359189e+02	-3.407155e+01
6.395919e+02	-3.412424e+01
6.432862e+02	-3.417346e+01
6.470017e+02	-3.422428e+01
6.507388e+02	-3.427898e+01
6.544974e+02	-3.433001e+01
6.582778e+02	-3.437321e+01
6.620800e+02	-3.443019e+01
6.659041e+02	-3.447438e+01
6.697504e+02	-3.453520e+01
6.736188e+02	-3.458831e+01
6.775096e+02	-3.462619e+01
6.814229e+02	-3.467577e+01
6.853587e+02	-3.473189e+01
6.893173e+02	-3.478347e+01
6.932988e+02	-3.483487e+01
6.973033e+02	-3.489184e+01
7.013309e+02	-3.492601e+01
