Frequency(Hz)	Magnitude(dB)
1.000000e+01	-2.106954e+00
1.005776e+01	-2.126394e+00
1.011585e+01	-2.145851e+00
1.017428e+01	-2.165545e+00
1.023305e+01	-2.185033e+00
1.029215e+01	-2.204945e+00
1.035160e+01	-2.225146e+00
1.041139e+01	-2.244827e+00
1.047153e+01	-2.265229e+00
1.053201e+01	-2.285482e+00
1.059284e+01	-2.306321e+00
1.065403e+01	-2.326873e+00
1.071556e+01	-2.347615e+00
1.077746e+01	-2.368570e+00
1.083971e+01	-2.389783e+00
1.090232e+01	-2.410999e+00
1.096529e+01	-2.432647e+00
1.102862e+01	-2.453793e+00
1.109232e+01	-2.475610e+00
1.115639e+01	-2.497604e+00
1.122083e+01	-2.519441e+00
1.128564e+01	-2.541552e+00
1.135083e+01	-2.563892e+00
1.141639e+01	-2.586030e+00
1.148233e+01	-2.608473e+00
1.154865e+01	-2.631090e+00
1.161536e+01	-2.654105e+00
1.168245e+01	-2.677165e+00
1.174992e+01	-2.699987e+00
1.181779e+01	-2.723394e+00
1.188605e+01	-2.746640e+00
1.195470e+01	-2.770473e+00
1.202375e+01	-2.793890e+00
1.209320e+01	-2.817582e+00
1.216305e+01	-2.841463e+00
1.223330e+01	-2.865638e+00
1.230396e+01	-2.890252e+00
1.237503e+01	-2.914278e+00
1.244651e+01	-2.938990e+00
1.251840e+01	-2.963561e+00
1.259070e+01	-2.988434e+00
1.266343e+01	-3.013327e+00
1.273657e+01	-3.038290e+00
1.281014e+01	-3.063827e+00
1.288413e+01	-3.089337e+00
1.295855e+01	-3.114679e+00
1.303339e+01	-3.140437e+00
1.310867e+01	-3.166098e+00
1.318439e+01	-3.192124e+00
1.326054e+01	-3.218146e+00
1.333713e+01	-3.244585e+00
1.341417e+01	-3.270541e+00
1.349165e+01	-3.297228e+00
1.356958e+01	-3.324076e+00
1.364795e+01	-3.350643e+00
1.372678e+01	-3.377845e+00
1.380607e+01	-3.404775e+00
1.388581e+01	-3.432207e+00
1.396602e+01	-3.459691e+00
1.404668e+01	-3.487136e+00
1.412782e+01	-3.514611e+00
1.420942e+01	-3.542540e+00
1.429149e+01	-3.570665e+00
1.437404e+01	-3.598607e+00
1.445706e+01	-3.627151e+00
1.454057e+01	-3.655493e+00
1.462455e+01	-3.684084e+00
1.470902e+01	-3.712555e+00
1.479398e+01	-3.741378e+00
1.487943e+01	-3.770250e+00
1.496537e+01	-3.799339e+00
1.505181e+01	-3.828651e+00
1.513875e+01	-3.858247e+00
1.522619e+01	-3.887713e+00
1.531414e+01	-3.917058e+00
1.540259e+01	-3.947198e+00
1.549156e+01	-3.976966e+00
1.558103e+01	-4.007208e+00
1.567103e+01	-4.037035e+00
1.576155e+01	-4.067581e+00
1.585258e+01	-4.098158e+00
1.594415e+01	-4.128703e+00
1.603624e+01	-4.159678e+00
1.612886e+01	-4.190461e+00
1.622202e+01	-4.221751e+00
1.631572e+01	-4.252238e+00
1.640996e+01	-4.283908e+00
1.650474e+01	-4.315272e+00
1.660008e+01	-4.346857e+00
1.669596e+01	-4.378570e+00
1.679239e+01	-4.410375e+00
1.688938e+01	-4.442514e+00
1.698694e+01	-4.474482e+00
1.708505e+01	-4.507093e+00
1.718373e+01	-4.538956e+00
1.728299e+01	-4.571607e+00
1.738281e+01	-4.604538e+00
1.748322e+01	-4.637065e+00
1.758420e+01	-4.670086e+00
1.768576e+01	-4.702975e+00
1.778792e+01	-4.736255e+00
1.789066e+01	-4.769463e+00
1.799399e+01	-4.802794e+00
1.809793e+01	-4.836276e+00
1.820246e+01	-4.869970e+00
1.830760e+01	-4.903737e+00
1.841334e+01	-4.937821e+00
1.851969e+01	-4.971804e+00
1.862666e+01	-5.005772e+00
1.873425e+01	-5.040128e+00
1.884246e+01	-5.074394e+00
1.895129e+01	-5.109145e+00
1.906075e+01	-5.143527e+00
1.917085e+01	-5.178485e+00
1.928158e+01	-5.213754e+00
1.939295e+01	-5.248576e+00
1.950496e+01	-5.283551e+00
1.961762e+01	-5.319193e+00
1.973093e+01	-5.354251e+00
1.984490e+01	-5.389561e+00
1.995952e+01	-5.425547e+00
2.007480e+01	-5.461391e+00
2.019076e+01	-5.497161e+00
2.030738e+01	-5.533057e+00
2.042467e+01	-5.569169e+00
2.054264e+01	-5.605007e+00
2.066130e+01	-5.641741e+00
2.078064e+01	-5.678027e+00
2.090066e+01	-5.714472e+00
2.102139e+01	-5.750925e+00
2.114280e+01	-5.788125e+00
2.126492e+01	-5.824976e+00
2.138775e+01	-5.861781e+00
2.151128e+01	-5.899021e+00
2.163553e+01	-5.936085e+00
2.176050e+01	-5.973482e+00
2.188619e+01	-6.010784e+00
2.201260e+01	-6.048321e+00
2.213974e+01	-6.086336e+00
2.226762e+01	-6.124079e+00
2.239624e+01	-6.161818e+00
2.252560e+01	-6.199755e+00
2.265571e+01	-6.238072e+00
2.278656e+01	-6.276268e+00
2.291818e+01	-6.314376e+00
2.305055e+01	-6.353022e+00
2.318369e+01	-6.391420e+00
2.331760e+01	-6.429707e+00
2.345228e+01	-6.468766e+00
2.358774e+01	-6.507182e+00
2.372398e+01	-6.546475e+00
2.386101e+01	-6.585321e+00
2.399883e+01	-6.624308e+00
2.413745e+01	-6.663583e+00
2.427686e+01	-6.703339e+00
2.441709e+01	-6.742091e+00
2.455812e+01	-6.781767e+00
2.469997e+01	-6.821269e+00
2.484263e+01	-6.861213e+00
2.498612e+01	-6.900438e+00
2.513044e+01	-6.940447e+00
2.527559e+01	-6.980185e+00
2.542158e+01	-7.020755e+00
2.556842e+01	-7.060694e+00
2.571610e+01	-7.101196e+00
2.586463e+01	-7.141266e+00
2.601403e+01	-7.181626e+00
2.616428e+01	-7.221927e+00
2.631541e+01	-7.262709e+00
2.646740e+01	-7.303603e+00
2.662028e+01	-7.344278e+00
2.677404e+01	-7.385073e+00
2.692868e+01	-7.425929e+00
2.708422e+01	-7.467364e+00
2.724066e+01	-7.507890e+00
2.739800e+01	-7.549419e+00
2.755625e+01	-7.590526e+00
2.771541e+01	-7.632059e+00
2.787550e+01	-7.673118e+00
2.803650e+01	-7.714762e+00
2.819844e+01	-7.755865e+00
2.836131e+01	-7.798432e+00
2.852513e+01	-7.839966e+00
2.868989e+01	-7.881785e+00
2.885560e+01	-7.923740e+00
2.902227e+01	-7.965933e+00
2.918990e+01	-8.008035e+00
2.935850e+01	-8.049790e+00
2.952807e+01	-8.091883e+00
2.969863e+01	-8.134532e+00
2.987016e+01	-8.176481e+00
3.004269e+01	-8.219122e+00
3.021622e+01	-8.261667e+00
3.039075e+01	-8.303866e+00
3.056628e+01	-8.347012e+00
3.074283e+01	-8.389946e+00
3.092040e+01	-8.432194e+00
3.109900e+01	-8.476155e+00
3.127862e+01	-8.518632e+00
3.145929e+01	-8.561226e+00
3.164099e+01	-8.604914e+00
3.182375e+01	-8.647673e+00
3.200756e+01	-8.691016e+00
3.219244e+01	-8.733772e+00
3.237838e+01	-8.777442e+00
3.256540e+01	-8.821075e+00
3.275349e+01	-8.864130e+00
3.294268e+01	-8.908169e+00
3.313295e+01	-8.951175e+00
3.332433e+01	-8.995396e+00
3.351681e+01	-9.039205e+00
3.371040e+01	-9.083088e+00
3.390511e+01	-9.126684e+00
3.410094e+01	-9.170473e+00
3.429791e+01	-9.215230e+00
3.449601e+01	-9.259032e+00
3.469526e+01	-9.303045e+00
3.489566e+01	-9.347153e+00
3.509721e+01	-9.391502e+00
3.529993e+01	-9.435781e+00
3.550382e+01	-9.479928e+00
3.570889e+01	-9.524666e+00
3.591515e+01	-9.569075e+00
3.612259e+01	-9.613521e+00
3.633123e+01	-9.658187e+00
3.654108e+01	-9.702552e+00
3.675214e+01	-9.747578e+00
3.696442e+01	-9.792466e+00
3.717792e+01	-9.837100e+00
3.739266e+01	-9.881952e+00
3.760864e+01	-9.926589e+00
3.782587e+01	-9.971913e+00
3.804435e+01	-1.001681e+01
3.826409e+01	-1.006176e+01
3.848510e+01	-1.010675e+01
3.870739e+01	-1.015197e+01
3.893096e+01	-1.019724e+01
3.915583e+01	-1.024264e+01
3.938199e+01	-1.028757e+01
3.960946e+01	-1.033347e+01
3.983824e+01	-1.037901e+01
4.006834e+01	-1.042400e+01
4.029978e+01	-1.047021e+01
4.053255e+01	-1.051529e+01
4.076666e+01	-1.056079e+01
4.100213e+01	-1.060678e+01
4.123896e+01	-1.065222e+01
4.147715e+01	-1.069842e+01
4.171672e+01	-1.074400e+01
4.195767e+01	-1.078918e+01
4.220002e+01	-1.083515e+01
4.244377e+01	-1.088106e+01
4.268892e+01	-1.092711e+01
4.293549e+01	-1.097317e+01
4.318348e+01	-1.101961e+01
4.343291e+01	-1.106527e+01
4.368377e+01	-1.111142e+01
4.393609e+01	-1.115799e+01
4.418986e+01	-1.120348e+01
4.444510e+01	-1.125004e+01
4.470182e+01	-1.129624e+01
4.496001e+01	-1.134271e+01
4.521970e+01	-1.138967e+01
4.548089e+01	-1.143539e+01
4.574358e+01	-1.148185e+01
4.600779e+01	-1.152897e+01
4.627353e+01	-1.157541e+01
4.654081e+01	-1.162113e+01
4.680963e+01	-1.166878e+01
4.708000e+01	-1.171461e+01
4.735193e+01	-1.176075e+01
4.762543e+01	-1.180838e+01
4.790051e+01	-1.185497e+01
4.817719e+01	-1.190110e+01
4.845545e+01	-1.194845e+01
4.873533e+01	-1.199530e+01
4.901682e+01	-1.204214e+01
4.929994e+01	-1.208984e+01
4.958470e+01	-1.213612e+01
4.987110e+01	-1.218353e+01
5.015915e+01	-1.222985e+01
5.044887e+01	-1.227690e+01
5.074026e+01	-1.232423e+01
5.103333e+01	-1.237140e+01
5.132810e+01	-1.241822e+01
5.162457e+01	-1.246615e+01
5.192275e+01	-1.251220e+01
5.222265e+01	-1.255996e+01
5.252429e+01	-1.260783e+01
5.282767e+01	-1.265414e+01
5.313280e+01	-1.270193e+01
5.343969e+01	-1.274931e+01
5.374836e+01	-1.279624e+01
5.405880e+01	-1.284432e+01
5.437105e+01	-1.289216e+01
5.468509e+01	-1.293922e+01
5.500095e+01	-1.298642e+01
5.531863e+01	-1.303405e+01
5.563815e+01	-1.308206e+01
5.595951e+01	-1.312886e+01
5.628273e+01	-1.317760e+01
5.660782e+01	-1.322458e+01
5.693479e+01	-1.327252e+01
5.726364e+01	-1.332005e+01
5.759439e+01	-1.336742e+01
5.792705e+01	-1.341588e+01
5.826164e+01	-1.346327e+01
5.859815e+01	-1.351050e+01
5.893662e+01	-1.355886e+01
5.927703e+01	-1.360609e+01
5.961941e+01	-1.365462e+01
5.996377e+01	-1.370201e+01
6.031012e+01	-1.374951e+01
6.065847e+01	-1.379822e+01
6.100883e+01	-1.384613e+01
6.136121e+01	-1.389435e+01
6.171563e+01	-1.394201e+01
6.207210e+01	-1.398967e+01
6.243063e+01	-1.403799e+01
6.279122e+01	-1.408636e+01
6.315390e+01	-1.413464e+01
6.351868e+01	-1.418207e+01
6.388556e+01	-1.423041e+01
6.425456e+01	-1.427870e+01
6.462569e+01	-1.432606e+01
6.499897e+01	-1.437471e+01
6.537440e+01	-1.442315e+01
6.575200e+01	-1.447104e+01
6.613178e+01	-1.451969e+01
6.651375e+01	-1.456711e+01
6.689793e+01	-1.461624e+01
6.728433e+01	-1.466428e+01
6.767297e+01	-1.471317e+01
6.806384e+01	-1.476165e+01
6.845698e+01	-1.480933e+01
6.885238e+01	-1.485797e+01
6.925007e+01	-1.490634e+01
6.965005e+01	-1.495532e+01
7.005235e+01	-1.500365e+01
7.045697e+01	-1.505138e+01
7.086393e+01	-1.510140e+01
7.127323e+01	-1.514858e+01
7.168490e+01	-1.519766e+01
7.209895e+01	-1.524543e+01
7.251539e+01	-1.529470e+01
7.293424e+01	-1.534288e+01
7.335551e+01	-1.539242e+01
7.377920e+01	-1.543978e+01
7.420535e+01	-1.548899e+01
7.463396e+01	-1.553711e+01
7.506504e+01	-1.558639e+01
7.549861e+01	-1.563468e+01
7.593469e+01	-1.568299e+01
7.637328e+01	-1.573178e+01
7.681441e+01	-1.578056e+01
7.725809e+01	-1.582962e+01
7.770433e+01	-1.587795e+01
7.815315e+01	-1.592635e+01
7.860456e+01	-1.597551e+01
7.905857e+01	-1.602493e+01
7.951521e+01	-1.607318e+01
7.997449e+01	-1.612110e+01
8.043642e+01	-1.617125e+01
8.090102e+01	-1.622061e+01
8.136830e+01	-1.626836e+01
8.183828e+01	-1.631767e+01
8.231097e+01	-1.636503e+01
8.278640e+01	-1.641416e+01
8.326457e+01	-1.646388e+01
8.374550e+01	-1.651294e+01
8.422921e+01	-1.656270e+01
8.471572e+01	-1.661088e+01
8.520503e+01	-1.665883e+01
8.569717e+01	-1.670857e+01
8.619215e+01	-1.675821e+01
8.669000e+01	-1.680592e+01
8.719071e+01	-1.685534e+01
8.769432e+01	-1.690483e+01
8.820084e+01	-1.695385e+01
8.871029e+01	-1.700253e+01
8.922267e+01	-1.705185e+01
8.973802e+01	-1.710044e+01
9.025634e+01	-1.714960e+01
9.077766e+01	-1.719848e+01
9.130199e+01	-1.724736e+01
9.182935e+01	-1.729762e+01
9.235975e+01	-1.734554e+01
9.289321e+01	-1.739540e+01
9.342976e+01	-1.744439e+01
9.396941e+01	-1.749409e+01
9.451217e+01	-1.754161e+01
9.505807e+01	-1.759226e+01
9.560712e+01	-1.764086e+01
9.615934e+01	-1.768952e+01
9.671476e+01	-1.773943e+01
9.727338e+01	-1.778796e+01
9.783522e+01	-1.783701e+01
9.840032e+01	-1.788663e+01
9.896867e+01	-1.793657e+01
9.954031e+01	-1.798600e+01
1.001153e+02	-1.803452e+01
1.006935e+02	-1.808384e+01
1.012751e+02	-1.813233e+01
1.018601e+02	-1.818125e+01
1.024484e+02	-1.823189e+01
1.030402e+02	-1.828200e+01
1.036353e+02	-1.833065e+01
1.042339e+02	-1.838026e+01
1.048360e+02	-1.842801e+01
1.054415e+02	-1.847773e+01
1.060505e+02	-1.852706e+01
1.066631e+02	-1.857736e+01
1.072791e+02	-1.862567e+01
1.078988e+02	-1.867542e+01
1.085220e+02	-1.872583e+01
1.091488e+02	-1.877487e+01
1.097793e+02	-1.882261e+01
1.104133e+02	-1.887249e+01
1.110511e+02	-1.892201e+01
1.116925e+02	-1.897262e+01
1.123376e+02	-1.902134e+01
1.129865e+02	-1.906953e+01
1.136391e+02	-1.912025e+01
1.142955e+02	-1.916921e+01
1.149556e+02	-1.921879e+01
1.156196e+02	-1.926869e+01
1.162874e+02	-1.931734e+01
1.169591e+02	-1.936791e+01
1.176347e+02	-1.941587e+01
1.183141e+02	-1.946601e+01
1.189975e+02	-1.951609e+01
1.196848e+02	-1.956386e+01
1.203761e+02	-1.961470e+01
1.210714e+02	-1.966451e+01
1.217707e+02	-1.971273e+01
1.224740e+02	-1.976347e+01
1.231814e+02	-1.981143e+01
1.238929e+02	-1.986262e+01
1.246085e+02	-1.990993e+01
1.253283e+02	-1.996257e+01
1.260522e+02	-2.001035e+01
1.267802e+02	-2.006067e+01
1.275125e+02	-2.010989e+01
1.282490e+02	-2.016041e+01
1.289898e+02	-2.021014e+01
1.297348e+02	-2.025617e+01
1.304842e+02	-2.030899e+01
1.312378e+02	-2.035780e+01
1.319959e+02	-2.040519e+01
1.327583e+02	-2.045756e+01
1.335251e+02	-2.050574e+01
1.342963e+02	-2.055654e+01
1.350720e+02	-2.060438e+01
1.358522e+02	-2.065512e+01
1.366368e+02	-2.070489e+01
1.374260e+02	-2.075571e+01
1.382198e+02	-2.080336e+01
1.390182e+02	-2.085496e+01
1.398211e+02	-2.090367e+01
1.406287e+02	-2.095348e+01
1.414410e+02	-2.100387e+01
1.422579e+02	-2.105088e+01
1.430796e+02	-2.110204e+01
1.439060e+02	-2.115090e+01
1.447372e+02	-2.120115e+01
1.455732e+02	-2.125139e+01
1.464141e+02	-2.129880e+01
1.472597e+02	-2.134996e+01
1.481103e+02	-2.139802e+01
1.489658e+02	-2.145148e+01
1.498262e+02	-2.149907e+01
1.506916e+02	-2.154828e+01
1.515620e+02	-2.159771e+01
1.524374e+02	-2.164619e+01
1.533179e+02	-2.169516e+01
1.542034e+02	-2.174809e+01
1.550941e+02	-2.179739e+01
1.559899e+02	-2.184862e+01
1.568909e+02	-2.189663e+01
1.577971e+02	-2.194839e+01
1.587085e+02	-2.199544e+01
1.596252e+02	-2.204556e+01
1.605472e+02	-2.209762e+01
1.614745e+02	-2.214598e+01
1.624072e+02	-2.219373e+01
1.633453e+02	-2.224339e+01
1.642887e+02	-2.229317e+01
1.652377e+02	-2.234556e+01
1.661921e+02	-2.239445e+01
1.671520e+02	-2.244236e+01
1.681175e+02	-2.249510e+01
1.690885e+02	-2.254342e+01
1.700651e+02	-2.259213e+01
1.710474e+02	-2.264258e+01
1.720354e+02	-2.269237e+01
1.730291e+02	-2.274192e+01
1.740285e+02	-2.279283e+01
1.750337e+02	-2.284120e+01
1.760446e+02	-2.288995e+01
1.770615e+02	-2.294451e+01
1.780842e+02	-2.299188e+01
1.791128e+02	-2.304315e+01
1.801473e+02	-2.308930e+01
1.811878e+02	-2.314093e+01
1.822344e+02	-2.319308e+01
1.832870e+02	-2.324051e+01
1.843456e+02	-2.329145e+01
1.854104e+02	-2.333833e+01
1.864813e+02	-2.338930e+01
1.875584e+02	-2.343830e+01
1.886418e+02	-2.349135e+01
1.897313e+02	-2.354073e+01
1.908272e+02	-2.358578e+01
1.919294e+02	-2.363848e+01
1.930380e+02	-2.368958e+01
1.941530e+02	-2.373764e+01
1.952744e+02	-2.378721e+01
1.964023e+02	-2.383858e+01
1.975367e+02	-2.388701e+01
1.986777e+02	-2.393794e+01
1.998252e+02	-2.398784e+01
2.009794e+02	-2.403679e+01
2.021403e+02	-2.408787e+01
2.033078e+02	-2.413988e+01
2.044821e+02	-2.418654e+01
2.056632e+02	-2.423928e+01
2.068511e+02	-2.428663e+01
2.080459e+02	-2.433569e+01
2.092475e+02	-2.438826e+01
2.104561e+02	-2.443872e+01
2.116717e+02	-2.448599e+01
2.128943e+02	-2.453650e+01
2.141240e+02	-2.458835e+01
2.153608e+02	-2.463865e+01
2.166047e+02	-2.468738e+01
2.178558e+02	-2.473687e+01
2.191141e+02	-2.478550e+01
2.203797e+02	-2.483608e+01
2.216526e+02	-2.488654e+01
2.229329e+02	-2.493551e+01
2.242205e+02	-2.498251e+01
2.255156e+02	-2.503521e+01
2.268182e+02	-2.508575e+01
2.281283e+02	-2.513670e+01
2.294459e+02	-2.518358e+01
2.307712e+02	-2.523649e+01
2.321041e+02	-2.528467e+01
2.334447e+02	-2.533530e+01
2.347931e+02	-2.538318e+01
2.361493e+02	-2.543742e+01
2.375133e+02	-2.548356e+01
2.388851e+02	-2.553456e+01
2.402649e+02	-2.558622e+01
2.416527e+02	-2.563644e+01
2.430484e+02	-2.568504e+01
2.444523e+02	-2.573390e+01
2.458642e+02	-2.578569e+01
2.472843e+02	-2.583265e+01
2.487126e+02	-2.588600e+01
2.501492e+02	-2.593581e+01
2.515940e+02	-2.598494e+01
2.530472e+02	-2.603708e+01
2.545088e+02	-2.608496e+01
2.559789e+02	-2.613410e+01
2.574574e+02	-2.618419e+01
2.589444e+02	-2.623341e+01
2.604401e+02	-2.628525e+01
2.619444e+02	-2.633230e+01
2.634574e+02	-2.638319e+01
2.649791e+02	-2.643402e+01
2.665096e+02	-2.648237e+01
2.680489e+02	-2.653539e+01
2.695972e+02	-2.658397e+01
2.711544e+02	-2.663566e+01
2.727205e+02	-2.668466e+01
2.742958e+02	-2.673516e+01
2.758801e+02	-2.678747e+01
2.774736e+02	-2.683214e+01
2.790762e+02	-2.688436e+01
2.806882e+02	-2.693541e+01
2.823094e+02	-2.698484e+01
2.839400e+02	-2.703235e+01
2.855800e+02	-2.708265e+01
2.872295e+02	-2.713229e+01
2.888886e+02	-2.718383e+01
2.905572e+02	-2.723111e+01
2.922354e+02	-2.728109e+01
2.939234e+02	-2.733860e+01
2.956211e+02	-2.738084e+01
2.973286e+02	-2.742915e+01
2.990459e+02	-2.748465e+01
3.007732e+02	-2.752999e+01
3.025104e+02	-2.758508e+01
3.042577e+02	-2.763637e+01
3.060151e+02	-2.768526e+01
3.077826e+02	-2.773351e+01
3.095604e+02	-2.778771e+01
3.113484e+02	-2.783614e+01
3.131467e+02	-2.788300e+01
3.149554e+02	-2.793643e+01
3.167746e+02	-2.798331e+01
3.186043e+02	-2.803371e+01
3.204445e+02	-2.808327e+01
3.222954e+02	-2.813513e+01
3.241570e+02	-2.818260e+01
3.260293e+02	-2.823617e+01
3.279124e+02	-2.828673e+01
3.298064e+02	-2.833132e+01
3.317114e+02	-2.837902e+01
3.336273e+02	-2.843179e+01
3.355544e+02	-2.848593e+01
3.374925e+02	-2.853488e+01
3.394418e+02	-2.858637e+01
3.414024e+02	-2.863218e+01
3.433744e+02	-2.868880e+01
3.453577e+02	-2.873506e+01
3.473525e+02	-2.878579e+01
3.493588e+02	-2.883607e+01
3.513766e+02	-2.888144e+01
3.534062e+02	-2.893355e+01
3.554474e+02	-2.898332e+01
3.575005e+02	-2.903050e+01
3.595654e+02	-2.908626e+01
3.616422e+02	-2.913500e+01
3.637311e+02	-2.918741e+01
3.658320e+02	-2.923234e+01
3.679450e+02	-2.928277e+01
3.700702e+02	-2.933648e+01
3.722077e+02	-2.938062e+01
3.743576e+02	-2.943624e+01
3.765199e+02	-2.948582e+01
3.786946e+02	-2.953706e+01
3.808820e+02	-2.958030e+01
3.830819e+02	-2.963361e+01
3.852946e+02	-2.968549e+01
3.875200e+02	-2.973447e+01
3.897583e+02	-2.978223e+01
3.920096e+02	-2.983819e+01
3.942738e+02	-2.988118e+01
3.965511e+02	-2.993712e+01
3.988416e+02	-2.998497e+01
4.011452e+02	-3.003844e+01
4.034622e+02	-3.008511e+01
4.057926e+02	-3.013872e+01
4.081365e+02	-3.018397e+01
4.104938e+02	-3.023807e+01
4.128648e+02	-3.028394e+01
4.152495e+02	-3.034116e+01
4.176480e+02	-3.039120e+01
4.200603e+02	-3.043421e+01
4.224866e+02	-3.048763e+01
4.249268e+02	-3.053828e+01
4.273812e+02	-3.059083e+01
4.298497e+02	-3.064321e+01
4.323325e+02	-3.068530e+01
4.348297e+02	-3.074254e+01
4.373412e+02	-3.078941e+01
4.398673e+02	-3.084184e+01
4.424079e+02	-3.088763e+01
4.449633e+02	-3.094045e+01
4.475334e+02	-3.098657e+01
4.501183e+02	-3.103986e+01
4.527182e+02	-3.109206e+01
4.553330e+02	-3.114439e+01
4.579630e+02	-3.118481e+01
4.606082e+02	-3.123672e+01
4.632687e+02	-3.128813e+01
4.659445e+02	-3.134228e+01
4.686358e+02	-3.139197e+01
4.713426e+02	-3.143841e+01
4.740650e+02	-3.149370e+01
4.768032e+02	-3.153892e+01
4.795572e+02	-3.159336e+01
4.823271e+02	-3.163964e+01
4.851130e+02	-3.168370e+01
4.879150e+02	-3.174196e+01
4.907332e+02	-3.178979e+01
4.935676e+02	-3.184125e+01
4.964185e+02	-3.189107e+01
4.992858e+02	-3.194707e+01
5.021696e+02	-3.198874e+01
5.050701e+02	-3.204787e+01
5.079874e+02	-3.209445e+01
5.109215e+02	-3.214652e+01
5.138726e+02	-3.219055e+01
5.168407e+02	-3.225217e+01
5.198259e+02	-3.229457e+01
5.228284e+02	-3.234447e+01
5.258482e+02	-3.240159e+01
5.288855e+02	-3.244586e+01
5.319403e+02	-3.249119e+01
5.350128e+02	-3.254647e+01
5.381030e+02	-3.260050e+01
5.412111e+02	-3.264207e+01
5.443371e+02	-3.269363e+01
5.474812e+02	-3.274599e+01
5.506434e+02	-3.279595e+01
5.538239e+02	-3.284635e+01
5.570228e+02	-3.289951e+01
5.602401e+02	-3.294504e+01
5.634760e+02	-3.300424e+01
5.667306e+02	-3.304304e+01
5.700040e+02	-3.309985e+01
5.732964e+02	-3.314267e+01
5.766077e+02	-3.319703e+01
5.799382e+02	-3.323944e+01
5.832879e+02	-3.329938e+01
5.866569e+02	-3.334494e+01
5.900454e+02	-3.339187e+01
5.934535e+02	-3.344671e+01
5.968813e+02	-3.349954e+01
6.003288e+02	-3.355341e+01
6.037963e+02	-3.359859e+01
6.072838e+02	-3.364512e+01
6.107914e+02	-3.370854e+01
6.143194e+02	-3.374444e+01
6.178676e+02	-3.380498e+01
6.214364e+02	-3.385009e+01
6.250258e+02	-3.390373e+01
6.286359e+02	-3.395557e+01
6.322669e+02	-3.399631e+01
6.359189e+02	-3.405351e+01
6.395919e+02	-3.410663e+01
6.432862e+02	-3.415512e+01
6.470017e+02	-3.420539e+01
6.507388e+02	-3.425136e+01
6.544974e+02	-3.430436e+01
6.582778e+02	-3.435517e+01
6.620800e+02	-3.440671e+01
6.659041e+02	-3.445200e+01
6.697504e+02	-3.450788e+01
6.736188e+02	-3.456652e+01
6.775096e+02	-3.460490e+01
6.814229e+02	-3.466274e+01
6.853587e+02	-3.470736e+01
6.893173e+02	-3.475247e+01
6.932988e+02	-3.480631e+01
6.973033e+02	-3.485068e+01
7.013309e+02	-3.490534e+01
