Frequency(Hz)	Magnitude(dB)
1.000000e+01	-2.071965e+00
1.005776e+01	-2.091086e+00
1.011585e+01	-2.110351e+00
1.017428e+01	-2.129380e+00
1.023305e+01	-2.149012e+00
1.029215e+01	-2.168547e+00
1.035160e+01	-2.188332e+00
1.041139e+01	-2.208191e+00
1.047153e+01	-2.228279e+00
1.053201e+01	-2.248369e+00
1.059284e+01	-2.268616e+00
1.065403e+01	-2.288956e+00
1.071556e+01	-2.309741e+00
1.077746e+01	-2.330375e+00
1.083971e+01	-2.351277e+00
1.090232e+01	-2.372098e+00
1.096529e+01	-2.393359e+00
1.102862e+01	-2.414739e+00
1.109232e+01	-2.435952e+00
1.115639e+01	-2.457633e+00
1.122083e+01	-2.479292e+00
1.128564e+01	-2.500921e+00
1.135083e+01	-2.522926e+00
1.141639e+01	-2.545204e+00
1.148233e+01	-2.567176e+00
1.154865e+01	-2.589741e+00
1.161536e+01	-2.612463e+00
1.168245e+01	-2.635053e+00
1.174992e+01	-2.657931e+00
1.181779e+01	-2.680974e+00
1.188605e+01	-2.703904e+00
1.195470e+01	-2.727379e+00
1.202375e+01	-2.750716e+00
1.209320e+01	-2.774224e+00
1.216305e+01	-2.798008e+00
1.223330e+01	-2.821746e+00
1.230396e+01	-2.845704e+00
1.237503e+01	-2.869653e+00
1.244651e+01	-2.893829e+00
1.251840e+01	-2.918511e+00
1.259070e+01	-2.943020e+00
1.266343e+01	-2.967656e+00
1.273657e+01	-2.992605e+00
1.281014e+01	-3.017536e+00
1.288413e+01	-3.042668e+00
1.295855e+01	-3.067881e+00
1.303339e+01	-3.093427e+00
1.310867e+01	-3.118850e+00
1.318439e+01	-3.144418e+00
1.326054e+01	-3.170319e+00
1.333713e+01	-3.196674e+00
1.341417e+01	-3.222583e+00
1.349165e+01	-3.248872e+00
1.356958e+01	-3.275286e+00
1.364795e+01	-3.301766e+00
1.372678e+01	-3.328422e+00
1.380607e+01	-3.355387e+00
1.388581e+01	-3.382485e+00
1.396602e+01	-3.409566e+00
1.404668e+01	-3.436816e+00
1.412782e+01	-3.463934e+00
1.420942e+01	-3.491884e+00
1.429149e+01	-3.519474e+00
1.437404e+01	-3.547271e+00
1.445706e+01	-3.575227e+00
1.454057e+01	-3.603364e+00
1.462455e+01	-3.631661e+00
1.470902e+01	-3.659756e+00
1.479398e+01	-3.688702e+00
1.487943e+01	-3.717397e+00
1.496537e+01	-3.746334e+00
1.505181e+01	-3.775162e+00
1.513875e+01	-3.804449e+00
1.522619e+01	-3.833488e+00
1.531414e+01	-3.862558e+00
1.540259e+01	-3.892669e+00
1.549156e+01	-3.922100e+00
1.558103e+01	-3.952295e+00
1.567103e+01	-3.981972e+00
1.576155e+01	-4.012107e+00
1.585258e+01	-4.042321e+00
1.594415e+01	-4.072558e+00
1.603624e+01	-4.102947e+00
1.612886e+01	-4.133747e+00
1.622202e+01	-4.164441e+00
1.631572e+01	-4.195473e+00
1.640996e+01	-4.226847e+00
1.650474e+01	-4.257779e+00
1.660008e+01	-4.288929e+00
1.669596e+01	-4.320487e+00
1.679239e+01	-4.351909e+00
1.688938e+01	-4.383864e+00
1.698694e+01	-4.415820e+00
1.708505e+01	-4.447955e+00
1.718373e+01	-4.480120e+00
1.728299e+01	-4.511875e+00
1.738281e+01	-4.544401e+00
1.748322e+01	-4.577077e+00
1.758420e+01	-4.609902e+00
1.768576e+01	-4.642738e+00
1.778792e+01	-4.675388e+00
1.789066e+01	-4.708479e+00
1.799399e+01	-4.741591e+00
1.809793e+01	-4.774645e+00
1.820246e+01	-4.808545e+00
1.830760e+01	-4.841832e+00
1.841334e+01	-4.875564e+00
1.851969e+01	-4.909364e+00
1.862666e+01	-4.943216e+00
1.873425e+01	-4.977058e+00
1.884246e+01	-5.011504e+00
1.895129e+01	-5.046003e+00
1.906075e+01	-5.080557e+00
1.917085e+01	-5.115156e+00
1.928158e+01	-5.149544e+00
1.939295e+01	-5.184684e+00
1.950496e+01	-5.219193e+00
1.961762e+01	-5.254399e+00
1.973093e+01	-5.289334e+00
1.984490e+01	-5.324744e+00
1.995952e+01	-5.360385e+00
2.007480e+01	-5.395857e+00
2.019076e+01	-5.431277e+00
2.030738e+01	-5.467261e+00
2.042467e+01	-5.502890e+00
2.054264e+01	-5.538906e+00
2.066130e+01	-5.575103e+00
2.078064e+01	-5.611142e+00
2.090066e+01	-5.647769e+00
2.102139e+01	-5.683681e+00
2.114280e+01	-5.720731e+00
2.126492e+01	-5.757401e+00
2.138775e+01	-5.794167e+00
2.151128e+01	-5.831118e+00
2.163553e+01	-5.867938e+00
2.176050e+01	-5.905166e+00
2.188619e+01	-5.942397e+00
2.201260e+01	-5.979764e+00
2.213974e+01	-6.017336e+00
2.226762e+01	-6.055038e+00
2.239624e+01	-6.092653e+00
2.252560e+01	-6.130331e+00
2.265571e+01	-6.168320e+00
2.278656e+01	-6.206069e+00
2.291818e+01	-6.244388e+00
2.305055e+01	-6.282434e+00
2.318369e+01	-6.321075e+00
2.331760e+01	-6.359104e+00
2.345228e+01	-6.397481e+00
2.358774e+01	-6.436306e+00
2.372398e+01	-6.474725e+00
2.386101e+01	-6.513697e+00
2.399883e+01	-6.552674e+00
2.413745e+01	-6.591679e+00
2.427686e+01	-6.630794e+00
2.441709e+01	-6.669898e+00
2.455812e+01	-6.709357e+00
2.469997e+01	-6.748757e+00
2.484263e+01	-6.788536e+00
2.498612e+01	-6.827550e+00
2.513044e+01	-6.867324e+00
2.527559e+01	-6.907067e+00
2.542158e+01	-6.947240e+00
2.556842e+01	-6.987238e+00
2.571610e+01	-7.027151e+00
2.586463e+01	-7.067689e+00
2.601403e+01	-7.107781e+00
2.616428e+01	-7.148261e+00
2.631541e+01	-7.188206e+00
2.646740e+01	-7.228672e+00
2.662028e+01	-7.269291e+00
2.677404e+01	-7.310244e+00
2.692868e+01	-7.350798e+00
2.708422e+01	-7.391741e+00
2.724066e+01	-7.432746e+00
2.739800e+01	-7.473714e+00
2.755625e+01	-7.514662e+00
2.771541e+01	-7.556047e+00
2.787550e+01	-7.597313e+00
2.803650e+01	-7.638582e+00
2.819844e+01	-7.680003e+00
2.836131e+01	-7.721751e+00
2.852513e+01	-7.763334e+00
2.868989e+01	-7.804740e+00
2.885560e+01	-7.846874e+00
2.902227e+01	-7.888321e+00
2.918990e+01	-7.930807e+00
2.935850e+01	-7.972748e+00
2.952807e+01	-8.014592e+00
2.969863e+01	-8.056899e+00
2.987016e+01	-8.098724e+00
3.004269e+01	-8.141307e+00
3.021622e+01	-8.184035e+00
3.039075e+01	-8.226214e+00
3.056628e+01	-8.268229e+00
3.074283e+01	-8.311548e+00
3.092040e+01	-8.354176e+00
3.109900e+01	-8.396590e+00
3.127862e+01	-8.440174e+00
3.145929e+01	-8.482301e+00
3.164099e+01	-8.525683e+00
3.182375e+01	-8.568588e+00
3.200756e+01	-8.611732e+00
3.219244e+01	-8.654708e+00
3.237838e+01	-8.697881e+00
3.256540e+01	-8.741621e+00
3.275349e+01	-8.784793e+00
3.294268e+01	-8.828354e+00
3.313295e+01	-8.871682e+00
3.332433e+01	-8.915560e+00
3.351681e+01	-8.958506e+00
3.371040e+01	-9.002406e+00
3.390511e+01	-9.046110e+00
3.410094e+01	-9.090014e+00
3.429791e+01	-9.134176e+00
3.449601e+01	-9.178034e+00
3.469526e+01	-9.221733e+00
3.489566e+01	-9.266153e+00
3.509721e+01	-9.310603e+00
3.529993e+01	-9.354437e+00
3.550382e+01	-9.398643e+00
3.570889e+01	-9.442807e+00
3.591515e+01	-9.487563e+00
3.612259e+01	-9.532336e+00
3.633123e+01	-9.576322e+00
3.654108e+01	-9.620981e+00
3.675214e+01	-9.666038e+00
3.696442e+01	-9.709613e+00
3.717792e+01	-9.754376e+00
3.739266e+01	-9.799196e+00
3.760864e+01	-9.844583e+00
3.782587e+01	-9.888858e+00
3.804435e+01	-9.933658e+00
3.826409e+01	-9.979346e+00
3.848510e+01	-1.002430e+01
3.870739e+01	-1.006874e+01
3.893096e+01	-1.011429e+01
3.915583e+01	-1.015925e+01
3.938199e+01	-1.020444e+01
3.960946e+01	-1.025003e+01
3.983824e+01	-1.029502e+01
4.006834e+01	-1.034126e+01
4.029978e+01	-1.038628e+01
4.053255e+01	-1.043128e+01
4.076666e+01	-1.047739e+01
4.100213e+01	-1.052292e+01
4.123896e+01	-1.056853e+01
4.147715e+01	-1.061374e+01
4.171672e+01	-1.066025e+01
4.195767e+01	-1.070563e+01
4.220002e+01	-1.075125e+01
4.244377e+01	-1.079708e+01
4.268892e+01	-1.084315e+01
4.293549e+01	-1.088895e+01
4.318348e+01	-1.093468e+01
4.343291e+01	-1.098068e+01
4.368377e+01	-1.102698e+01
4.393609e+01	-1.107297e+01
4.418986e+01	-1.111927e+01
4.444510e+01	-1.116552e+01
4.470182e+01	-1.121124e+01
4.496001e+01	-1.125810e+01
4.521970e+01	-1.130413e+01
4.548089e+01	-1.135038e+01
4.574358e+01	-1.139735e+01
4.600779e+01	-1.144304e+01
4.627353e+01	-1.148986e+01
4.654081e+01	-1.153699e+01
4.680963e+01	-1.158274e+01
4.708000e+01	-1.162889e+01
4.735193e+01	-1.167650e+01
4.762543e+01	-1.172215e+01
4.790051e+01	-1.176897e+01
4.817719e+01	-1.181666e+01
4.845545e+01	-1.186262e+01
4.873533e+01	-1.190960e+01
4.901682e+01	-1.195560e+01
4.929994e+01	-1.200288e+01
4.958470e+01	-1.204957e+01
4.987110e+01	-1.209691e+01
5.015915e+01	-1.214427e+01
5.044887e+01	-1.219105e+01
5.074026e+01	-1.223787e+01
5.103333e+01	-1.228466e+01
5.132810e+01	-1.233259e+01
5.162457e+01	-1.237933e+01
5.192275e+01	-1.242583e+01
5.222265e+01	-1.247347e+01
5.252429e+01	-1.252103e+01
5.282767e+01	-1.256836e+01
5.313280e+01	-1.261497e+01
5.343969e+01	-1.266358e+01
5.374836e+01	-1.270951e+01
5.405880e+01	-1.275771e+01
5.437105e+01	-1.280483e+01
5.468509e+01	-1.285233e+01
5.500095e+01	-1.289942e+01
5.531863e+01	-1.294683e+01
5.563815e+01	-1.299380e+01
5.595951e+01	-1.304201e+01
5.628273e+01	-1.309004e+01
5.660782e+01	-1.313662e+01
5.693479e+01	-1.318430e+01
5.726364e+01	-1.323310e+01
5.759439e+01	-1.328022e+01
5.792705e+01	-1.332854e+01
5.826164e+01	-1.337520e+01
5.859815e+01	-1.342286e+01
5.893662e+01	-1.347095e+01
5.927703e+01	-1.351902e+01
5.961941e+01	-1.356708e+01
5.996377e+01	-1.361389e+01
6.031012e+01	-1.366265e+01
6.065847e+01	-1.371024e+01
6.100883e+01	-1.375757e+01
6.136121e+01	-1.380585e+01
6.171563e+01	-1.385358e+01
6.207210e+01	-1.390202e+01
6.243063e+01	-1.394954e+01
6.279122e+01	-1.399733e+01
6.315390e+01	-1.404592e+01
6.351868e+01	-1.409382e+01
6.388556e+01	-1.414131e+01
6.425456e+01	-1.419068e+01
6.462569e+01	-1.423751e+01
6.499897e+01	-1.428598e+01
6.537440e+01	-1.433459e+01
6.575200e+01	-1.438339e+01
6.613178e+01	-1.443168e+01
6.651375e+01	-1.447958e+01
6.689793e+01	-1.452661e+01
6.728433e+01	-1.457621e+01
6.767297e+01	-1.462513e+01
6.806384e+01	-1.467189e+01
6.845698e+01	-1.472037e+01
6.885238e+01	-1.476872e+01
6.925007e+01	-1.481782e+01
6.965005e+01	-1.486612e+01
7.005235e+01	-1.491416e+01
7.045697e+01	-1.496262e+01
7.086393e+01	-1.501044e+01
7.127323e+01	-1.506012e+01
7.168490e+01	-1.510769e+01
7.209895e+01	-1.515685e+01
7.251539e+01	-1.520503e+01
7.293424e+01	-1.525369e+01
7.335551e+01	-1.530190e+01
7.377920e+01	-1.535121e+01
7.420535e+01	-1.539937e+01
7.463396e+01	-1.544854e+01
7.506504e+01	-1.549730e+01
7.549861e+01	-1.554571e+01
7.593469e+01	-1.559421e+01
7.637328e+01	-1.564244e+01
7.681441e+01	-1.569186e+01
7.725809e+01	-1.573999e+01
7.770433e+01	-1.578875e+01
7.815315e+01	-1.583810e+01
7.860456e+01	-1.588631e+01
7.905857e+01	-1.593514e+01
7.951521e+01	-1.598327e+01
7.997449e+01	-1.603083e+01
8.043642e+01	-1.608111e+01
8.090102e+01	-1.612965e+01
8.136830e+01	-1.617869e+01
8.183828e+01	-1.622832e+01
8.231097e+01	-1.627685e+01
8.278640e+01	-1.632433e+01
8.326457e+01	-1.637297e+01
8.374550e+01	-1.642258e+01
8.422921e+01	-1.647214e+01
8.471572e+01	-1.652128e+01
8.520503e+01	-1.657002e+01
8.569717e+01	-1.661877e+01
8.619215e+01	-1.666776e+01
8.669000e+01	-1.671664e+01
8.719071e+01	-1.676558e+01
8.769432e+01	-1.681479e+01
8.820084e+01	-1.686358e+01
8.871029e+01	-1.691255e+01
8.922267e+01	-1.696139e+01
8.973802e+01	-1.701034e+01
9.025634e+01	-1.706086e+01
9.077766e+01	-1.710901e+01
9.130199e+01	-1.715776e+01
9.182935e+01	-1.720642e+01
9.235975e+01	-1.725648e+01
9.289321e+01	-1.730582e+01
9.342976e+01	-1.735447e+01
9.396941e+01	-1.740332e+01
9.451217e+01	-1.745144e+01
9.505807e+01	-1.750088e+01
9.560712e+01	-1.755066e+01
9.615934e+01	-1.760052e+01
9.671476e+01	-1.765057e+01
9.727338e+01	-1.769785e+01
9.783522e+01	-1.774766e+01
9.840032e+01	-1.779700e+01
9.896867e+01	-1.784486e+01
9.954031e+01	-1.789510e+01
1.001153e+02	-1.794414e+01
1.006935e+02	-1.799272e+01
1.012751e+02	-1.804219e+01
1.018601e+02	-1.809175e+01
1.024484e+02	-1.814252e+01
1.030402e+02	-1.819054e+01
1.036353e+02	-1.824045e+01
1.042339e+02	-1.828989e+01
1.048360e+02	-1.833862e+01
1.054415e+02	-1.838798e+01
1.060505e+02	-1.843653e+01
1.066631e+02	-1.848531e+01
1.072791e+02	-1.853577e+01
1.078988e+02	-1.858399e+01
1.085220e+02	-1.863373e+01
1.091488e+02	-1.868300e+01
1.097793e+02	-1.873326e+01
1.104133e+02	-1.878333e+01
1.110511e+02	-1.883137e+01
1.116925e+02	-1.888008e+01
1.123376e+02	-1.893044e+01
1.129865e+02	-1.898036e+01
1.136391e+02	-1.902903e+01
1.142955e+02	-1.907902e+01
1.149556e+02	-1.912830e+01
1.156196e+02	-1.917834e+01
1.162874e+02	-1.922650e+01
1.169591e+02	-1.927626e+01
1.176347e+02	-1.932418e+01
1.183141e+02	-1.937560e+01
1.189975e+02	-1.942524e+01
1.196848e+02	-1.947394e+01
1.203761e+02	-1.952414e+01
1.210714e+02	-1.957452e+01
1.217707e+02	-1.962286e+01
1.224740e+02	-1.967188e+01
1.231814e+02	-1.972062e+01
1.238929e+02	-1.977280e+01
1.246085e+02	-1.981928e+01
1.253283e+02	-1.987041e+01
1.260522e+02	-1.992039e+01
1.267802e+02	-1.997137e+01
1.275125e+02	-2.001780e+01
1.282490e+02	-2.006750e+01
1.289898e+02	-2.011672e+01
1.297348e+02	-2.016924e+01
1.304842e+02	-2.021698e+01
1.312378e+02	-2.026723e+01
1.319959e+02	-2.031763e+01
1.327583e+02	-2.036530e+01
1.335251e+02	-2.041494e+01
1.342963e+02	-2.046401e+01
1.350720e+02	-2.051442e+01
1.358522e+02	-2.056158e+01
1.366368e+02	-2.061279e+01
1.374260e+02	-2.066234e+01
1.382198e+02	-2.071277e+01
1.390182e+02	-2.076100e+01
1.398211e+02	-2.081164e+01
1.406287e+02	-2.086133e+01
1.414410e+02	-2.091101e+01
1.422579e+02	-2.096135e+01
1.430796e+02	-2.101260e+01
1.439060e+02	-2.106162e+01
1.447372e+02	-2.111197e+01
1.455732e+02	-2.116073e+01
1.464141e+02	-2.120991e+01
1.472597e+02	-2.125845e+01
1.481103e+02	-2.130812e+01
1.489658e+02	-2.135690e+01
1.498262e+02	-2.140646e+01
1.506916e+02	-2.145841e+01
1.515620e+02	-2.150682e+01
1.524374e+02	-2.155756e+01
1.533179e+02	-2.160684e+01
1.542034e+02	-2.165720e+01
1.550941e+02	-2.170738e+01
1.559899e+02	-2.175399e+01
1.568909e+02	-2.180501e+01
1.577971e+02	-2.185450e+01
1.587085e+02	-2.190702e+01
1.596252e+02	-2.195495e+01
1.605472e+02	-2.200581e+01
1.614745e+02	-2.205512e+01
1.624072e+02	-2.210427e+01
1.633453e+02	-2.215275e+01
1.642887e+02	-2.220237e+01
1.652377e+02	-2.225211e+01
1.661921e+02	-2.230144e+01
1.671520e+02	-2.235301e+01
1.681175e+02	-2.240368e+01
1.690885e+02	-2.245137e+01
1.700651e+02	-2.250154e+01
1.710474e+02	-2.255136e+01
1.720354e+02	-2.260122e+01
1.730291e+02	-2.265251e+01
1.740285e+02	-2.270065e+01
1.750337e+02	-2.275009e+01
1.760446e+02	-2.280094e+01
1.770615e+02	-2.284838e+01
1.780842e+02	-2.289975e+01
1.791128e+02	-2.294973e+01
1.801473e+02	-2.299975e+01
1.811878e+02	-2.304824e+01
1.822344e+02	-2.309668e+01
1.832870e+02	-2.314837e+01
1.843456e+02	-2.319986e+01
1.854104e+02	-2.324658e+01
1.864813e+02	-2.329932e+01
1.875584e+02	-2.334826e+01
1.886418e+02	-2.339978e+01
1.897313e+02	-2.344761e+01
1.908272e+02	-2.349705e+01
1.919294e+02	-2.354603e+01
1.930380e+02	-2.359833e+01
1.941530e+02	-2.364908e+01
1.952744e+02	-2.369809e+01
1.964023e+02	-2.374933e+01
1.975367e+02	-2.379812e+01
1.986777e+02	-2.384771e+01
1.998252e+02	-2.389623e+01
2.009794e+02	-2.394438e+01
2.021403e+02	-2.399668e+01
2.033078e+02	-2.404609e+01
2.044821e+02	-2.409742e+01
2.056632e+02	-2.414444e+01
2.068511e+02	-2.419577e+01
2.080459e+02	-2.424942e+01
2.092475e+02	-2.429612e+01
2.104561e+02	-2.434714e+01
2.116717e+02	-2.439544e+01
2.128943e+02	-2.444749e+01
2.141240e+02	-2.449576e+01
2.153608e+02	-2.454509e+01
2.166047e+02	-2.459700e+01
2.178558e+02	-2.464435e+01
2.191141e+02	-2.469594e+01
2.203797e+02	-2.474693e+01
2.216526e+02	-2.479301e+01
2.229329e+02	-2.484520e+01
2.242205e+02	-2.489442e+01
2.255156e+02	-2.494344e+01
2.268182e+02	-2.499462e+01
2.281283e+02	-2.504295e+01
2.294459e+02	-2.509319e+01
2.307712e+02	-2.514505e+01
2.321041e+02	-2.519265e+01
2.334447e+02	-2.524329e+01
2.347931e+02	-2.529297e+01
2.361493e+02	-2.534350e+01
2.375133e+02	-2.539369e+01
2.388851e+02	-2.544402e+01
2.402649e+02	-2.549364e+01
2.416527e+02	-2.554138e+01
2.430484e+02	-2.559400e+01
2.444523e+02	-2.564617e+01
2.458642e+02	-2.569002e+01
2.472843e+02	-2.574563e+01
2.487126e+02	-2.579100e+01
2.501492e+02	-2.584391e+01
2.515940e+02	-2.589502e+01
2.530472e+02	-2.594111e+01
2.545088e+02	-2.599615e+01
2.559789e+02	-2.604330e+01
2.574574e+02	-2.609182e+01
2.589444e+02	-2.614249e+01
2.604401e+02	-2.619272e+01
2.619444e+02	-2.623925e+01
2.634574e+02	-2.629385e+01
2.649791e+02	-2.634084e+01
2.665096e+02	-2.639184e+01
2.680489e+02	-2.644298e+01
2.695972e+02	-2.649073e+01
2.711544e+02	-2.654501e+01
2.727205e+02	-2.659405e+01
2.742958e+02	-2.664249e+01
2.758801e+02	-2.669387e+01
2.774736e+02	-2.674295e+01
2.790762e+02	-2.679111e+01
2.806882e+02	-2.684115e+01
2.823094e+02	-2.688983e+01
2.839400e+02	-2.694307e+01
2.855800e+02	-2.699396e+01
2.872295e+02	-2.704046e+01
2.888886e+02	-2.709617e+01
2.905572e+02	-2.714353e+01
2.922354e+02	-2.719206e+01
2.939234e+02	-2.724109e+01
2.956211e+02	-2.729152e+01
2.973286e+02	-2.734459e+01
2.990459e+02	-2.739099e+01
3.007732e+02	-2.744321e+01
3.025104e+02	-2.749061e+01
3.042577e+02	-2.754297e+01
3.060151e+02	-2.759550e+01
3.077826e+02	-2.764085e+01
3.095604e+02	-2.769275e+01
3.113484e+02	-2.774014e+01
3.131467e+02	-2.779143e+01
3.149554e+02	-2.784498e+01
3.167746e+02	-2.789385e+01
3.186043e+02	-2.794087e+01
3.204445e+02	-2.799186e+01
3.222954e+02	-2.804032e+01
3.241570e+02	-2.809273e+01
3.260293e+02	-2.814067e+01
3.279124e+02	-2.819218e+01
3.298064e+02	-2.824125e+01
3.317114e+02	-2.829585e+01
3.336273e+02	-2.834347e+01
3.355544e+02	-2.839187e+01
3.374925e+02	-2.844450e+01
3.394418e+02	-2.849143e+01
3.414024e+02	-2.854466e+01
3.433744e+02	-2.859274e+01
3.453577e+02	-2.864505e+01
3.473525e+02	-2.869105e+01
3.493588e+02	-2.874486e+01
3.513766e+02	-2.879433e+01
3.534062e+02	-2.884697e+01
3.554474e+02	-2.889770e+01
3.575005e+02	-2.894444e+01
3.595654e+02	-2.899364e+01
3.616422e+02	-2.904489e+01
3.637311e+02	-2.909496e+01
3.658320e+02	-2.914178e+01
3.679450e+02	-2.919361e+01
3.700702e+02	-2.924515e+01
3.722077e+02	-2.929463e+01
3.743576e+02	-2.934361e+01
3.765199e+02	-2.939036e+01
3.786946e+02	-2.944352e+01
3.808820e+02	-2.948985e+01
3.830819e+02	-2.953926e+01
3.852946e+02	-2.959386e+01
3.875200e+02	-2.964238e+01
3.897583e+02	-2.969364e+01
3.920096e+02	-2.974024e+01
3.942738e+02	-2.979245e+01
3.965511e+02	-2.984453e+01
3.988416e+02	-2.989184e+01
4.011452e+02	-2.994414e+01
4.034622e+02	-2.999608e+01
4.057926e+02	-3.004490e+01
4.081365e+02	-3.009163e+01
4.104938e+02	-3.014862e+01
4.128648e+02	-3.019798e+01
4.152495e+02	-3.025037e+01
4.176480e+02	-3.029771e+01
4.200603e+02	-3.034495e+01
4.224866e+02	-3.039217e+01
4.249268e+02	-3.044485e+01
4.273812e+02	-3.049404e+01
4.298497e+02	-3.054171e+01
4.323325e+02	-3.059508e+01
4.348297e+02	-3.063942e+01
4.373412e+02	-3.069752e+01
4.398673e+02	-3.074655e+01
4.424079e+02	-3.080107e+01
4.449633e+02	-3.084702e+01
4.475334e+02	-3.089819e+01
4.501183e+02	-3.094789e+01
4.527182e+02	-3.099624e+01
4.553330e+02	-3.105166e+01
4.579630e+02	-3.110615e+01
4.606082e+02	-3.114683e+01
4.632687e+02	-3.120090e+01
4.659445e+02	-3.124917e+01
4.686358e+02	-3.129732e+01
4.713426e+02	-3.135581e+01
4.740650e+02	-3.139891e+01
4.768032e+02	-3.144838e+01
4.795572e+02	-3.149808e+01
4.823271e+02	-3.154897e+01
4.851130e+02	-3.159994e+01
4.879150e+02	-3.164948e+01
4.907332e+02	-3.170155e+01
4.935676e+02	-3.175509e+01
4.964185e+02	-3.179790e+01
4.992858e+02	-3.185466e+01
5.021696e+02	-3.190338e+01
5.050701e+02	-3.195563e+01
5.079874e+02	-3.200305e+01
5.109215e+02	-3.205516e+01
5.138726e+02	-3.210431e+01
5.168407e+02	-3.215364e+01
5.198259e+02	-3.220216e+01
5.228284e+02	-3.225539e+01
5.258482e+02	-3.230072e+01
5.288855e+02	-3.235036e+01
5.319403e+02	-3.239892e+01
5.350128e+02	-3.245493e+01
5.381030e+02	-3.250271e+01
5.412111e+02	-3.255948e+01
5.443371e+02	-3.259939e+01
5.474812e+02	-3.264996e+01
5.506434e+02	-3.270073e+01
5.538239e+02	-3.275357e+01
5.570228e+02	-3.280055e+01
5.602401e+02	-3.286068e+01
5.634760e+02	-3.290339e+01
5.667306e+02	-3.296040e+01
5.700040e+02	-3.300966e+01
5.732964e+02	-3.305507e+01
5.766077e+02	-3.309903e+01
5.799382e+02	-3.315527e+01
5.832879e+02	-3.320748e+01
5.866569e+02	-3.325308e+01
5.900454e+02	-3.330214e+01
5.934535e+02	-3.336358e+01
5.968813e+02	-3.341317e+01
6.003288e+02	-3.346663e+01
6.037963e+02	-3.350839e+01
6.072838e+02	-3.355930e+01
6.107914e+02	-3.361046e+01
6.143194e+02	-3.365837e+01
6.178676e+02	-3.370854e+01
6.214364e+02	-3.375903e+01
6.250258e+02	-3.380280e+01
6.286359e+02	-3.386470e+01
6.322669e+02	-3.391685e+01
6.359189e+02	-3.396350e+01
6.395919e+02	-3.401150e+01
6.432862e+02	-3.405918e+01
6.470017e+02	-3.411826e+01
6.507388e+02	-3.416522e+01
6.544974e+02	-3.420258e+01
6.582778e+02	-3.426944e+01
6.620800e+02	-3.430959e+01
6.659041e+02	-3.435980e+01
6.697504e+02	-3.441168e+01
6.736188e+02	-3.446585e+01
6.775096e+02	-3.451619e+01
6.814229e+02	-3.456691e+01
6.853587e+02	-3.461288e+01
6.893173e+02	-3.467266e+01
6.932988e+02	-3.471753e+01
6.973033e+02	-3.476356e+01
7.013309e+02	-3.482326e+01
