Frequency(Hz)	Magnitude(dB)
1.000000e+01	-1.574503e-05
1.005776e+01	-1.592744e-05
1.011585e+01	-1.611196e-05
1.017428e+01	-1.629862e-05
1.023305e+01	-1.648745e-05
1.029215e+01	-1.667846e-05
1.035160e+01	-1.687168e-05
1.041139e+01	-1.706714e-05
1.047153e+01	-1.726487e-05
1.053201e+01	-1.746489e-05
1.059284e+01	-1.766723e-05
1.065403e+01	-1.787190e-05
1.071556e+01	-1.807895e-05
1.077746e+01	-1.828840e-05
1.083971e+01	-1.850028e-05
1.090232e+01	-1.871461e-05
1.096529e+01	-1.893142e-05
1.102862e+01	-1.915075e-05
1.109232e+01	-1.937262e-05
1.115639e+01	-1.959705e-05
1.122083e+01	-1.982409e-05
1.128564e+01	-2.005376e-05
1.135083e+01	-2.028608e-05
1.141639e+01	-2.052110e-05
1.148233e+01	-2.075885e-05
1.154865e+01	-2.099934e-05
1.161536e+01	-2.124262e-05
1.168245e+01	-2.148873e-05
1.174992e+01	-2.173768e-05
1.181779e+01	-2.198951e-05
1.188605e+01	-2.224427e-05
1.195470e+01	-2.250197e-05
1.202375e+01	-2.276267e-05
1.209320e+01	-2.302638e-05
1.216305e+01	-2.329314e-05
1.223330e+01	-2.356300e-05
1.230396e+01	-2.383598e-05
1.237503e+01	-2.411213e-05
1.244651e+01	-2.439147e-05
1.251840e+01	-2.467405e-05
1.259070e+01	-2.495991e-05
1.266343e+01	-2.524908e-05
1.273657e+01	-2.554159e-05
1.281014e+01	-2.583750e-05
1.288413e+01	-2.613683e-05
1.295855e+01	-2.643963e-05
1.303339e+01	-2.674594e-05
1.310867e+01	-2.705580e-05
1.318439e+01	-2.736925e-05
1.326054e+01	-2.768633e-05
1.333713e+01	-2.800708e-05
1.341417e+01	-2.833155e-05
1.349165e+01	-2.865978e-05
1.356958e+01	-2.899181e-05
1.364795e+01	-2.932769e-05
1.372678e+01	-2.966746e-05
1.380607e+01	-3.001116e-05
1.388581e+01	-3.035885e-05
1.396602e+01	-3.071056e-05
1.404668e+01	-3.106635e-05
1.412782e+01	-3.142626e-05
1.420942e+01	-3.179034e-05
1.429149e+01	-3.215864e-05
1.437404e+01	-3.253121e-05
1.445706e+01	-3.290809e-05
1.454057e+01	-3.328934e-05
1.462455e+01	-3.367500e-05
1.470902e+01	-3.406513e-05
1.479398e+01	-3.445979e-05
1.487943e+01	-3.485901e-05
1.496537e+01	-3.526286e-05
1.505181e+01	-3.567139e-05
1.513875e+01	-3.608465e-05
1.522619e+01	-3.650270e-05
1.531414e+01	-3.692559e-05
1.540259e+01	-3.735338e-05
1.549156e+01	-3.778613e-05
1.558103e+01	-3.822389e-05
1.567103e+01	-3.866672e-05
1.576155e+01	-3.911469e-05
1.585258e+01	-3.956784e-05
1.594415e+01	-4.002624e-05
1.603624e+01	-4.048995e-05
1.612886e+01	-4.095904e-05
1.622202e+01	-4.143356e-05
1.631572e+01	-4.191358e-05
1.640996e+01	-4.239915e-05
1.650474e+01	-4.289036e-05
1.660008e+01	-4.338725e-05
1.669596e+01	-4.388990e-05
1.679239e+01	-4.439838e-05
1.688938e+01	-4.491274e-05
1.698694e+01	-4.543307e-05
1.708505e+01	-4.595942e-05
1.718373e+01	-4.649187e-05
1.728299e+01	-4.703049e-05
1.738281e+01	-4.757534e-05
1.748322e+01	-4.812652e-05
1.758420e+01	-4.868407e-05
1.768576e+01	-4.924809e-05
1.778792e+01	-4.981864e-05
1.789066e+01	-5.039580e-05
1.799399e+01	-5.097964e-05
1.809793e+01	-5.157025e-05
1.820246e+01	-5.216770e-05
1.830760e+01	-5.277208e-05
1.841334e+01	-5.338345e-05
1.851969e+01	-5.400191e-05
1.862666e+01	-5.462753e-05
1.873425e+01	-5.526041e-05
1.884246e+01	-5.590061e-05
1.895129e+01	-5.654823e-05
1.906075e+01	-5.720335e-05
1.917085e+01	-5.786606e-05
1.928158e+01	-5.853645e-05
1.939295e+01	-5.921461e-05
1.950496e+01	-5.990062e-05
1.961762e+01	-6.059458e-05
1.973093e+01	-6.129658e-05
1.984490e+01	-6.200672e-05
1.995952e+01	-6.272508e-05
2.007480e+01	-6.345176e-05
2.019076e+01	-6.418686e-05
2.030738e+01	-6.493048e-05
2.042467e+01	-6.568271e-05
2.054264e+01	-6.644366e-05
2.066130e+01	-6.721342e-05
2.078064e+01	-6.799210e-05
2.090066e+01	-6.877980e-05
2.102139e+01	-6.957663e-05
2.114280e+01	-7.038269e-05
2.126492e+01	-7.119808e-05
2.138775e+01	-7.202293e-05
2.151128e+01	-7.285732e-05
2.163553e+01	-7.370139e-05
2.176050e+01	-7.455523e-05
2.188619e+01	-7.541897e-05
2.201260e+01	-7.629271e-05
2.213974e+01	-7.717658e-05
2.226762e+01	-7.807068e-05
2.239624e+01	-7.897514e-05
2.252560e+01	-7.989008e-05
2.265571e+01	-8.081562e-05
2.278656e+01	-8.175189e-05
2.291818e+01	-8.269900e-05
2.305055e+01	-8.365708e-05
2.318369e+01	-8.462626e-05
2.331760e+01	-8.560667e-05
2.345228e+01	-8.659844e-05
2.358774e+01	-8.760169e-05
2.372398e+01	-8.861657e-05
2.386101e+01	-8.964321e-05
2.399883e+01	-9.068174e-05
2.413745e+01	-9.173230e-05
2.427686e+01	-9.279503e-05
2.441709e+01	-9.387008e-05
2.455812e+01	-9.495758e-05
2.469997e+01	-9.605768e-05
2.484263e+01	-9.717052e-05
2.498612e+01	-9.829625e-05
2.513044e+01	-9.943503e-05
2.527559e+01	-1.005870e-04
2.542158e+01	-1.017523e-04
2.556842e+01	-1.029311e-04
2.571610e+01	-1.041236e-04
2.586463e+01	-1.053299e-04
2.601403e+01	-1.065501e-04
2.616428e+01	-1.077845e-04
2.631541e+01	-1.090332e-04
2.646740e+01	-1.102964e-04
2.662028e+01	-1.115742e-04
2.677404e+01	-1.128668e-04
2.692868e+01	-1.141744e-04
2.708422e+01	-1.154971e-04
2.724066e+01	-1.168352e-04
2.739800e+01	-1.181887e-04
2.755625e+01	-1.195579e-04
2.771541e+01	-1.209430e-04
2.787550e+01	-1.223442e-04
2.803650e+01	-1.237615e-04
2.819844e+01	-1.251953e-04
2.836131e+01	-1.266457e-04
2.852513e+01	-1.281129e-04
2.868989e+01	-1.295971e-04
2.885560e+01	-1.310985e-04
2.902227e+01	-1.326173e-04
2.918990e+01	-1.341537e-04
2.935850e+01	-1.357079e-04
2.952807e+01	-1.372801e-04
2.969863e+01	-1.388705e-04
2.987016e+01	-1.404793e-04
3.004269e+01	-1.421068e-04
3.021622e+01	-1.437531e-04
3.039075e+01	-1.454185e-04
3.056628e+01	-1.471032e-04
3.074283e+01	-1.488074e-04
3.092040e+01	-1.505313e-04
3.109900e+01	-1.522752e-04
3.127862e+01	-1.540394e-04
3.145929e+01	-1.558239e-04
3.164099e+01	-1.576292e-04
3.182375e+01	-1.594553e-04
3.200756e+01	-1.613026e-04
3.219244e+01	-1.631713e-04
3.237838e+01	-1.650616e-04
3.256540e+01	-1.669739e-04
3.275349e+01	-1.689083e-04
3.294268e+01	-1.708651e-04
3.313295e+01	-1.728446e-04
3.332433e+01	-1.748470e-04
3.351681e+01	-1.768726e-04
3.371040e+01	-1.789217e-04
3.390511e+01	-1.809945e-04
3.410094e+01	-1.830913e-04
3.429791e+01	-1.852124e-04
3.449601e+01	-1.873581e-04
3.469526e+01	-1.895287e-04
3.489566e+01	-1.917244e-04
3.509721e+01	-1.939455e-04
3.529993e+01	-1.961924e-04
3.550382e+01	-1.984653e-04
3.570889e+01	-2.007645e-04
3.591515e+01	-2.030903e-04
3.612259e+01	-2.054431e-04
3.633123e+01	-2.078232e-04
3.654108e+01	-2.102308e-04
3.675214e+01	-2.126664e-04
3.696442e+01	-2.151301e-04
3.717792e+01	-2.176224e-04
3.739266e+01	-2.201435e-04
3.760864e+01	-2.226939e-04
3.782587e+01	-2.252738e-04
3.804435e+01	-2.278836e-04
3.826409e+01	-2.305236e-04
3.848510e+01	-2.331942e-04
3.870739e+01	-2.358958e-04
3.893096e+01	-2.386286e-04
3.915583e+01	-2.413931e-04
3.938199e+01	-2.441896e-04
3.960946e+01	-2.470186e-04
3.983824e+01	-2.498803e-04
4.006834e+01	-2.527751e-04
4.029978e+01	-2.557035e-04
4.053255e+01	-2.586658e-04
4.076666e+01	-2.616624e-04
4.100213e+01	-2.646938e-04
4.123896e+01	-2.677602e-04
4.147715e+01	-2.708622e-04
4.171672e+01	-2.740001e-04
4.195767e+01	-2.771744e-04
4.220002e+01	-2.803854e-04
4.244377e+01	-2.836337e-04
4.268892e+01	-2.869195e-04
4.293549e+01	-2.902435e-04
4.318348e+01	-2.936059e-04
4.343291e+01	-2.970073e-04
4.368377e+01	-3.004481e-04
4.393609e+01	-3.039287e-04
4.418986e+01	-3.074497e-04
4.444510e+01	-3.110115e-04
4.470182e+01	-3.146145e-04
4.496001e+01	-3.182592e-04
4.521970e+01	-3.219462e-04
4.548089e+01	-3.256759e-04
4.574358e+01	-3.294488e-04
4.600779e+01	-3.332654e-04
4.627353e+01	-3.371263e-04
4.654081e+01	-3.410318e-04
4.680963e+01	-3.449826e-04
4.708000e+01	-3.489792e-04
4.735193e+01	-3.530220e-04
4.762543e+01	-3.571117e-04
4.790051e+01	-3.612488e-04
4.817719e+01	-3.654338e-04
4.845545e+01	-3.696672e-04
4.873533e+01	-3.739498e-04
4.901682e+01	-3.782819e-04
4.929994e+01	-3.826642e-04
4.958470e+01	-3.870973e-04
4.987110e+01	-3.915817e-04
5.015915e+01	-3.961181e-04
5.044887e+01	-4.007070e-04
5.074026e+01	-4.053491e-04
5.103333e+01	-4.100449e-04
5.132810e+01	-4.147952e-04
5.162457e+01	-4.196005e-04
5.192275e+01	-4.244614e-04
5.222265e+01	-4.293787e-04
5.252429e+01	-4.343529e-04
5.282767e+01	-4.393847e-04
5.313280e+01	-4.444749e-04
5.343969e+01	-4.496240e-04
5.374836e+01	-4.548327e-04
5.405880e+01	-4.601018e-04
5.437105e+01	-4.654319e-04
5.468509e+01	-4.708238e-04
5.500095e+01	-4.762781e-04
5.531863e+01	-4.817956e-04
5.563815e+01	-4.873770e-04
5.595951e+01	-4.930231e-04
5.628273e+01	-4.987346e-04
5.660782e+01	-5.045122e-04
5.693479e+01	-5.103568e-04
5.726364e+01	-5.162691e-04
5.759439e+01	-5.222498e-04
5.792705e+01	-5.282999e-04
5.826164e+01	-5.344200e-04
5.859815e+01	-5.406110e-04
5.893662e+01	-5.468738e-04
5.927703e+01	-5.532090e-04
5.961941e+01	-5.596177e-04
5.996377e+01	-5.661006e-04
6.031012e+01	-5.726586e-04
6.065847e+01	-5.792926e-04
6.100883e+01	-5.860034e-04
6.136121e+01	-5.927919e-04
6.171563e+01	-5.996591e-04
6.207210e+01	-6.066059e-04
6.243063e+01	-6.136331e-04
6.279122e+01	-6.207417e-04
6.315390e+01	-6.279326e-04
6.351868e+01	-6.352068e-04
6.388556e+01	-6.425653e-04
6.425456e+01	-6.500091e-04
6.462569e+01	-6.575390e-04
6.499897e+01	-6.651562e-04
6.537440e+01	-6.728616e-04
6.575200e+01	-6.806563e-04
6.613178e+01	-6.885413e-04
6.651375e+01	-6.965176e-04
6.689793e+01	-7.045863e-04
6.728433e+01	-7.127484e-04
6.767297e+01	-7.210051e-04
6.806384e+01	-7.293575e-04
6.845698e+01	-7.378066e-04
6.885238e+01	-7.463535e-04
6.925007e+01	-7.549995e-04
6.965005e+01	-7.637456e-04
7.005235e+01	-7.725930e-04
7.045697e+01	-7.815429e-04
7.086393e+01	-7.905965e-04
7.127323e+01	-7.997549e-04
7.168490e+01	-8.090194e-04
7.209895e+01	-8.183912e-04
7.251539e+01	-8.278716e-04
7.293424e+01	-8.374618e-04
7.335551e+01	-8.471631e-04
7.377920e+01	-8.569767e-04
7.420535e+01	-8.669041e-04
7.463396e+01	-8.769464e-04
7.506504e+01	-8.871050e-04
7.549861e+01	-8.973813e-04
7.593469e+01	-9.077766e-04
7.637328e+01	-9.182923e-04
7.681441e+01	-9.289299e-04
7.725809e+01	-9.396906e-04
7.770433e+01	-9.505760e-04
7.815315e+01	-9.615875e-04
7.860456e+01	-9.727265e-04
7.905857e+01	-9.839945e-04
7.951521e+01	-9.953930e-04
7.997449e+01	-1.006924e-03
8.043642e+01	-1.018588e-03
8.090102e+01	-1.030387e-03
8.136830e+01	-1.042323e-03
8.183828e+01	-1.054397e-03
8.231097e+01	-1.066611e-03
8.278640e+01	-1.078966e-03
8.326457e+01	-1.091465e-03
8.374550e+01	-1.104108e-03
8.422921e+01	-1.116898e-03
8.471572e+01	-1.129836e-03
8.520503e+01	-1.142924e-03
8.569717e+01	-1.156163e-03
8.619215e+01	-1.169556e-03
8.669000e+01	-1.183103e-03
8.719071e+01	-1.196808e-03
8.769432e+01	-1.210671e-03
8.820084e+01	-1.224695e-03
8.871029e+01	-1.238882e-03
8.922267e+01	-1.253232e-03
8.973802e+01	-1.267749e-03
9.025634e+01	-1.282434e-03
9.077766e+01	-1.297290e-03
9.130199e+01	-1.312317e-03
9.182935e+01	-1.327518e-03
9.235975e+01	-1.342895e-03
9.289321e+01	-1.358451e-03
9.342976e+01	-1.374186e-03
9.396941e+01	-1.390104e-03
9.451217e+01	-1.406206e-03
9.505807e+01	-1.422495e-03
9.560712e+01	-1.438972e-03
9.615934e+01	-1.455640e-03
9.671476e+01	-1.472501e-03
9.727338e+01	-1.489558e-03
9.783522e+01	-1.506811e-03
9.840032e+01	-1.524265e-03
9.896867e+01	-1.541921e-03
9.954031e+01	-1.559781e-03
1.001153e+02	-1.577849e-03
1.006935e+02	-1.596125e-03
1.012751e+02	-1.614613e-03
1.018601e+02	-1.633315e-03
1.024484e+02	-1.652234e-03
1.030402e+02	-1.671372e-03
1.036353e+02	-1.690732e-03
1.042339e+02	-1.710315e-03
1.048360e+02	-1.730126e-03
1.054415e+02	-1.750166e-03
1.060505e+02	-1.770438e-03
1.066631e+02	-1.790945e-03
1.072791e+02	-1.811689e-03
1.078988e+02	-1.832673e-03
1.085220e+02	-1.853901e-03
1.091488e+02	-1.875374e-03
1.097793e+02	-1.897096e-03
1.104133e+02	-1.919069e-03
1.110511e+02	-1.941297e-03
1.116925e+02	-1.963783e-03
1.123376e+02	-1.986529e-03
1.129865e+02	-2.009538e-03
1.136391e+02	-2.032813e-03
1.142955e+02	-2.056358e-03
1.149556e+02	-2.080176e-03
1.156196e+02	-2.104270e-03
1.162874e+02	-2.128642e-03
1.169591e+02	-2.153297e-03
1.176347e+02	-2.178237e-03
1.183141e+02	-2.203466e-03
1.189975e+02	-2.228987e-03
1.196848e+02	-2.254804e-03
1.203761e+02	-2.280920e-03
1.210714e+02	-2.307338e-03
1.217707e+02	-2.334062e-03
1.224740e+02	-2.361095e-03
1.231814e+02	-2.388441e-03
1.238929e+02	-2.416104e-03
1.246085e+02	-2.444088e-03
1.253283e+02	-2.472395e-03
1.260522e+02	-2.501030e-03
1.267802e+02	-2.529997e-03
1.275125e+02	-2.559299e-03
1.282490e+02	-2.588940e-03
1.289898e+02	-2.618925e-03
1.297348e+02	-2.649256e-03
1.304842e+02	-2.679939e-03
1.312378e+02	-2.710977e-03
1.319959e+02	-2.742375e-03
1.327583e+02	-2.774136e-03
1.335251e+02	-2.806264e-03
1.342963e+02	-2.838765e-03
1.350720e+02	-2.871642e-03
1.358522e+02	-2.904900e-03
1.366368e+02	-2.938542e-03
1.374260e+02	-2.972574e-03
1.382198e+02	-3.007001e-03
1.390182e+02	-3.041825e-03
1.398211e+02	-3.077053e-03
1.406287e+02	-3.112689e-03
1.414410e+02	-3.148737e-03
1.422579e+02	-3.185202e-03
1.430796e+02	-3.222090e-03
1.439060e+02	-3.259405e-03
1.447372e+02	-3.297152e-03
1.455732e+02	-3.335335e-03
1.464141e+02	-3.373961e-03
1.472597e+02	-3.413034e-03
1.481103e+02	-3.452559e-03
1.489658e+02	-3.492542e-03
1.498262e+02	-3.532987e-03
1.506916e+02	-3.573901e-03
1.515620e+02	-3.615288e-03
1.524374e+02	-3.657155e-03
1.533179e+02	-3.699506e-03
1.542034e+02	-3.742347e-03
1.550941e+02	-3.785684e-03
1.559899e+02	-3.829523e-03
1.568909e+02	-3.873869e-03
1.577971e+02	-3.918728e-03
1.587085e+02	-3.964107e-03
1.596252e+02	-4.010011e-03
1.605472e+02	-4.056446e-03
1.614745e+02	-4.103419e-03
1.624072e+02	-4.150936e-03
1.633453e+02	-4.199002e-03
1.642887e+02	-4.247625e-03
1.652377e+02	-4.296810e-03
1.661921e+02	-4.346565e-03
1.671520e+02	-4.396895e-03
1.681175e+02	-4.447808e-03
1.690885e+02	-4.499311e-03
1.700651e+02	-4.551409e-03
1.710474e+02	-4.604110e-03
1.720354e+02	-4.657421e-03
1.730291e+02	-4.711349e-03
1.740285e+02	-4.765901e-03
1.750337e+02	-4.821085e-03
1.760446e+02	-4.876907e-03
1.770615e+02	-4.933375e-03
1.780842e+02	-4.990497e-03
1.791128e+02	-5.048279e-03
1.801473e+02	-5.106730e-03
1.811878e+02	-5.165858e-03
1.822344e+02	-5.225669e-03
1.832870e+02	-5.286173e-03
1.843456e+02	-5.347377e-03
1.854104e+02	-5.409289e-03
1.864813e+02	-5.471918e-03
1.875584e+02	-5.535271e-03
1.886418e+02	-5.599357e-03
1.897313e+02	-5.664184e-03
1.908272e+02	-5.729762e-03
1.919294e+02	-5.796098e-03
1.930380e+02	-5.863202e-03
1.941530e+02	-5.931082e-03
1.952744e+02	-5.999748e-03
1.964023e+02	-6.069208e-03
1.975367e+02	-6.139471e-03
1.986777e+02	-6.210548e-03
1.998252e+02	-6.282446e-03
2.009794e+02	-6.355177e-03
2.021403e+02	-6.428748e-03
2.033078e+02	-6.503171e-03
2.044821e+02	-6.578455e-03
2.056632e+02	-6.654609e-03
2.068511e+02	-6.731645e-03
2.080459e+02	-6.809571e-03
2.092475e+02	-6.888399e-03
2.104561e+02	-6.968139e-03
2.116717e+02	-7.048801e-03
2.128943e+02	-7.130396e-03
2.141240e+02	-7.212934e-03
2.153608e+02	-7.296428e-03
2.166047e+02	-7.380886e-03
2.178558e+02	-7.466322e-03
2.191141e+02	-7.552746e-03
2.203797e+02	-7.640169e-03
2.216526e+02	-7.728604e-03
2.229329e+02	-7.818061e-03
2.242205e+02	-7.908552e-03
2.255156e+02	-8.000090e-03
2.268182e+02	-8.092687e-03
2.281283e+02	-8.186354e-03
2.294459e+02	-8.281104e-03
2.307712e+02	-8.376950e-03
2.321041e+02	-8.473904e-03
2.334447e+02	-8.571979e-03
2.347931e+02	-8.671188e-03
2.361493e+02	-8.771544e-03
2.375133e+02	-8.873061e-03
2.388851e+02	-8.975751e-03
2.402649e+02	-9.079628e-03
2.416527e+02	-9.184706e-03
2.430484e+02	-9.290999e-03
2.444523e+02	-9.398521e-03
2.458642e+02	-9.507286e-03
2.472843e+02	-9.617308e-03
2.487126e+02	-9.728601e-03
2.501492e+02	-9.841182e-03
2.515940e+02	-9.955063e-03
2.530472e+02	-1.007026e-02
2.545088e+02	-1.018679e-02
2.559789e+02	-1.030467e-02
2.574574e+02	-1.042390e-02
2.589444e+02	-1.054452e-02
2.604401e+02	-1.066653e-02
2.619444e+02	-1.078995e-02
2.634574e+02	-1.091480e-02
2.649791e+02	-1.104109e-02
2.665096e+02	-1.116884e-02
2.680489e+02	-1.129806e-02
2.695972e+02	-1.142878e-02
2.711544e+02	-1.156101e-02
2.727205e+02	-1.169476e-02
2.742958e+02	-1.183007e-02
2.758801e+02	-1.196693e-02
2.774736e+02	-1.210538e-02
2.790762e+02	-1.224542e-02
2.806882e+02	-1.238709e-02
2.823094e+02	-1.253039e-02
2.839400e+02	-1.267534e-02
2.855800e+02	-1.282197e-02
2.872295e+02	-1.297029e-02
2.888886e+02	-1.312033e-02
2.905572e+02	-1.327210e-02
2.922354e+02	-1.342562e-02
2.939234e+02	-1.358092e-02
2.956211e+02	-1.373800e-02
2.973286e+02	-1.389691e-02
2.990459e+02	-1.405765e-02
3.007732e+02	-1.422024e-02
3.025104e+02	-1.438471e-02
3.042577e+02	-1.455108e-02
3.060151e+02	-1.471937e-02
3.077826e+02	-1.488961e-02
3.095604e+02	-1.506181e-02
3.113484e+02	-1.523599e-02
3.131467e+02	-1.541219e-02
3.149554e+02	-1.559042e-02
3.167746e+02	-1.577071e-02
3.186043e+02	-1.595308e-02
3.204445e+02	-1.613756e-02
3.222954e+02	-1.632417e-02
3.241570e+02	-1.651292e-02
3.260293e+02	-1.670386e-02
3.279124e+02	-1.689700e-02
3.298064e+02	-1.709237e-02
3.317114e+02	-1.729000e-02
3.336273e+02	-1.748990e-02
3.355544e+02	-1.769211e-02
3.374925e+02	-1.789665e-02
3.394418e+02	-1.810356e-02
3.414024e+02	-1.831285e-02
3.433744e+02	-1.852455e-02
3.453577e+02	-1.873870e-02
3.473525e+02	-1.895532e-02
3.493588e+02	-1.917443e-02
3.513766e+02	-1.939608e-02
3.534062e+02	-1.962027e-02
3.554474e+02	-1.984706e-02
3.575005e+02	-2.007646e-02
3.595654e+02	-2.030850e-02
3.616422e+02	-2.054323e-02
3.637311e+02	-2.078065e-02
3.658320e+02	-2.102082e-02
3.679450e+02	-2.126375e-02
3.700702e+02	-2.150948e-02
3.722077e+02	-2.175805e-02
3.743576e+02	-2.200948e-02
3.765199e+02	-2.226381e-02
3.786946e+02	-2.252107e-02
3.808820e+02	-2.278130e-02
3.830819e+02	-2.304452e-02
3.852946e+02	-2.331078e-02
3.875200e+02	-2.358011e-02
3.897583e+02	-2.385253e-02
3.920096e+02	-2.412810e-02
3.942738e+02	-2.440684e-02
3.965511e+02	-2.468880e-02
3.988416e+02	-2.497400e-02
4.011452e+02	-2.526248e-02
4.034622e+02	-2.555429e-02
4.057926e+02	-2.584946e-02
4.081365e+02	-2.614803e-02
4.104938e+02	-2.645003e-02
4.128648e+02	-2.675552e-02
4.152495e+02	-2.706452e-02
4.176480e+02	-2.737708e-02
4.200603e+02	-2.769323e-02
4.224866e+02	-2.801303e-02
4.249268e+02	-2.833650e-02
4.273812e+02	-2.866370e-02
4.298497e+02	-2.899466e-02
4.323325e+02	-2.932944e-02
4.348297e+02	-2.966806e-02
4.373412e+02	-3.001058e-02
4.398673e+02	-3.035704e-02
4.424079e+02	-3.070749e-02
4.449633e+02	-3.106197e-02
4.475334e+02	-3.142052e-02
4.501183e+02	-3.178320e-02
4.527182e+02	-3.215005e-02
4.553330e+02	-3.252112e-02
4.579630e+02	-3.289645e-02
4.606082e+02	-3.327610e-02
4.632687e+02	-3.366012e-02
4.659445e+02	-3.404854e-02
4.686358e+02	-3.444144e-02
4.713426e+02	-3.483884e-02
4.740650e+02	-3.524082e-02
4.768032e+02	-3.564741e-02
4.795572e+02	-3.605868e-02
4.823271e+02	-3.647467e-02
4.851130e+02	-3.689544e-02
4.879150e+02	-3.732104e-02
4.907332e+02	-3.775153e-02
4.935676e+02	-3.818696e-02
4.964185e+02	-3.862739e-02
4.992858e+02	-3.907288e-02
5.021696e+02	-3.952349e-02
5.050701e+02	-3.997926e-02
5.079874e+02	-4.044027e-02
5.109215e+02	-4.090657e-02
5.138726e+02	-4.137822e-02
5.168407e+02	-4.185528e-02
5.198259e+02	-4.233782e-02
5.228284e+02	-4.282589e-02
5.258482e+02	-4.331955e-02
5.288855e+02	-4.381888e-02
5.319403e+02	-4.432394e-02
5.350128e+02	-4.483479e-02
5.381030e+02	-4.535149e-02
5.412111e+02	-4.587412e-02
5.443371e+02	-4.640274e-02
5.474812e+02	-4.693741e-02
5.506434e+02	-4.747822e-02
5.538239e+02	-4.802522e-02
5.570228e+02	-4.857848e-02
5.602401e+02	-4.913809e-02
5.634760e+02	-4.970410e-02
5.667306e+02	-5.027660e-02
5.700040e+02	-5.085565e-02
5.732964e+02	-5.144133e-02
5.766077e+02	-5.203371e-02
5.799382e+02	-5.263287e-02
5.832879e+02	-5.323890e-02
5.866569e+02	-5.385185e-02
5.900454e+02	-5.447182e-02
5.934535e+02	-5.509888e-02
5.968813e+02	-5.573311e-02
6.003288e+02	-5.637460e-02
6.037963e+02	-5.702342e-02
6.072838e+02	-5.767966e-02
6.107914e+02	-5.834340e-02
6.143194e+02	-5.901472e-02
6.178676e+02	-5.969372e-02
6.214364e+02	-6.038047e-02
6.250258e+02	-6.107507e-02
6.286359e+02	-6.177760e-02
6.322669e+02	-6.248815e-02
6.359189e+02	-6.320682e-02
6.395919e+02	-6.393369e-02
6.432862e+02	-6.466886e-02
6.470017e+02	-6.541242e-02
6.507388e+02	-6.616446e-02
6.544974e+02	-6.692509e-02
6.582778e+02	-6.769438e-02
6.620800e+02	-6.847245e-02
6.659041e+02	-6.925939e-02
6.697504e+02	-7.005531e-02
6.736188e+02	-7.086029e-02
6.775096e+02	-7.167445e-02
6.814229e+02	-7.249788e-02
6.853587e+02	-7.333070e-02
6.893173e+02	-7.417299e-02
6.932988e+02	-7.502488e-02
6.973033e+02	-7.588647e-02
7.013309e+02	-7.675787e-02
