Frequency(Hz)	Magnitude(dB)
1.000000e+01	-2.102447e+00
1.005776e+01	-2.121810e+00
1.011585e+01	-2.141191e+00
1.017428e+01	-2.160660e+00
1.023305e+01	-2.180579e+00
1.029215e+01	-2.200273e+00
1.035160e+01	-2.220164e+00
1.041139e+01	-2.240275e+00
1.047153e+01	-2.260485e+00
1.053201e+01	-2.280782e+00
1.059284e+01	-2.301241e+00
1.065403e+01	-2.321940e+00
1.071556e+01	-2.342807e+00
1.077746e+01	-2.363726e+00
1.083971e+01	-2.384858e+00
1.090232e+01	-2.405847e+00
1.096529e+01	-2.427078e+00
1.102862e+01	-2.448784e+00
1.109232e+01	-2.470439e+00
1.115639e+01	-2.492257e+00
1.122083e+01	-2.514171e+00
1.128564e+01	-2.536109e+00
1.135083e+01	-2.558265e+00
1.141639e+01	-2.580784e+00
1.148233e+01	-2.603391e+00
1.154865e+01	-2.625803e+00
1.161536e+01	-2.648780e+00
1.168245e+01	-2.671446e+00
1.174992e+01	-2.694548e+00
1.181779e+01	-2.717799e+00
1.188605e+01	-2.741225e+00
1.195470e+01	-2.764592e+00
1.202375e+01	-2.788279e+00
1.209320e+01	-2.811980e+00
1.216305e+01	-2.835926e+00
1.223330e+01	-2.860034e+00
1.230396e+01	-2.884258e+00
1.237503e+01	-2.908377e+00
1.244651e+01	-2.932845e+00
1.251840e+01	-2.957547e+00
1.259070e+01	-2.982537e+00
1.266343e+01	-3.007315e+00
1.273657e+01	-3.032357e+00
1.281014e+01	-3.057622e+00
1.288413e+01	-3.082909e+00
1.295855e+01	-3.108473e+00
1.303339e+01	-3.134089e+00
1.310867e+01	-3.159958e+00
1.318439e+01	-3.185905e+00
1.326054e+01	-3.212122e+00
1.333713e+01	-3.238060e+00
1.341417e+01	-3.264413e+00
1.349165e+01	-3.291035e+00
1.356958e+01	-3.317589e+00
1.364795e+01	-3.344463e+00
1.372678e+01	-3.371463e+00
1.380607e+01	-3.398427e+00
1.388581e+01	-3.425742e+00
1.396602e+01	-3.453032e+00
1.404668e+01	-3.480643e+00
1.412782e+01	-3.508016e+00
1.420942e+01	-3.536180e+00
1.429149e+01	-3.564191e+00
1.437404e+01	-3.591920e+00
1.445706e+01	-3.620384e+00
1.454057e+01	-3.648526e+00
1.462455e+01	-3.677206e+00
1.470902e+01	-3.705816e+00
1.479398e+01	-3.734446e+00
1.487943e+01	-3.763505e+00
1.496537e+01	-3.792536e+00
1.505181e+01	-3.821681e+00
1.513875e+01	-3.851414e+00
1.522619e+01	-3.880509e+00
1.531414e+01	-3.910157e+00
1.540259e+01	-3.939597e+00
1.549156e+01	-3.969807e+00
1.558103e+01	-3.999647e+00
1.567103e+01	-4.030037e+00
1.576155e+01	-4.060202e+00
1.585258e+01	-4.090849e+00
1.594415e+01	-4.121559e+00
1.603624e+01	-4.152223e+00
1.612886e+01	-4.182995e+00
1.622202e+01	-4.214254e+00
1.631572e+01	-4.245204e+00
1.640996e+01	-4.276500e+00
1.650474e+01	-4.308031e+00
1.660008e+01	-4.339397e+00
1.669596e+01	-4.371327e+00
1.679239e+01	-4.403097e+00
1.688938e+01	-4.434740e+00
1.698694e+01	-4.466816e+00
1.708505e+01	-4.498959e+00
1.718373e+01	-4.531465e+00
1.728299e+01	-4.563747e+00
1.738281e+01	-4.596496e+00
1.748322e+01	-4.629013e+00
1.758420e+01	-4.661875e+00
1.768576e+01	-4.694952e+00
1.778792e+01	-4.728141e+00
1.789066e+01	-4.761454e+00
1.799399e+01	-4.794754e+00
1.809793e+01	-4.828377e+00
1.820246e+01	-4.861790e+00
1.830760e+01	-4.895823e+00
1.841334e+01	-4.929349e+00
1.851969e+01	-4.963545e+00
1.862666e+01	-4.997862e+00
1.873425e+01	-5.032006e+00
1.884246e+01	-5.066296e+00
1.895129e+01	-5.100890e+00
1.906075e+01	-5.135580e+00
1.917085e+01	-5.170321e+00
1.928158e+01	-5.205281e+00
1.939295e+01	-5.240237e+00
1.950496e+01	-5.275303e+00
1.961762e+01	-5.310570e+00
1.973093e+01	-5.346008e+00
1.984490e+01	-5.381263e+00
1.995952e+01	-5.417228e+00
2.007480e+01	-5.452584e+00
2.019076e+01	-5.488528e+00
2.030738e+01	-5.524381e+00
2.042467e+01	-5.560359e+00
2.054264e+01	-5.596904e+00
2.066130e+01	-5.632986e+00
2.078064e+01	-5.669371e+00
2.090066e+01	-5.705857e+00
2.102139e+01	-5.742569e+00
2.114280e+01	-5.779347e+00
2.126492e+01	-5.816064e+00
2.138775e+01	-5.853190e+00
2.151128e+01	-5.890513e+00
2.163553e+01	-5.927597e+00
2.176050e+01	-5.964782e+00
2.188619e+01	-6.002156e+00
2.201260e+01	-6.039483e+00
2.213974e+01	-6.077377e+00
2.226762e+01	-6.115133e+00
2.239624e+01	-6.152696e+00
2.252560e+01	-6.191012e+00
2.265571e+01	-6.229016e+00
2.278656e+01	-6.266943e+00
2.291818e+01	-6.305410e+00
2.305055e+01	-6.343494e+00
2.318369e+01	-6.382133e+00
2.331760e+01	-6.420704e+00
2.345228e+01	-6.459263e+00
2.358774e+01	-6.498427e+00
2.372398e+01	-6.536763e+00
2.386101e+01	-6.575679e+00
2.399883e+01	-6.614891e+00
2.413745e+01	-6.653862e+00
2.427686e+01	-6.693367e+00
2.441709e+01	-6.733082e+00
2.455812e+01	-6.772203e+00
2.469997e+01	-6.812141e+00
2.484263e+01	-6.851302e+00
2.498612e+01	-6.891299e+00
2.513044e+01	-6.931211e+00
2.527559e+01	-6.971025e+00
2.542158e+01	-7.011092e+00
2.556842e+01	-7.050457e+00
2.571610e+01	-7.091575e+00
2.586463e+01	-7.131809e+00
2.601403e+01	-7.172073e+00
2.616428e+01	-7.212165e+00
2.631541e+01	-7.252919e+00
2.646740e+01	-7.293688e+00
2.662028e+01	-7.334993e+00
2.677404e+01	-7.374954e+00
2.692868e+01	-7.416200e+00
2.708422e+01	-7.457392e+00
2.724066e+01	-7.498408e+00
2.739800e+01	-7.539472e+00
2.755625e+01	-7.580993e+00
2.771541e+01	-7.622058e+00
2.787550e+01	-7.663656e+00
2.803650e+01	-7.704931e+00
2.819844e+01	-7.746703e+00
2.836131e+01	-7.788436e+00
2.852513e+01	-7.829994e+00
2.868989e+01	-7.871931e+00
2.885560e+01	-7.913677e+00
2.902227e+01	-7.955492e+00
2.918990e+01	-7.997560e+00
2.935850e+01	-8.040297e+00
2.952807e+01	-8.081753e+00
2.969863e+01	-8.124702e+00
2.987016e+01	-8.166559e+00
3.004269e+01	-8.209212e+00
3.021622e+01	-8.251645e+00
3.039075e+01	-8.293841e+00
3.056628e+01	-8.336943e+00
3.074283e+01	-8.379988e+00
3.092040e+01	-8.422789e+00
3.109900e+01	-8.465396e+00
3.127862e+01	-8.508209e+00
3.145929e+01	-8.551227e+00
3.164099e+01	-8.593997e+00
3.182375e+01	-8.637401e+00
3.200756e+01	-8.680807e+00
3.219244e+01	-8.724001e+00
3.237838e+01	-8.767244e+00
3.256540e+01	-8.810823e+00
3.275349e+01	-8.854251e+00
3.294268e+01	-8.897700e+00
3.313295e+01	-8.941253e+00
3.332433e+01	-8.985182e+00
3.351681e+01	-9.028881e+00
3.371040e+01	-9.072600e+00
3.390511e+01	-9.116727e+00
3.410094e+01	-9.160393e+00
3.429791e+01	-9.204321e+00
3.449601e+01	-9.248721e+00
3.469526e+01	-9.292516e+00
3.489566e+01	-9.336759e+00
3.509721e+01	-9.381045e+00
3.529993e+01	-9.425143e+00
3.550382e+01	-9.469536e+00
3.570889e+01	-9.513804e+00
3.591515e+01	-9.558392e+00
3.612259e+01	-9.603022e+00
3.633123e+01	-9.647372e+00
3.654108e+01	-9.691910e+00
3.675214e+01	-9.736684e+00
3.696442e+01	-9.781477e+00
3.717792e+01	-9.826823e+00
3.739266e+01	-9.871323e+00
3.760864e+01	-9.916330e+00
3.782587e+01	-9.960879e+00
3.804435e+01	-1.000657e+01
3.826409e+01	-1.005160e+01
3.848510e+01	-1.009618e+01
3.870739e+01	-1.014155e+01
3.893096e+01	-1.018653e+01
3.915583e+01	-1.023227e+01
3.938199e+01	-1.027734e+01
3.960946e+01	-1.032241e+01
3.983824e+01	-1.036740e+01
4.006834e+01	-1.041311e+01
4.029978e+01	-1.045835e+01
4.053255e+01	-1.050433e+01
4.076666e+01	-1.054980e+01
4.100213e+01	-1.059588e+01
4.123896e+01	-1.064156e+01
4.147715e+01	-1.068626e+01
4.171672e+01	-1.073309e+01
4.195767e+01	-1.077883e+01
4.220002e+01	-1.082433e+01
4.244377e+01	-1.086978e+01
4.268892e+01	-1.091654e+01
4.293549e+01	-1.096281e+01
4.318348e+01	-1.100854e+01
4.343291e+01	-1.105416e+01
4.368377e+01	-1.110060e+01
4.393609e+01	-1.114628e+01
4.418986e+01	-1.119311e+01
4.444510e+01	-1.123937e+01
4.470182e+01	-1.128499e+01
4.496001e+01	-1.133152e+01
4.521970e+01	-1.137862e+01
4.548089e+01	-1.142452e+01
4.574358e+01	-1.147002e+01
4.600779e+01	-1.151733e+01
4.627353e+01	-1.156429e+01
4.654081e+01	-1.161048e+01
4.680963e+01	-1.165713e+01
4.708000e+01	-1.170383e+01
4.735193e+01	-1.175084e+01
4.762543e+01	-1.179711e+01
4.790051e+01	-1.184415e+01
4.817719e+01	-1.189066e+01
4.845545e+01	-1.193767e+01
4.873533e+01	-1.198397e+01
4.901682e+01	-1.203081e+01
4.929994e+01	-1.207818e+01
4.958470e+01	-1.212462e+01
4.987110e+01	-1.217243e+01
5.015915e+01	-1.221900e+01
5.044887e+01	-1.226570e+01
5.074026e+01	-1.231299e+01
5.103333e+01	-1.236021e+01
5.132810e+01	-1.240741e+01
5.162457e+01	-1.245418e+01
5.192275e+01	-1.250203e+01
5.222265e+01	-1.254884e+01
5.252429e+01	-1.259629e+01
5.282767e+01	-1.264307e+01
5.313280e+01	-1.269103e+01
5.343969e+01	-1.273841e+01
5.374836e+01	-1.278542e+01
5.405880e+01	-1.283335e+01
5.437105e+01	-1.288101e+01
5.468509e+01	-1.292796e+01
5.500095e+01	-1.297508e+01
5.531863e+01	-1.302300e+01
5.563815e+01	-1.307024e+01
5.595951e+01	-1.311769e+01
5.628273e+01	-1.316586e+01
5.660782e+01	-1.321273e+01
5.693479e+01	-1.326095e+01
5.726364e+01	-1.330869e+01
5.759439e+01	-1.335695e+01
5.792705e+01	-1.340405e+01
5.826164e+01	-1.345221e+01
5.859815e+01	-1.349941e+01
5.893662e+01	-1.354677e+01
5.927703e+01	-1.359479e+01
5.961941e+01	-1.364301e+01
5.996377e+01	-1.369088e+01
6.031012e+01	-1.373848e+01
6.065847e+01	-1.378697e+01
6.100883e+01	-1.383477e+01
6.136121e+01	-1.388285e+01
6.171563e+01	-1.393027e+01
6.207210e+01	-1.397866e+01
6.243063e+01	-1.402635e+01
6.279122e+01	-1.407469e+01
6.315390e+01	-1.412271e+01
6.351868e+01	-1.417128e+01
6.388556e+01	-1.421875e+01
6.425456e+01	-1.426741e+01
6.462569e+01	-1.431527e+01
6.499897e+01	-1.436398e+01
6.537440e+01	-1.441171e+01
6.575200e+01	-1.445974e+01
6.613178e+01	-1.450853e+01
6.651375e+01	-1.455666e+01
6.689793e+01	-1.460490e+01
6.728433e+01	-1.465285e+01
6.767297e+01	-1.470093e+01
6.806384e+01	-1.475026e+01
6.845698e+01	-1.479886e+01
6.885238e+01	-1.484654e+01
6.925007e+01	-1.489368e+01
6.965005e+01	-1.494332e+01
7.005235e+01	-1.499308e+01
7.045697e+01	-1.504008e+01
7.086393e+01	-1.508917e+01
7.127323e+01	-1.513715e+01
7.168490e+01	-1.518551e+01
7.209895e+01	-1.523520e+01
7.251539e+01	-1.528308e+01
7.293424e+01	-1.533148e+01
7.335551e+01	-1.538035e+01
7.377920e+01	-1.542801e+01
7.420535e+01	-1.547738e+01
7.463396e+01	-1.552588e+01
7.506504e+01	-1.557617e+01
7.549861e+01	-1.562298e+01
7.593469e+01	-1.567168e+01
7.637328e+01	-1.571965e+01
7.681441e+01	-1.576840e+01
7.725809e+01	-1.581791e+01
7.770433e+01	-1.586596e+01
7.815315e+01	-1.591490e+01
7.860456e+01	-1.596367e+01
7.905857e+01	-1.601146e+01
7.951521e+01	-1.606127e+01
7.997449e+01	-1.611101e+01
8.043642e+01	-1.615883e+01
8.090102e+01	-1.620722e+01
8.136830e+01	-1.625632e+01
8.183828e+01	-1.630501e+01
8.231097e+01	-1.635445e+01
8.278640e+01	-1.640406e+01
8.326457e+01	-1.645171e+01
8.374550e+01	-1.650194e+01
8.422921e+01	-1.654964e+01
8.471572e+01	-1.659863e+01
8.520503e+01	-1.664827e+01
8.569717e+01	-1.669634e+01
8.619215e+01	-1.674674e+01
8.669000e+01	-1.679535e+01
8.719071e+01	-1.684352e+01
8.769432e+01	-1.689285e+01
8.820084e+01	-1.694213e+01
8.871029e+01	-1.699089e+01
8.922267e+01	-1.703972e+01
8.973802e+01	-1.708895e+01
9.025634e+01	-1.713848e+01
9.077766e+01	-1.718742e+01
9.130199e+01	-1.723548e+01
9.182935e+01	-1.728509e+01
9.235975e+01	-1.733429e+01
9.289321e+01	-1.738340e+01
9.342976e+01	-1.743245e+01
9.396941e+01	-1.748234e+01
9.451217e+01	-1.753063e+01
9.505807e+01	-1.757916e+01
9.560712e+01	-1.762917e+01
9.615934e+01	-1.767850e+01
9.671476e+01	-1.772772e+01
9.727338e+01	-1.777729e+01
9.783522e+01	-1.782593e+01
9.840032e+01	-1.787481e+01
9.896867e+01	-1.792314e+01
9.954031e+01	-1.797364e+01
1.001153e+02	-1.802184e+01
1.006935e+02	-1.807275e+01
1.012751e+02	-1.812239e+01
1.018601e+02	-1.816993e+01
1.024484e+02	-1.822079e+01
1.030402e+02	-1.826916e+01
1.036353e+02	-1.831965e+01
1.042339e+02	-1.836821e+01
1.048360e+02	-1.841764e+01
1.054415e+02	-1.846702e+01
1.060505e+02	-1.851566e+01
1.066631e+02	-1.856511e+01
1.072791e+02	-1.861511e+01
1.078988e+02	-1.866348e+01
1.085220e+02	-1.871287e+01
1.091488e+02	-1.876349e+01
1.097793e+02	-1.881224e+01
1.104133e+02	-1.885961e+01
1.110511e+02	-1.890986e+01
1.116925e+02	-1.896064e+01
1.123376e+02	-1.900960e+01
1.129865e+02	-1.905730e+01
1.136391e+02	-1.910975e+01
1.142955e+02	-1.915712e+01
1.149556e+02	-1.920737e+01
1.156196e+02	-1.925656e+01
1.162874e+02	-1.930596e+01
1.169591e+02	-1.935446e+01
1.176347e+02	-1.940506e+01
1.183141e+02	-1.945539e+01
1.189975e+02	-1.950488e+01
1.196848e+02	-1.955207e+01
1.203761e+02	-1.960305e+01
1.210714e+02	-1.965121e+01
1.217707e+02	-1.970260e+01
1.224740e+02	-1.975111e+01
1.231814e+02	-1.980085e+01
1.238929e+02	-1.984982e+01
1.246085e+02	-1.989949e+01
1.253283e+02	-1.994934e+01
1.260522e+02	-1.999869e+01
1.267802e+02	-2.005037e+01
1.275125e+02	-2.009848e+01
1.282490e+02	-2.014760e+01
1.289898e+02	-2.019744e+01
1.297348e+02	-2.024734e+01
1.304842e+02	-2.029693e+01
1.312378e+02	-2.034569e+01
1.319959e+02	-2.039594e+01
1.327583e+02	-2.044403e+01
1.335251e+02	-2.049426e+01
1.342963e+02	-2.054159e+01
1.350720e+02	-2.059550e+01
1.358522e+02	-2.064467e+01
1.366368e+02	-2.069347e+01
1.374260e+02	-2.074284e+01
1.382198e+02	-2.079055e+01
1.390182e+02	-2.084192e+01
1.398211e+02	-2.089241e+01
1.406287e+02	-2.094180e+01
1.414410e+02	-2.099166e+01
1.422579e+02	-2.104213e+01
1.430796e+02	-2.108895e+01
1.439060e+02	-2.113994e+01
1.447372e+02	-2.118999e+01
1.455732e+02	-2.123977e+01
1.464141e+02	-2.128779e+01
1.472597e+02	-2.133881e+01
1.481103e+02	-2.138749e+01
1.489658e+02	-2.143561e+01
1.498262e+02	-2.148698e+01
1.506916e+02	-2.153633e+01
1.515620e+02	-2.158800e+01
1.524374e+02	-2.163636e+01
1.533179e+02	-2.168747e+01
1.542034e+02	-2.173683e+01
1.550941e+02	-2.178350e+01
1.559899e+02	-2.183554e+01
1.568909e+02	-2.188456e+01
1.577971e+02	-2.193490e+01
1.587085e+02	-2.198725e+01
1.596252e+02	-2.203370e+01
1.605472e+02	-2.208522e+01
1.614745e+02	-2.213595e+01
1.624072e+02	-2.218205e+01
1.633453e+02	-2.223244e+01
1.642887e+02	-2.228234e+01
1.652377e+02	-2.233247e+01
1.661921e+02	-2.238303e+01
1.671520e+02	-2.243123e+01
1.681175e+02	-2.248205e+01
1.690885e+02	-2.252982e+01
1.700651e+02	-2.258222e+01
1.710474e+02	-2.263170e+01
1.720354e+02	-2.268127e+01
1.730291e+02	-2.273035e+01
1.740285e+02	-2.278061e+01
1.750337e+02	-2.283074e+01
1.760446e+02	-2.287752e+01
1.770615e+02	-2.293034e+01
1.780842e+02	-2.298076e+01
1.791128e+02	-2.303117e+01
1.801473e+02	-2.307769e+01
1.811878e+02	-2.312957e+01
1.822344e+02	-2.317949e+01
1.832870e+02	-2.322722e+01
1.843456e+02	-2.327849e+01
1.854104e+02	-2.332799e+01
1.864813e+02	-2.337875e+01
1.875584e+02	-2.342850e+01
1.886418e+02	-2.347991e+01
1.897313e+02	-2.352941e+01
1.908272e+02	-2.357838e+01
1.919294e+02	-2.362439e+01
1.930380e+02	-2.367873e+01
1.941530e+02	-2.372583e+01
1.952744e+02	-2.377734e+01
1.964023e+02	-2.382819e+01
1.975367e+02	-2.387782e+01
1.986777e+02	-2.392661e+01
1.998252e+02	-2.397452e+01
2.009794e+02	-2.402450e+01
2.021403e+02	-2.407530e+01
2.033078e+02	-2.412574e+01
2.044821e+02	-2.417377e+01
2.056632e+02	-2.422634e+01
2.068511e+02	-2.427500e+01
2.080459e+02	-2.432402e+01
2.092475e+02	-2.437375e+01
2.104561e+02	-2.442582e+01
2.116717e+02	-2.447619e+01
2.128943e+02	-2.452529e+01
2.141240e+02	-2.457156e+01
2.153608e+02	-2.462357e+01
2.166047e+02	-2.467338e+01
2.178558e+02	-2.472549e+01
2.191141e+02	-2.477786e+01
2.203797e+02	-2.482323e+01
2.216526e+02	-2.487191e+01
2.229329e+02	-2.492395e+01
2.242205e+02	-2.497440e+01
2.255156e+02	-2.502482e+01
2.268182e+02	-2.507370e+01
2.281283e+02	-2.512355e+01
2.294459e+02	-2.517461e+01
2.307712e+02	-2.522044e+01
2.321041e+02	-2.527480e+01
2.334447e+02	-2.532532e+01
2.347931e+02	-2.537337e+01
2.361493e+02	-2.542559e+01
2.375133e+02	-2.547307e+01
2.388851e+02	-2.552116e+01
2.402649e+02	-2.557463e+01
2.416527e+02	-2.562404e+01
2.430484e+02	-2.566929e+01
2.444523e+02	-2.572212e+01
2.458642e+02	-2.577121e+01
2.472843e+02	-2.582321e+01
2.487126e+02	-2.587163e+01
2.501492e+02	-2.592081e+01
2.515940e+02	-2.597288e+01
2.530472e+02	-2.601924e+01
2.545088e+02	-2.607666e+01
2.559789e+02	-2.612271e+01
2.574574e+02	-2.617367e+01
2.589444e+02	-2.622133e+01
2.604401e+02	-2.627107e+01
2.619444e+02	-2.632406e+01
2.634574e+02	-2.637227e+01
2.649791e+02	-2.641819e+01
2.665096e+02	-2.647103e+01
2.680489e+02	-2.652516e+01
2.695972e+02	-2.657032e+01
2.711544e+02	-2.662358e+01
2.727205e+02	-2.666978e+01
2.742958e+02	-2.672421e+01
2.758801e+02	-2.676891e+01
2.774736e+02	-2.682355e+01
2.790762e+02	-2.687255e+01
2.806882e+02	-2.692053e+01
2.823094e+02	-2.697165e+01
2.839400e+02	-2.702319e+01
2.855800e+02	-2.707434e+01
2.872295e+02	-2.712128e+01
2.888886e+02	-2.717559e+01
2.905572e+02	-2.722361e+01
2.922354e+02	-2.726969e+01
2.939234e+02	-2.732233e+01
2.956211e+02	-2.736648e+01
2.973286e+02	-2.742439e+01
2.990459e+02	-2.746985e+01
3.007732e+02	-2.752301e+01
3.025104e+02	-2.757139e+01
3.042577e+02	-2.762009e+01
3.060151e+02	-2.766800e+01
3.077826e+02	-2.772090e+01
3.095604e+02	-2.777126e+01
3.113484e+02	-2.782829e+01
3.131467e+02	-2.787458e+01
3.149554e+02	-2.792440e+01
3.167746e+02	-2.797313e+01
3.186043e+02	-2.802197e+01
3.204445e+02	-2.807236e+01
3.222954e+02	-2.812246e+01
3.241570e+02	-2.817252e+01
3.260293e+02	-2.822562e+01
3.279124e+02	-2.827033e+01
3.298064e+02	-2.832044e+01
3.317114e+02	-2.837074e+01
3.336273e+02	-2.842151e+01
3.355544e+02	-2.846923e+01
3.374925e+02	-2.852438e+01
3.394418e+02	-2.857470e+01
3.414024e+02	-2.862250e+01
3.433744e+02	-2.867262e+01
3.453577e+02	-2.872221e+01
3.473525e+02	-2.876850e+01
3.493588e+02	-2.882190e+01
3.513766e+02	-2.887006e+01
3.534062e+02	-2.892527e+01
3.554474e+02	-2.897479e+01
3.575005e+02	-2.902136e+01
3.595654e+02	-2.907107e+01
3.616422e+02	-2.912794e+01
3.637311e+02	-2.917632e+01
3.658320e+02	-2.922098e+01
3.679450e+02	-2.927684e+01
3.700702e+02	-2.932311e+01
3.722077e+02	-2.937664e+01
3.743576e+02	-2.942842e+01
3.765199e+02	-2.947271e+01
3.786946e+02	-2.952445e+01
3.808820e+02	-2.957415e+01
3.830819e+02	-2.962590e+01
3.852946e+02	-2.967598e+01
3.875200e+02	-2.972358e+01
3.897583e+02	-2.977529e+01
3.920096e+02	-2.982514e+01
3.942738e+02	-2.987116e+01
3.965511e+02	-2.992935e+01
3.988416e+02	-2.997553e+01
4.011452e+02	-3.002926e+01
4.034622e+02	-3.007710e+01
4.057926e+02	-3.012285e+01
4.081365e+02	-3.017144e+01
4.104938e+02	-3.022690e+01
4.128648e+02	-3.027325e+01
4.152495e+02	-3.032410e+01
4.176480e+02	-3.037704e+01
4.200603e+02	-3.043326e+01
4.224866e+02	-3.047870e+01
4.249268e+02	-3.052776e+01
4.273812e+02	-3.057562e+01
4.298497e+02	-3.062647e+01
4.323325e+02	-3.068012e+01
4.348297e+02	-3.072848e+01
4.373412e+02	-3.077645e+01
4.398673e+02	-3.082658e+01
4.424079e+02	-3.087910e+01
4.449633e+02	-3.092960e+01
4.475334e+02	-3.097310e+01
4.501183e+02	-3.102705e+01
4.527182e+02	-3.107432e+01
4.553330e+02	-3.112609e+01
4.579630e+02	-3.117315e+01
4.606082e+02	-3.122620e+01
4.632687e+02	-3.127652e+01
4.659445e+02	-3.132530e+01
4.686358e+02	-3.138017e+01
4.713426e+02	-3.143051e+01
4.740650e+02	-3.147826e+01
4.768032e+02	-3.153102e+01
4.795572e+02	-3.157955e+01
4.823271e+02	-3.163206e+01
4.851130e+02	-3.168090e+01
4.879150e+02	-3.173034e+01
4.907332e+02	-3.177991e+01
4.935676e+02	-3.183547e+01
4.964185e+02	-3.188623e+01
4.992858e+02	-3.193142e+01
5.021696e+02	-3.197631e+01
5.050701e+02	-3.203289e+01
5.079874e+02	-3.207716e+01
5.109215e+02	-3.213473e+01
5.138726e+02	-3.218326e+01
5.168407e+02	-3.223208e+01
5.198259e+02	-3.228203e+01
5.228284e+02	-3.233575e+01
5.258482e+02	-3.238312e+01
5.288855e+02	-3.242749e+01
5.319403e+02	-3.248055e+01
5.350128e+02	-3.253359e+01
5.381030e+02	-3.258123e+01
5.412111e+02	-3.263255e+01
5.443371e+02	-3.268211e+01
5.474812e+02	-3.273824e+01
5.506434e+02	-3.278036e+01
5.538239e+02	-3.283310e+01
5.570228e+02	-3.288711e+01
5.602401e+02	-3.294338e+01
5.634760e+02	-3.298561e+01
5.667306e+02	-3.303327e+01
5.700040e+02	-3.308472e+01
5.732964e+02	-3.314202e+01
5.766077e+02	-3.318465e+01
5.799382e+02	-3.323530e+01
5.832879e+02	-3.328524e+01
5.866569e+02	-3.333286e+01
5.900454e+02	-3.338734e+01
5.934535e+02	-3.344914e+01
5.968813e+02	-3.348630e+01
6.003288e+02	-3.353395e+01
6.037963e+02	-3.358428e+01
6.072838e+02	-3.364250e+01
6.107914e+02	-3.369173e+01
6.143194e+02	-3.374275e+01
6.178676e+02	-3.378835e+01
6.214364e+02	-3.384255e+01
6.250258e+02	-3.388851e+01
6.286359e+02	-3.394415e+01
6.322669e+02	-3.399680e+01
6.359189e+02	-3.404760e+01
6.395919e+02	-3.408888e+01
6.432862e+02	-3.414224e+01
6.470017e+02	-3.419207e+01
6.507388e+02	-3.424421e+01
6.544974e+02	-3.430011e+01
6.582778e+02	-3.433905e+01
6.620800e+02	-3.439755e+01
6.659041e+02	-3.444307e+01
6.697504e+02	-3.449789e+01
6.736188e+02	-3.455156e+01
6.775096e+02	-3.459577e+01
6.814229e+02	-3.464282e+01
6.853587e+02	-3.469295e+01
6.893173e+02	-3.475148e+01
6.932988e+02	-3.478804e+01
6.973033e+02	-3.484416e+01
7.013309e+02	-3.488967e+01
