Frequency(Hz)	Magnitude(dB)
1.000000e+01	-1.658992e-05
1.005776e+01	-1.678212e-05
1.011585e+01	-1.697655e-05
1.017428e+01	-1.717322e-05
1.023305e+01	-1.737218e-05
1.029215e+01	-1.757344e-05
1.035160e+01	-1.777703e-05
1.041139e+01	-1.798299e-05
1.047153e+01	-1.819132e-05
1.053201e+01	-1.840207e-05
1.059284e+01	-1.861527e-05
1.065403e+01	-1.883093e-05
1.071556e+01	-1.904909e-05
1.077746e+01	-1.926978e-05
1.083971e+01	-1.949302e-05
1.090232e+01	-1.971886e-05
1.096529e+01	-1.994730e-05
1.102862e+01	-2.017840e-05
1.109232e+01	-2.041217e-05
1.115639e+01	-2.064865e-05
1.122083e+01	-2.088787e-05
1.128564e+01	-2.112986e-05
1.135083e+01	-2.137466e-05
1.141639e+01	-2.162229e-05
1.148233e+01	-2.187279e-05
1.154865e+01	-2.212619e-05
1.161536e+01	-2.238253e-05
1.168245e+01	-2.264183e-05
1.174992e+01	-2.290415e-05
1.181779e+01	-2.316950e-05
1.188605e+01	-2.343792e-05
1.195470e+01	-2.370945e-05
1.202375e+01	-2.398413e-05
1.209320e+01	-2.426200e-05
1.216305e+01	-2.454308e-05
1.223330e+01	-2.482741e-05
1.230396e+01	-2.511505e-05
1.237503e+01	-2.540601e-05
1.244651e+01	-2.570035e-05
1.251840e+01	-2.599809e-05
1.259070e+01	-2.629928e-05
1.266343e+01	-2.660397e-05
1.273657e+01	-2.691218e-05
1.281014e+01	-2.722397e-05
1.288413e+01	-2.753936e-05
1.295855e+01	-2.785841e-05
1.303339e+01	-2.818116e-05
1.310867e+01	-2.850764e-05
1.318439e+01	-2.883791e-05
1.326054e+01	-2.917201e-05
1.333713e+01	-2.950997e-05
1.341417e+01	-2.985185e-05
1.349165e+01	-3.019769e-05
1.356958e+01	-3.054754e-05
1.364795e+01	-3.090144e-05
1.372678e+01	-3.125944e-05
1.380607e+01	-3.162159e-05
1.388581e+01	-3.198793e-05
1.396602e+01	-3.235852e-05
1.404668e+01	-3.273340e-05
1.412782e+01	-3.311263e-05
1.420942e+01	-3.349624e-05
1.429149e+01	-3.388430e-05
1.437404e+01	-3.427686e-05
1.445706e+01	-3.467397e-05
1.454057e+01	-3.507567e-05
1.462455e+01	-3.548203e-05
1.470902e+01	-3.589310e-05
1.479398e+01	-3.630893e-05
1.487943e+01	-3.672958e-05
1.496537e+01	-3.715510e-05
1.505181e+01	-3.758555e-05
1.513875e+01	-3.802099e-05
1.522619e+01	-3.846147e-05
1.531414e+01	-3.890705e-05
1.540259e+01	-3.935780e-05
1.549156e+01	-3.981377e-05
1.558103e+01	-4.027502e-05
1.567103e+01	-4.074162e-05
1.576155e+01	-4.121362e-05
1.585258e+01	-4.169109e-05
1.594415e+01	-4.217409e-05
1.603624e+01	-4.266268e-05
1.612886e+01	-4.315694e-05
1.622202e+01	-4.365692e-05
1.631572e+01	-4.416270e-05
1.640996e+01	-4.467433e-05
1.650474e+01	-4.519189e-05
1.660008e+01	-4.571545e-05
1.669596e+01	-4.624508e-05
1.679239e+01	-4.678083e-05
1.688938e+01	-4.732280e-05
1.698694e+01	-4.787105e-05
1.708505e+01	-4.842564e-05
1.718373e+01	-4.898666e-05
1.728299e+01	-4.955418e-05
1.738281e+01	-5.012828e-05
1.748322e+01	-5.070903e-05
1.758420e+01	-5.129650e-05
1.768576e+01	-5.189078e-05
1.778792e+01	-5.249195e-05
1.789066e+01	-5.310008e-05
1.799399e+01	-5.371525e-05
1.809793e+01	-5.433756e-05
1.820246e+01	-5.496707e-05
1.830760e+01	-5.560387e-05
1.841334e+01	-5.624806e-05
1.851969e+01	-5.689970e-05
1.862666e+01	-5.755889e-05
1.873425e+01	-5.822573e-05
1.884246e+01	-5.890028e-05
1.895129e+01	-5.958265e-05
1.906075e+01	-6.027293e-05
1.917085e+01	-6.097121e-05
1.928158e+01	-6.167757e-05
1.939295e+01	-6.239212e-05
1.950496e+01	-6.311494e-05
1.961762e+01	-6.384614e-05
1.973093e+01	-6.458581e-05
1.984490e+01	-6.533405e-05
1.995952e+01	-6.609096e-05
2.007480e+01	-6.685663e-05
2.019076e+01	-6.763118e-05
2.030738e+01	-6.841470e-05
2.042467e+01	-6.920730e-05
2.054264e+01	-7.000908e-05
2.066130e+01	-7.082014e-05
2.078064e+01	-7.164061e-05
2.090066e+01	-7.247058e-05
2.102139e+01	-7.331016e-05
2.114280e+01	-7.415947e-05
2.126492e+01	-7.501862e-05
2.138775e+01	-7.588773e-05
2.151128e+01	-7.676690e-05
2.163553e+01	-7.765626e-05
2.176050e+01	-7.855592e-05
2.188619e+01	-7.946600e-05
2.201260e+01	-8.038663e-05
2.213974e+01	-8.131793e-05
2.226762e+01	-8.226001e-05
2.239624e+01	-8.321300e-05
2.252560e+01	-8.417704e-05
2.265571e+01	-8.515224e-05
2.278656e+01	-8.613875e-05
2.291818e+01	-8.713668e-05
2.305055e+01	-8.814617e-05
2.318369e+01	-8.916736e-05
2.331760e+01	-9.020038e-05
2.345228e+01	-9.124536e-05
2.358774e+01	-9.230245e-05
2.372398e+01	-9.337179e-05
2.386101e+01	-9.445352e-05
2.399883e+01	-9.554778e-05
2.413745e+01	-9.665471e-05
2.427686e+01	-9.777447e-05
2.441709e+01	-9.890720e-05
2.455812e+01	-1.000531e-04
2.469997e+01	-1.012122e-04
2.484263e+01	-1.023847e-04
2.498612e+01	-1.035709e-04
2.513044e+01	-1.047708e-04
2.527559e+01	-1.059846e-04
2.542158e+01	-1.072124e-04
2.556842e+01	-1.084545e-04
2.571610e+01	-1.097109e-04
2.586463e+01	-1.109819e-04
2.601403e+01	-1.122677e-04
2.616428e+01	-1.135683e-04
2.631541e+01	-1.148840e-04
2.646740e+01	-1.162150e-04
2.662028e+01	-1.175613e-04
2.677404e+01	-1.189233e-04
2.692868e+01	-1.203010e-04
2.708422e+01	-1.216947e-04
2.724066e+01	-1.231046e-04
2.739800e+01	-1.245308e-04
2.755625e+01	-1.259735e-04
2.771541e+01	-1.274329e-04
2.787550e+01	-1.289092e-04
2.803650e+01	-1.304026e-04
2.819844e+01	-1.319134e-04
2.836131e+01	-1.334416e-04
2.852513e+01	-1.349875e-04
2.868989e+01	-1.365514e-04
2.885560e+01	-1.381333e-04
2.902227e+01	-1.397336e-04
2.918990e+01	-1.413524e-04
2.935850e+01	-1.429900e-04
2.952807e+01	-1.446466e-04
2.969863e+01	-1.463223e-04
2.987016e+01	-1.480175e-04
3.004269e+01	-1.497323e-04
3.021622e+01	-1.514669e-04
3.039075e+01	-1.532217e-04
3.056628e+01	-1.549968e-04
3.074283e+01	-1.567924e-04
3.092040e+01	-1.586089e-04
3.109900e+01	-1.604464e-04
3.127862e+01	-1.623051e-04
3.145929e+01	-1.641855e-04
3.164099e+01	-1.660876e-04
3.182375e+01	-1.680117e-04
3.200756e+01	-1.699581e-04
3.219244e+01	-1.719271e-04
3.237838e+01	-1.739189e-04
3.256540e+01	-1.759337e-04
3.275349e+01	-1.779719e-04
3.294268e+01	-1.800337e-04
3.313295e+01	-1.821194e-04
3.332433e+01	-1.842293e-04
3.351681e+01	-1.863636e-04
3.371040e+01	-1.885226e-04
3.390511e+01	-1.907067e-04
3.410094e+01	-1.929160e-04
3.429791e+01	-1.951509e-04
3.449601e+01	-1.974118e-04
3.469526e+01	-1.996988e-04
3.489566e+01	-2.020123e-04
3.509721e+01	-2.043526e-04
3.529993e+01	-2.067200e-04
3.550382e+01	-2.091149e-04
3.570889e+01	-2.115375e-04
3.591515e+01	-2.139881e-04
3.612259e+01	-2.164672e-04
3.633123e+01	-2.189750e-04
3.654108e+01	-2.215118e-04
3.675214e+01	-2.240780e-04
3.696442e+01	-2.266739e-04
3.717792e+01	-2.292999e-04
3.739266e+01	-2.319564e-04
3.760864e+01	-2.346436e-04
3.782587e+01	-2.373619e-04
3.804435e+01	-2.401118e-04
3.826409e+01	-2.428934e-04
3.848510e+01	-2.457073e-04
3.870739e+01	-2.485539e-04
3.893096e+01	-2.514333e-04
3.915583e+01	-2.543462e-04
3.938199e+01	-2.572928e-04
3.960946e+01	-2.602735e-04
3.983824e+01	-2.632887e-04
4.006834e+01	-2.663389e-04
4.029978e+01	-2.694244e-04
4.053255e+01	-2.725457e-04
4.076666e+01	-2.757031e-04
4.100213e+01	-2.788971e-04
4.123896e+01	-2.821281e-04
4.147715e+01	-2.853965e-04
4.171672e+01	-2.887028e-04
4.195767e+01	-2.920474e-04
4.220002e+01	-2.954307e-04
4.244377e+01	-2.988533e-04
4.268892e+01	-3.023154e-04
4.293549e+01	-3.058177e-04
4.318348e+01	-3.093606e-04
4.343291e+01	-3.129445e-04
4.368377e+01	-3.165699e-04
4.393609e+01	-3.202373e-04
4.418986e+01	-3.239472e-04
4.444510e+01	-3.277001e-04
4.470182e+01	-3.314964e-04
4.496001e+01	-3.353368e-04
4.521970e+01	-3.392216e-04
4.548089e+01	-3.431514e-04
4.574358e+01	-3.471267e-04
4.600779e+01	-3.511481e-04
4.627353e+01	-3.552161e-04
4.654081e+01	-3.593312e-04
4.680963e+01	-3.634940e-04
4.708000e+01	-3.677050e-04
4.735193e+01	-3.719648e-04
4.762543e+01	-3.762739e-04
4.790051e+01	-3.806330e-04
4.817719e+01	-3.850425e-04
4.845545e+01	-3.895031e-04
4.873533e+01	-3.940154e-04
4.901682e+01	-3.985800e-04
4.929994e+01	-4.031974e-04
4.958470e+01	-4.078684e-04
4.987110e+01	-4.125934e-04
5.015915e+01	-4.173732e-04
5.044887e+01	-4.222084e-04
5.074026e+01	-4.270995e-04
5.103333e+01	-4.320473e-04
5.132810e+01	-4.370525e-04
5.162457e+01	-4.421156e-04
5.192275e+01	-4.472374e-04
5.222265e+01	-4.524185e-04
5.252429e+01	-4.576596e-04
5.282767e+01	-4.629614e-04
5.313280e+01	-4.683246e-04
5.343969e+01	-4.737500e-04
5.374836e+01	-4.792382e-04
5.405880e+01	-4.847900e-04
5.437105e+01	-4.904062e-04
5.468509e+01	-4.960873e-04
5.500095e+01	-5.018343e-04
5.531863e+01	-5.076478e-04
5.563815e+01	-5.135287e-04
5.595951e+01	-5.194778e-04
5.628273e+01	-5.254957e-04
5.660782e+01	-5.315833e-04
5.693479e+01	-5.377415e-04
5.726364e+01	-5.439710e-04
5.759439e+01	-5.502726e-04
5.792705e+01	-5.566473e-04
5.826164e+01	-5.630958e-04
5.859815e+01	-5.696190e-04
5.893662e+01	-5.762177e-04
5.927703e+01	-5.828929e-04
5.961941e+01	-5.896454e-04
5.996377e+01	-5.964762e-04
6.031012e+01	-6.033860e-04
6.065847e+01	-6.103759e-04
6.100883e+01	-6.174468e-04
6.136121e+01	-6.245996e-04
6.171563e+01	-6.318352e-04
6.207210e+01	-6.391547e-04
6.243063e+01	-6.465589e-04
6.279122e+01	-6.540489e-04
6.315390e+01	-6.616256e-04
6.351868e+01	-6.692902e-04
6.388556e+01	-6.770435e-04
6.425456e+01	-6.848866e-04
6.462569e+01	-6.928206e-04
6.499897e+01	-7.008464e-04
6.537440e+01	-7.089653e-04
6.575200e+01	-7.171781e-04
6.613178e+01	-7.254862e-04
6.651375e+01	-7.338904e-04
6.689793e+01	-7.423920e-04
6.728433e+01	-7.509921e-04
6.767297e+01	-7.596918e-04
6.806384e+01	-7.684922e-04
6.845698e+01	-7.773946e-04
6.885238e+01	-7.864001e-04
6.925007e+01	-7.955100e-04
6.965005e+01	-8.047253e-04
7.005235e+01	-8.140474e-04
7.045697e+01	-8.234775e-04
7.086393e+01	-8.330168e-04
7.127323e+01	-8.426665e-04
7.168490e+01	-8.524281e-04
7.209895e+01	-8.623027e-04
7.251539e+01	-8.722918e-04
7.293424e+01	-8.823965e-04
7.335551e+01	-8.926182e-04
7.377920e+01	-9.029584e-04
7.420535e+01	-9.134183e-04
7.463396e+01	-9.239994e-04
7.506504e+01	-9.347030e-04
7.549861e+01	-9.455306e-04
7.593469e+01	-9.564836e-04
7.637328e+01	-9.675635e-04
7.681441e+01	-9.787717e-04
7.725809e+01	-9.901098e-04
7.770433e+01	-1.001579e-03
7.815315e+01	-1.013181e-03
7.860456e+01	-1.024918e-03
7.905857e+01	-1.036791e-03
7.951521e+01	-1.048801e-03
7.997449e+01	-1.060950e-03
8.043642e+01	-1.073240e-03
8.090102e+01	-1.085672e-03
8.136830e+01	-1.098248e-03
8.183828e+01	-1.110970e-03
8.231097e+01	-1.123839e-03
8.278640e+01	-1.136857e-03
8.326457e+01	-1.150026e-03
8.374550e+01	-1.163348e-03
8.422921e+01	-1.176824e-03
8.471572e+01	-1.190456e-03
8.520503e+01	-1.204246e-03
8.569717e+01	-1.218195e-03
8.619215e+01	-1.232306e-03
8.669000e+01	-1.246581e-03
8.719071e+01	-1.261021e-03
8.769432e+01	-1.275628e-03
8.820084e+01	-1.290404e-03
8.871029e+01	-1.305352e-03
8.922267e+01	-1.320472e-03
8.973802e+01	-1.335768e-03
9.025634e+01	-1.351241e-03
9.077766e+01	-1.366893e-03
9.130199e+01	-1.382726e-03
9.182935e+01	-1.398743e-03
9.235975e+01	-1.414945e-03
9.289321e+01	-1.431335e-03
9.342976e+01	-1.447914e-03
9.396941e+01	-1.464686e-03
9.451217e+01	-1.481652e-03
9.505807e+01	-1.498814e-03
9.560712e+01	-1.516175e-03
9.615934e+01	-1.533738e-03
9.671476e+01	-1.551503e-03
9.727338e+01	-1.569475e-03
9.783522e+01	-1.587654e-03
9.840032e+01	-1.606044e-03
9.896867e+01	-1.624647e-03
9.954031e+01	-1.643465e-03
1.001153e+02	-1.662502e-03
1.006935e+02	-1.681758e-03
1.012751e+02	-1.701238e-03
1.018601e+02	-1.720944e-03
1.024484e+02	-1.740877e-03
1.030402e+02	-1.761042e-03
1.036353e+02	-1.781440e-03
1.042339e+02	-1.802074e-03
1.048360e+02	-1.822947e-03
1.054415e+02	-1.844062e-03
1.060505e+02	-1.865421e-03
1.066631e+02	-1.887028e-03
1.072791e+02	-1.908885e-03
1.078988e+02	-1.930995e-03
1.085220e+02	-1.953361e-03
1.091488e+02	-1.975986e-03
1.097793e+02	-1.998873e-03
1.104133e+02	-2.022025e-03
1.110511e+02	-2.045445e-03
1.116925e+02	-2.069137e-03
1.123376e+02	-2.093102e-03
1.129865e+02	-2.117346e-03
1.136391e+02	-2.141870e-03
1.142955e+02	-2.166677e-03
1.149556e+02	-2.191773e-03
1.156196e+02	-2.217158e-03
1.162874e+02	-2.242838e-03
1.169591e+02	-2.268815e-03
1.176347e+02	-2.295093e-03
1.183141e+02	-2.321675e-03
1.189975e+02	-2.348565e-03
1.196848e+02	-2.375767e-03
1.203761e+02	-2.403283e-03
1.210714e+02	-2.431118e-03
1.217707e+02	-2.459275e-03
1.224740e+02	-2.487758e-03
1.231814e+02	-2.516571e-03
1.238929e+02	-2.545718e-03
1.246085e+02	-2.575202e-03
1.253283e+02	-2.605027e-03
1.260522e+02	-2.635198e-03
1.267802e+02	-2.665718e-03
1.275125e+02	-2.696591e-03
1.282490e+02	-2.727822e-03
1.289898e+02	-2.759415e-03
1.297348e+02	-2.791373e-03
1.304842e+02	-2.823701e-03
1.312378e+02	-2.856404e-03
1.319959e+02	-2.889485e-03
1.327583e+02	-2.922949e-03
1.335251e+02	-2.956801e-03
1.342963e+02	-2.991044e-03
1.350720e+02	-3.025684e-03
1.358522e+02	-3.060725e-03
1.366368e+02	-3.096172e-03
1.374260e+02	-3.132029e-03
1.382198e+02	-3.168301e-03
1.390182e+02	-3.204993e-03
1.398211e+02	-3.242110e-03
1.406287e+02	-3.279656e-03
1.414410e+02	-3.317637e-03
1.422579e+02	-3.356058e-03
1.430796e+02	-3.394924e-03
1.439060e+02	-3.434239e-03
1.447372e+02	-3.474010e-03
1.455732e+02	-3.514241e-03
1.464141e+02	-3.554938e-03
1.472597e+02	-3.596105e-03
1.481103e+02	-3.637750e-03
1.489658e+02	-3.679876e-03
1.498262e+02	-3.722490e-03
1.506916e+02	-3.765598e-03
1.515620e+02	-3.809204e-03
1.524374e+02	-3.853315e-03
1.533179e+02	-3.897936e-03
1.542034e+02	-3.943074e-03
1.550941e+02	-3.988735e-03
1.559899e+02	-4.034924e-03
1.568909e+02	-4.081648e-03
1.577971e+02	-4.128912e-03
1.587085e+02	-4.176724e-03
1.596252e+02	-4.225088e-03
1.605472e+02	-4.274013e-03
1.614745e+02	-4.323504e-03
1.624072e+02	-4.373567e-03
1.633453e+02	-4.424211e-03
1.642887e+02	-4.475440e-03
1.652377e+02	-4.527262e-03
1.661921e+02	-4.579684e-03
1.671520e+02	-4.632712e-03
1.681175e+02	-4.686354e-03
1.690885e+02	-4.740617e-03
1.700651e+02	-4.795508e-03
1.710474e+02	-4.851034e-03
1.720354e+02	-4.907203e-03
1.730291e+02	-4.964021e-03
1.740285e+02	-5.021498e-03
1.750337e+02	-5.079639e-03
1.760446e+02	-5.138453e-03
1.770615e+02	-5.197947e-03
1.780842e+02	-5.258130e-03
1.791128e+02	-5.319010e-03
1.801473e+02	-5.380594e-03
1.811878e+02	-5.442890e-03
1.822344e+02	-5.505907e-03
1.832870e+02	-5.569654e-03
1.843456e+02	-5.634138e-03
1.854104e+02	-5.699368e-03
1.864813e+02	-5.765352e-03
1.875584e+02	-5.832100e-03
1.886418e+02	-5.899621e-03
1.897313e+02	-5.967922e-03
1.908272e+02	-6.037014e-03
1.919294e+02	-6.106905e-03
1.930380e+02	-6.177605e-03
1.941530e+02	-6.249122e-03
1.952744e+02	-6.321467e-03
1.964023e+02	-6.394649e-03
1.975367e+02	-6.468677e-03
1.986777e+02	-6.543562e-03
1.998252e+02	-6.619313e-03
2.009794e+02	-6.695940e-03
2.021403e+02	-6.773454e-03
2.033078e+02	-6.851864e-03
2.044821e+02	-6.931181e-03
2.056632e+02	-7.011415e-03
2.068511e+02	-7.092578e-03
2.080459e+02	-7.174679e-03
2.092475e+02	-7.257730e-03
2.104561e+02	-7.341741e-03
2.116717e+02	-7.426724e-03
2.128943e+02	-7.512690e-03
2.141240e+02	-7.599650e-03
2.153608e+02	-7.687616e-03
2.166047e+02	-7.776599e-03
2.178558e+02	-7.866611e-03
2.191141e+02	-7.957664e-03
2.203797e+02	-8.049770e-03
2.216526e+02	-8.142941e-03
2.229329e+02	-8.237189e-03
2.242205e+02	-8.332527e-03
2.255156e+02	-8.428968e-03
2.268182e+02	-8.526523e-03
2.281283e+02	-8.625207e-03
2.294459e+02	-8.725031e-03
2.307712e+02	-8.826010e-03
2.321041e+02	-8.928156e-03
2.334447e+02	-9.031483e-03
2.347931e+02	-9.136005e-03
2.361493e+02	-9.241735e-03
2.375133e+02	-9.348687e-03
2.388851e+02	-9.456876e-03
2.402649e+02	-9.566315e-03
2.416527e+02	-9.677020e-03
2.430484e+02	-9.789004e-03
2.444523e+02	-9.902282e-03
2.458642e+02	-1.001687e-02
2.472843e+02	-1.013278e-02
2.487126e+02	-1.025003e-02
2.501492e+02	-1.036864e-02
2.515940e+02	-1.048862e-02
2.530472e+02	-1.060998e-02
2.545088e+02	-1.073275e-02
2.559789e+02	-1.085694e-02
2.574574e+02	-1.098256e-02
2.589444e+02	-1.110963e-02
2.604401e+02	-1.123817e-02
2.619444e+02	-1.136820e-02
2.634574e+02	-1.149972e-02
2.649791e+02	-1.163277e-02
2.665096e+02	-1.176736e-02
2.680489e+02	-1.190350e-02
2.695972e+02	-1.204121e-02
2.711544e+02	-1.218052e-02
2.727205e+02	-1.232143e-02
2.742958e+02	-1.246397e-02
2.758801e+02	-1.260816e-02
2.774736e+02	-1.275401e-02
2.790762e+02	-1.290155e-02
2.806882e+02	-1.305079e-02
2.823094e+02	-1.320176e-02
2.839400e+02	-1.335447e-02
2.855800e+02	-1.350894e-02
2.872295e+02	-1.366520e-02
2.888886e+02	-1.382326e-02
2.905572e+02	-1.398315e-02
2.922354e+02	-1.414488e-02
2.939234e+02	-1.430848e-02
2.956211e+02	-1.447397e-02
2.973286e+02	-1.464138e-02
2.990459e+02	-1.481071e-02
3.007732e+02	-1.498200e-02
3.025104e+02	-1.515526e-02
3.042577e+02	-1.533053e-02
3.060151e+02	-1.550782e-02
3.077826e+02	-1.568716e-02
3.095604e+02	-1.586856e-02
3.113484e+02	-1.605206e-02
3.131467e+02	-1.623768e-02
3.149554e+02	-1.642544e-02
3.167746e+02	-1.661537e-02
3.186043e+02	-1.680749e-02
3.204445e+02	-1.700183e-02
3.222954e+02	-1.719841e-02
3.241570e+02	-1.739725e-02
3.260293e+02	-1.759840e-02
3.279124e+02	-1.780186e-02
3.298064e+02	-1.800767e-02
3.317114e+02	-1.821585e-02
3.336273e+02	-1.842644e-02
3.355544e+02	-1.863945e-02
3.374925e+02	-1.885493e-02
3.394418e+02	-1.907288e-02
3.414024e+02	-1.929336e-02
3.433744e+02	-1.951637e-02
3.453577e+02	-1.974196e-02
3.473525e+02	-1.997015e-02
3.493588e+02	-2.020096e-02
3.513766e+02	-2.043445e-02
3.534062e+02	-2.067062e-02
3.554474e+02	-2.090951e-02
3.575005e+02	-2.115116e-02
3.595654e+02	-2.139560e-02
3.616422e+02	-2.164285e-02
3.637311e+02	-2.189296e-02
3.658320e+02	-2.214594e-02
3.679450e+02	-2.240185e-02
3.700702e+02	-2.266070e-02
3.722077e+02	-2.292253e-02
3.743576e+02	-2.318739e-02
3.765199e+02	-2.345529e-02
3.786946e+02	-2.372628e-02
3.808820e+02	-2.400039e-02
3.830819e+02	-2.427766e-02
3.852946e+02	-2.455813e-02
3.875200e+02	-2.484183e-02
3.897583e+02	-2.512879e-02
3.920096e+02	-2.541906e-02
3.942738e+02	-2.571267e-02
3.965511e+02	-2.600966e-02
3.988416e+02	-2.631008e-02
4.011452e+02	-2.661395e-02
4.034622e+02	-2.692132e-02
4.057926e+02	-2.723223e-02
4.081365e+02	-2.754672e-02
4.104938e+02	-2.786483e-02
4.128648e+02	-2.818660e-02
4.152495e+02	-2.851207e-02
4.176480e+02	-2.884129e-02
4.200603e+02	-2.917430e-02
4.224866e+02	-2.951114e-02
4.249268e+02	-2.985185e-02
4.273812e+02	-3.019649e-02
4.298497e+02	-3.054509e-02
4.323325e+02	-3.089770e-02
4.348297e+02	-3.125436e-02
4.373412e+02	-3.161513e-02
4.398673e+02	-3.198005e-02
4.424079e+02	-3.234916e-02
4.449633e+02	-3.272252e-02
4.475334e+02	-3.310017e-02
4.501183e+02	-3.348216e-02
4.527182e+02	-3.386854e-02
4.553330e+02	-3.425937e-02
4.579630e+02	-3.465468e-02
4.606082e+02	-3.505454e-02
4.632687e+02	-3.545900e-02
4.659445e+02	-3.586810e-02
4.686358e+02	-3.628190e-02
4.713426e+02	-3.670045e-02
4.740650e+02	-3.712382e-02
4.768032e+02	-3.755204e-02
4.795572e+02	-3.798518e-02
4.823271e+02	-3.842330e-02
4.851130e+02	-3.886645e-02
4.879150e+02	-3.931468e-02
4.907332e+02	-3.976806e-02
4.935676e+02	-4.022665e-02
4.964185e+02	-4.069049e-02
4.992858e+02	-4.115966e-02
5.021696e+02	-4.163422e-02
5.050701e+02	-4.211422e-02
5.079874e+02	-4.259972e-02
5.109215e+02	-4.309080e-02
5.138726e+02	-4.358751e-02
5.168407e+02	-4.408991e-02
5.198259e+02	-4.459807e-02
5.228284e+02	-4.511207e-02
5.258482e+02	-4.563195e-02
5.288855e+02	-4.615779e-02
5.319403e+02	-4.668966e-02
5.350128e+02	-4.722763e-02
5.381030e+02	-4.777176e-02
5.412111e+02	-4.832212e-02
5.443371e+02	-4.887879e-02
5.474812e+02	-4.944183e-02
5.506434e+02	-5.001133e-02
5.538239e+02	-5.058734e-02
5.570228e+02	-5.116995e-02
5.602401e+02	-5.175923e-02
5.634760e+02	-5.235525e-02
5.667306e+02	-5.295810e-02
5.700040e+02	-5.356784e-02
5.732964e+02	-5.418456e-02
5.766077e+02	-5.480834e-02
5.799382e+02	-5.543925e-02
5.832879e+02	-5.607737e-02
5.866569e+02	-5.672280e-02
5.900454e+02	-5.737560e-02
5.934535e+02	-5.803586e-02
5.968813e+02	-5.870367e-02
6.003288e+02	-5.937912e-02
6.037963e+02	-6.006228e-02
6.072838e+02	-6.075324e-02
6.107914e+02	-6.145210e-02
6.143194e+02	-6.215894e-02
6.178676e+02	-6.287385e-02
6.214364e+02	-6.359692e-02
6.250258e+02	-6.432825e-02
6.286359e+02	-6.506792e-02
6.322669e+02	-6.581603e-02
6.359189e+02	-6.657268e-02
6.395919e+02	-6.733796e-02
6.432862e+02	-6.811197e-02
6.470017e+02	-6.889480e-02
6.507388e+02	-6.968656e-02
6.544974e+02	-7.048734e-02
6.582778e+02	-7.129725e-02
6.620800e+02	-7.211639e-02
6.659041e+02	-7.294486e-02
6.697504e+02	-7.378277e-02
6.736188e+02	-7.463022e-02
6.775096e+02	-7.548731e-02
6.814229e+02	-7.635417e-02
6.853587e+02	-7.723089e-02
6.893173e+02	-7.811758e-02
6.932988e+02	-7.901436e-02
6.973033e+02	-7.992135e-02
7.013309e+02	-8.083864e-02
