Frequency(Hz)	Magnitude(dB)
1.000000e+01	-1.874019e-05
1.005776e+01	-1.895729e-05
1.011585e+01	-1.917692e-05
1.017428e+01	-1.939909e-05
1.023305e+01	-1.962383e-05
1.029215e+01	-1.985118e-05
1.035160e+01	-2.008116e-05
1.041139e+01	-2.031381e-05
1.047153e+01	-2.054915e-05
1.053201e+01	-2.078721e-05
1.059284e+01	-2.102804e-05
1.065403e+01	-2.127165e-05
1.071556e+01	-2.151809e-05
1.077746e+01	-2.176738e-05
1.083971e+01	-2.201956e-05
1.090232e+01	-2.227467e-05
1.096529e+01	-2.253272e-05
1.102862e+01	-2.279377e-05
1.109232e+01	-2.305784e-05
1.115639e+01	-2.332497e-05
1.122083e+01	-2.359520e-05
1.128564e+01	-2.386856e-05
1.135083e+01	-2.414508e-05
1.141639e+01	-2.442481e-05
1.148233e+01	-2.470777e-05
1.154865e+01	-2.499402e-05
1.161536e+01	-2.528358e-05
1.168245e+01	-2.557650e-05
1.174992e+01	-2.587281e-05
1.181779e+01	-2.617255e-05
1.188605e+01	-2.647577e-05
1.195470e+01	-2.678249e-05
1.202375e+01	-2.709278e-05
1.209320e+01	-2.740665e-05
1.216305e+01	-2.772416e-05
1.223330e+01	-2.804536e-05
1.230396e+01	-2.837027e-05
1.237503e+01	-2.869894e-05
1.244651e+01	-2.903143e-05
1.251840e+01	-2.936776e-05
1.259070e+01	-2.970800e-05
1.266343e+01	-3.005217e-05
1.273657e+01	-3.040033e-05
1.281014e+01	-3.075253e-05
1.288413e+01	-3.110880e-05
1.295855e+01	-3.146921e-05
1.303339e+01	-3.183379e-05
1.310867e+01	-3.220259e-05
1.318439e+01	-3.257566e-05
1.326054e+01	-3.295306e-05
1.333713e+01	-3.333483e-05
1.341417e+01	-3.372102e-05
1.349165e+01	-3.411168e-05
1.356958e+01	-3.450688e-05
1.364795e+01	-3.490665e-05
1.372678e+01	-3.531105e-05
1.380607e+01	-3.572014e-05
1.388581e+01	-3.613396e-05
1.396602e+01	-3.655258e-05
1.404668e+01	-3.697605e-05
1.412782e+01	-3.740443e-05
1.420942e+01	-3.783777e-05
1.429149e+01	-3.827613e-05
1.437404e+01	-3.871956e-05
1.445706e+01	-3.916814e-05
1.454057e+01	-3.962191e-05
1.462455e+01	-4.008094e-05
1.470902e+01	-4.054529e-05
1.479398e+01	-4.101501e-05
1.487943e+01	-4.149018e-05
1.496537e+01	-4.197085e-05
1.505181e+01	-4.245710e-05
1.513875e+01	-4.294897e-05
1.522619e+01	-4.344654e-05
1.531414e+01	-4.394988e-05
1.540259e+01	-4.445905e-05
1.549156e+01	-4.497412e-05
1.558103e+01	-4.549515e-05
1.567103e+01	-4.602222e-05
1.576155e+01	-4.655540e-05
1.585258e+01	-4.709476e-05
1.594415e+01	-4.764036e-05
1.603624e+01	-4.819228e-05
1.612886e+01	-4.875060e-05
1.622202e+01	-4.931539e-05
1.631572e+01	-4.988672e-05
1.640996e+01	-5.046466e-05
1.650474e+01	-5.104931e-05
1.660008e+01	-5.164073e-05
1.669596e+01	-5.223899e-05
1.679239e+01	-5.284419e-05
1.688938e+01	-5.345640e-05
1.698694e+01	-5.407571e-05
1.708505e+01	-5.470219e-05
1.718373e+01	-5.533592e-05
1.728299e+01	-5.597700e-05
1.738281e+01	-5.662551e-05
1.748322e+01	-5.728152e-05
1.758420e+01	-5.794514e-05
1.768576e+01	-5.861645e-05
1.778792e+01	-5.929553e-05
1.789066e+01	-5.998248e-05
1.799399e+01	-6.067739e-05
1.809793e+01	-6.138035e-05
1.820246e+01	-6.209145e-05
1.830760e+01	-6.281080e-05
1.841334e+01	-6.353847e-05
1.851969e+01	-6.427458e-05
1.862666e+01	-6.501921e-05
1.873425e+01	-6.577247e-05
1.884246e+01	-6.653446e-05
1.895129e+01	-6.730527e-05
1.906075e+01	-6.808502e-05
1.917085e+01	-6.887379e-05
1.928158e+01	-6.967171e-05
1.939295e+01	-7.047887e-05
1.950496e+01	-7.129538e-05
1.961762e+01	-7.212135e-05
1.973093e+01	-7.295689e-05
1.984490e+01	-7.380211e-05
1.995952e+01	-7.465712e-05
2.007480e+01	-7.552203e-05
2.019076e+01	-7.639697e-05
2.030738e+01	-7.728204e-05
2.042467e+01	-7.817737e-05
2.054264e+01	-7.908307e-05
2.066130e+01	-7.999926e-05
2.078064e+01	-8.092606e-05
2.090066e+01	-8.186360e-05
2.102139e+01	-8.281201e-05
2.114280e+01	-8.377140e-05
2.126492e+01	-8.474191e-05
2.138775e+01	-8.572365e-05
2.151128e+01	-8.671678e-05
2.163553e+01	-8.772140e-05
2.176050e+01	-8.873767e-05
2.188619e+01	-8.976571e-05
2.201260e+01	-9.080566e-05
2.213974e+01	-9.185766e-05
2.226762e+01	-9.292184e-05
2.239624e+01	-9.399836e-05
2.252560e+01	-9.508734e-05
2.265571e+01	-9.618895e-05
2.278656e+01	-9.730331e-05
2.291818e+01	-9.843058e-05
2.305055e+01	-9.957091e-05
2.318369e+01	-1.007245e-04
2.331760e+01	-1.018914e-04
2.345228e+01	-1.030718e-04
2.358774e+01	-1.042659e-04
2.372398e+01	-1.054738e-04
2.386101e+01	-1.066958e-04
2.399883e+01	-1.079318e-04
2.413745e+01	-1.091822e-04
2.427686e+01	-1.104471e-04
2.441709e+01	-1.117267e-04
2.455812e+01	-1.130210e-04
2.469997e+01	-1.143304e-04
2.484263e+01	-1.156549e-04
2.498612e+01	-1.169948e-04
2.513044e+01	-1.183502e-04
2.527559e+01	-1.197213e-04
2.542158e+01	-1.211083e-04
2.556842e+01	-1.225114e-04
2.571610e+01	-1.239307e-04
2.586463e+01	-1.253664e-04
2.601403e+01	-1.268188e-04
2.616428e+01	-1.282880e-04
2.631541e+01	-1.297742e-04
2.646740e+01	-1.312777e-04
2.662028e+01	-1.327986e-04
2.677404e+01	-1.343370e-04
2.692868e+01	-1.358933e-04
2.708422e+01	-1.374677e-04
2.724066e+01	-1.390603e-04
2.739800e+01	-1.406713e-04
2.755625e+01	-1.423010e-04
2.771541e+01	-1.439495e-04
2.787550e+01	-1.456172e-04
2.803650e+01	-1.473042e-04
2.819844e+01	-1.490107e-04
2.836131e+01	-1.507370e-04
2.852513e+01	-1.524833e-04
2.868989e+01	-1.542499e-04
2.885560e+01	-1.560369e-04
2.902227e+01	-1.578446e-04
2.918990e+01	-1.596732e-04
2.935850e+01	-1.615230e-04
2.952807e+01	-1.633943e-04
2.969863e+01	-1.652872e-04
2.987016e+01	-1.672021e-04
3.004269e+01	-1.691391e-04
3.021622e+01	-1.710986e-04
3.039075e+01	-1.730808e-04
3.056628e+01	-1.750859e-04
3.074283e+01	-1.771143e-04
3.092040e+01	-1.791662e-04
3.109900e+01	-1.812418e-04
3.127862e+01	-1.833415e-04
3.145929e+01	-1.854655e-04
3.164099e+01	-1.876142e-04
3.182375e+01	-1.897877e-04
3.200756e+01	-1.919864e-04
3.219244e+01	-1.942105e-04
3.237838e+01	-1.964605e-04
3.256540e+01	-1.987365e-04
3.275349e+01	-2.010388e-04
3.294268e+01	-2.033679e-04
3.313295e+01	-2.057239e-04
3.332433e+01	-2.081072e-04
3.351681e+01	-2.105181e-04
3.371040e+01	-2.129570e-04
3.390511e+01	-2.154241e-04
3.410094e+01	-2.179198e-04
3.429791e+01	-2.204444e-04
3.449601e+01	-2.229982e-04
3.469526e+01	-2.255816e-04
3.489566e+01	-2.281950e-04
3.509721e+01	-2.308386e-04
3.529993e+01	-2.335129e-04
3.550382e+01	-2.362181e-04
3.570889e+01	-2.389547e-04
3.591515e+01	-2.417230e-04
3.612259e+01	-2.445233e-04
3.633123e+01	-2.473561e-04
3.654108e+01	-2.502217e-04
3.675214e+01	-2.531205e-04
3.696442e+01	-2.560529e-04
3.717792e+01	-2.590193e-04
3.739266e+01	-2.620200e-04
3.760864e+01	-2.650555e-04
3.782587e+01	-2.681261e-04
3.804435e+01	-2.712323e-04
3.826409e+01	-2.743745e-04
3.848510e+01	-2.775531e-04
3.870739e+01	-2.807686e-04
3.893096e+01	-2.840212e-04
3.915583e+01	-2.873116e-04
3.938199e+01	-2.906401e-04
3.960946e+01	-2.940071e-04
3.983824e+01	-2.974131e-04
4.006834e+01	-3.008586e-04
4.029978e+01	-3.043441e-04
4.053255e+01	-3.078698e-04
4.076666e+01	-3.114365e-04
4.100213e+01	-3.150444e-04
4.123896e+01	-3.186942e-04
4.147715e+01	-3.223862e-04
4.171672e+01	-3.261210e-04
4.195767e+01	-3.298990e-04
4.220002e+01	-3.337209e-04
4.244377e+01	-3.375870e-04
4.268892e+01	-3.414978e-04
4.293549e+01	-3.454540e-04
4.318348e+01	-3.494561e-04
4.343291e+01	-3.535044e-04
4.368377e+01	-3.575997e-04
4.393609e+01	-3.617424e-04
4.418986e+01	-3.659331e-04
4.444510e+01	-3.701724e-04
4.470182e+01	-3.744608e-04
4.496001e+01	-3.787988e-04
4.521970e+01	-3.831871e-04
4.548089e+01	-3.876262e-04
4.574358e+01	-3.921168e-04
4.600779e+01	-3.966594e-04
4.627353e+01	-4.012546e-04
4.654081e+01	-4.059030e-04
4.680963e+01	-4.106053e-04
4.708000e+01	-4.153620e-04
4.735193e+01	-4.201739e-04
4.762543e+01	-4.250415e-04
4.790051e+01	-4.299654e-04
4.817719e+01	-4.349464e-04
4.845545e+01	-4.399852e-04
4.873533e+01	-4.450823e-04
4.901682e+01	-4.502384e-04
4.929994e+01	-4.554543e-04
4.958470e+01	-4.607305e-04
4.987110e+01	-4.660679e-04
5.015915e+01	-4.714672e-04
5.044887e+01	-4.769290e-04
5.074026e+01	-4.824540e-04
5.103333e+01	-4.880430e-04
5.132810e+01	-4.936968e-04
5.162457e+01	-4.994161e-04
5.192275e+01	-5.052017e-04
5.222265e+01	-5.110542e-04
5.252429e+01	-5.169746e-04
5.282767e+01	-5.229635e-04
5.313280e+01	-5.290218e-04
5.343969e+01	-5.351503e-04
5.374836e+01	-5.413498e-04
5.405880e+01	-5.476211e-04
5.437105e+01	-5.539650e-04
5.468509e+01	-5.603824e-04
5.500095e+01	-5.668742e-04
5.531863e+01	-5.734411e-04
5.563815e+01	-5.800842e-04
5.595951e+01	-5.868042e-04
5.628273e+01	-5.936020e-04
5.660782e+01	-6.004786e-04
5.693479e+01	-6.074348e-04
5.726364e+01	-6.144716e-04
5.759439e+01	-6.215899e-04
5.792705e+01	-6.287907e-04
5.826164e+01	-6.360748e-04
5.859815e+01	-6.434434e-04
5.893662e+01	-6.508973e-04
5.927703e+01	-6.584376e-04
5.961941e+01	-6.660652e-04
5.996377e+01	-6.737811e-04
6.031012e+01	-6.815864e-04
6.065847e+01	-6.894822e-04
6.100883e+01	-6.974694e-04
6.136121e+01	-7.055491e-04
6.171563e+01	-7.137224e-04
6.207210e+01	-7.219904e-04
6.243063e+01	-7.303541e-04
6.279122e+01	-7.388148e-04
6.315390e+01	-7.473734e-04
6.351868e+01	-7.560312e-04
6.388556e+01	-7.647892e-04
6.425456e+01	-7.736487e-04
6.462569e+01	-7.826109e-04
6.499897e+01	-7.916768e-04
6.537440e+01	-8.008477e-04
6.575200e+01	-8.101249e-04
6.613178e+01	-8.195095e-04
6.651375e+01	-8.290029e-04
6.689793e+01	-8.386062e-04
6.728433e+01	-8.483207e-04
6.767297e+01	-8.581478e-04
6.806384e+01	-8.680887e-04
6.845698e+01	-8.781447e-04
6.885238e+01	-8.883172e-04
6.925007e+01	-8.986075e-04
6.965005e+01	-9.090170e-04
7.005235e+01	-9.195471e-04
7.045697e+01	-9.301992e-04
7.086393e+01	-9.409747e-04
7.127323e+01	-9.518749e-04
7.168490e+01	-9.629014e-04
7.209895e+01	-9.740556e-04
7.251539e+01	-9.853391e-04
7.293424e+01	-9.967532e-04
7.335551e+01	-1.008299e-03
7.377920e+01	-1.019980e-03
7.420535e+01	-1.031795e-03
7.463396e+01	-1.043747e-03
7.506504e+01	-1.055838e-03
7.549861e+01	-1.068068e-03
7.593469e+01	-1.080441e-03
7.637328e+01	-1.092956e-03
7.681441e+01	-1.105617e-03
7.725809e+01	-1.118424e-03
7.770433e+01	-1.131380e-03
7.815315e+01	-1.144485e-03
7.860456e+01	-1.157743e-03
7.905857e+01	-1.171154e-03
7.951521e+01	-1.184720e-03
7.997449e+01	-1.198443e-03
8.043642e+01	-1.212326e-03
8.090102e+01	-1.226369e-03
8.136830e+01	-1.240575e-03
8.183828e+01	-1.254945e-03
8.231097e+01	-1.269482e-03
8.278640e+01	-1.284187e-03
8.326457e+01	-1.299062e-03
8.374550e+01	-1.314110e-03
8.422921e+01	-1.329332e-03
8.471572e+01	-1.344730e-03
8.520503e+01	-1.360307e-03
8.569717e+01	-1.376064e-03
8.619215e+01	-1.392003e-03
8.669000e+01	-1.408127e-03
8.719071e+01	-1.424438e-03
8.769432e+01	-1.440938e-03
8.820084e+01	-1.457629e-03
8.871029e+01	-1.474513e-03
8.922267e+01	-1.491593e-03
8.973802e+01	-1.508870e-03
9.025634e+01	-1.526348e-03
9.077766e+01	-1.544028e-03
9.130199e+01	-1.561913e-03
9.182935e+01	-1.580005e-03
9.235975e+01	-1.598306e-03
9.289321e+01	-1.616819e-03
9.342976e+01	-1.635547e-03
9.396941e+01	-1.654492e-03
9.451217e+01	-1.673656e-03
9.505807e+01	-1.693042e-03
9.560712e+01	-1.712652e-03
9.615934e+01	-1.732490e-03
9.671476e+01	-1.752557e-03
9.727338e+01	-1.772857e-03
9.783522e+01	-1.793392e-03
9.840032e+01	-1.814164e-03
9.896867e+01	-1.835177e-03
9.954031e+01	-1.856434e-03
1.001153e+02	-1.877936e-03
1.006935e+02	-1.899688e-03
1.012751e+02	-1.921692e-03
1.018601e+02	-1.943950e-03
1.024484e+02	-1.966466e-03
1.030402e+02	-1.989243e-03
1.036353e+02	-2.012283e-03
1.042339e+02	-2.035591e-03
1.048360e+02	-2.059168e-03
1.054415e+02	-2.083018e-03
1.060505e+02	-2.107145e-03
1.066631e+02	-2.131551e-03
1.072791e+02	-2.156239e-03
1.078988e+02	-2.181213e-03
1.085220e+02	-2.206477e-03
1.091488e+02	-2.232033e-03
1.097793e+02	-2.257885e-03
1.104133e+02	-2.284036e-03
1.110511e+02	-2.310490e-03
1.116925e+02	-2.337251e-03
1.123376e+02	-2.364321e-03
1.129865e+02	-2.391705e-03
1.136391e+02	-2.419406e-03
1.142955e+02	-2.447427e-03
1.149556e+02	-2.475773e-03
1.156196e+02	-2.504447e-03
1.162874e+02	-2.533454e-03
1.169591e+02	-2.562796e-03
1.176347e+02	-2.592477e-03
1.183141e+02	-2.622503e-03
1.189975e+02	-2.652876e-03
1.196848e+02	-2.683601e-03
1.203761e+02	-2.714681e-03
1.210714e+02	-2.746122e-03
1.217707e+02	-2.777926e-03
1.224740e+02	-2.810098e-03
1.231814e+02	-2.842644e-03
1.238929e+02	-2.875565e-03
1.246085e+02	-2.908868e-03
1.253283e+02	-2.942557e-03
1.260522e+02	-2.976636e-03
1.267802e+02	-3.011109e-03
1.275125e+02	-3.045981e-03
1.282490e+02	-3.081257e-03
1.289898e+02	-3.116941e-03
1.297348e+02	-3.153039e-03
1.304842e+02	-3.189554e-03
1.312378e+02	-3.226492e-03
1.319959e+02	-3.263858e-03
1.327583e+02	-3.301656e-03
1.335251e+02	-3.339892e-03
1.342963e+02	-3.378570e-03
1.350720e+02	-3.417697e-03
1.358522e+02	-3.457276e-03
1.366368e+02	-3.497313e-03
1.374260e+02	-3.537814e-03
1.382198e+02	-3.578783e-03
1.390182e+02	-3.620227e-03
1.398211e+02	-3.662151e-03
1.406287e+02	-3.704560e-03
1.414410e+02	-3.747459e-03
1.422579e+02	-3.790856e-03
1.430796e+02	-3.834754e-03
1.439060e+02	-3.879161e-03
1.447372e+02	-3.924082e-03
1.455732e+02	-3.969522e-03
1.464141e+02	-4.015489e-03
1.472597e+02	-4.061988e-03
1.481103e+02	-4.109025e-03
1.489658e+02	-4.156606e-03
1.498262e+02	-4.204738e-03
1.506916e+02	-4.253427e-03
1.515620e+02	-4.302680e-03
1.524374e+02	-4.352502e-03
1.533179e+02	-4.402902e-03
1.542034e+02	-4.453884e-03
1.550941e+02	-4.505457e-03
1.559899e+02	-4.557626e-03
1.568909e+02	-4.610399e-03
1.577971e+02	-4.663783e-03
1.587085e+02	-4.717785e-03
1.596252e+02	-4.772412e-03
1.605472e+02	-4.827670e-03
1.614745e+02	-4.883569e-03
1.624072e+02	-4.940114e-03
1.633453e+02	-4.997313e-03
1.642887e+02	-5.055175e-03
1.652377e+02	-5.113706e-03
1.661921e+02	-5.172914e-03
1.671520e+02	-5.232807e-03
1.681175e+02	-5.293394e-03
1.690885e+02	-5.354681e-03
1.700651e+02	-5.416678e-03
1.710474e+02	-5.479392e-03
1.720354e+02	-5.542831e-03
1.730291e+02	-5.607005e-03
1.740285e+02	-5.671921e-03
1.750337e+02	-5.737588e-03
1.760446e+02	-5.804015e-03
1.770615e+02	-5.871210e-03
1.780842e+02	-5.939183e-03
1.791128e+02	-6.007943e-03
1.801473e+02	-6.077497e-03
1.811878e+02	-6.147857e-03
1.822344e+02	-6.219030e-03
1.832870e+02	-6.291027e-03
1.843456e+02	-6.363856e-03
1.854104e+02	-6.437529e-03
1.864813e+02	-6.512053e-03
1.875584e+02	-6.587439e-03
1.886418e+02	-6.663698e-03
1.897313e+02	-6.740838e-03
1.908272e+02	-6.818871e-03
1.919294e+02	-6.897807e-03
1.930380e+02	-6.977655e-03
1.941530e+02	-7.058427e-03
1.952744e+02	-7.140134e-03
1.964023e+02	-7.222785e-03
1.975367e+02	-7.306392e-03
1.986777e+02	-7.390966e-03
1.998252e+02	-7.476519e-03
2.009794e+02	-7.563060e-03
2.021403e+02	-7.650603e-03
2.033078e+02	-7.739158e-03
2.044821e+02	-7.828737e-03
2.056632e+02	-7.919352e-03
2.068511e+02	-8.011015e-03
2.080459e+02	-8.103738e-03
2.092475e+02	-8.197533e-03
2.104561e+02	-8.292412e-03
2.116717e+02	-8.388389e-03
2.128943e+02	-8.485475e-03
2.141240e+02	-8.583684e-03
2.153608e+02	-8.683029e-03
2.166047e+02	-8.783522e-03
2.178558e+02	-8.885177e-03
2.191141e+02	-8.988007e-03
2.203797e+02	-9.092026e-03
2.216526e+02	-9.197248e-03
2.229329e+02	-9.303686e-03
2.242205e+02	-9.411354e-03
2.255156e+02	-9.520267e-03
2.268182e+02	-9.630439e-03
2.281283e+02	-9.741885e-03
2.294459e+02	-9.854618e-03
2.307712e+02	-9.968655e-03
2.321041e+02	-1.008401e-02
2.334447e+02	-1.020070e-02
2.347931e+02	-1.031874e-02
2.361493e+02	-1.043814e-02
2.375133e+02	-1.055892e-02
2.388851e+02	-1.068109e-02
2.402649e+02	-1.080468e-02
2.416527e+02	-1.092970e-02
2.430484e+02	-1.105616e-02
2.444523e+02	-1.118408e-02
2.458642e+02	-1.131349e-02
2.472843e+02	-1.144438e-02
2.487126e+02	-1.157679e-02
2.501492e+02	-1.171073e-02
2.515940e+02	-1.184622e-02
2.530472e+02	-1.198327e-02
2.545088e+02	-1.212190e-02
2.559789e+02	-1.226214e-02
2.574574e+02	-1.240399e-02
2.589444e+02	-1.254749e-02
2.604401e+02	-1.269264e-02
2.619444e+02	-1.283947e-02
2.634574e+02	-1.298800e-02
2.649791e+02	-1.313824e-02
2.665096e+02	-1.329021e-02
2.680489e+02	-1.344395e-02
2.695972e+02	-1.359945e-02
2.711544e+02	-1.375676e-02
2.727205e+02	-1.391587e-02
2.742958e+02	-1.407683e-02
2.758801e+02	-1.423965e-02
2.774736e+02	-1.440434e-02
2.790762e+02	-1.457094e-02
2.806882e+02	-1.473946e-02
2.823094e+02	-1.490993e-02
2.839400e+02	-1.508236e-02
2.855800e+02	-1.525679e-02
2.872295e+02	-1.543322e-02
2.888886e+02	-1.561170e-02
2.905572e+02	-1.579224e-02
2.922354e+02	-1.597485e-02
2.939234e+02	-1.615958e-02
2.956211e+02	-1.634644e-02
2.973286e+02	-1.653546e-02
2.990459e+02	-1.672665e-02
3.007732e+02	-1.692006e-02
3.025104e+02	-1.711569e-02
3.042577e+02	-1.731359e-02
3.060151e+02	-1.751376e-02
3.077826e+02	-1.771625e-02
3.095604e+02	-1.792107e-02
3.113484e+02	-1.812826e-02
3.131467e+02	-1.833783e-02
3.149554e+02	-1.854983e-02
3.167746e+02	-1.876427e-02
3.186043e+02	-1.898118e-02
3.204445e+02	-1.920059e-02
3.222954e+02	-1.942254e-02
3.241570e+02	-1.964704e-02
3.260293e+02	-1.987413e-02
3.279124e+02	-2.010385e-02
3.298064e+02	-2.033621e-02
3.317114e+02	-2.057125e-02
3.336273e+02	-2.080900e-02
3.355544e+02	-2.104949e-02
3.374925e+02	-2.129275e-02
3.394418e+02	-2.153882e-02
3.414024e+02	-2.178773e-02
3.433744e+02	-2.203950e-02
3.453577e+02	-2.229418e-02
3.473525e+02	-2.255179e-02
3.493588e+02	-2.281237e-02
3.513766e+02	-2.307595e-02
3.534062e+02	-2.334257e-02
3.554474e+02	-2.361226e-02
3.575005e+02	-2.388506e-02
3.595654e+02	-2.416100e-02
3.616422e+02	-2.444012e-02
3.637311e+02	-2.472246e-02
3.658320e+02	-2.500805e-02
3.679450e+02	-2.529693e-02
3.700702e+02	-2.558913e-02
3.722077e+02	-2.588470e-02
3.743576e+02	-2.618368e-02
3.765199e+02	-2.648609e-02
3.786946e+02	-2.679199e-02
3.808820e+02	-2.710141e-02
3.830819e+02	-2.741440e-02
3.852946e+02	-2.773098e-02
3.875200e+02	-2.805121e-02
3.897583e+02	-2.837513e-02
3.920096e+02	-2.870277e-02
3.942738e+02	-2.903419e-02
3.965511e+02	-2.936941e-02
3.988416e+02	-2.970850e-02
4.011452e+02	-3.005148e-02
4.034622e+02	-3.039842e-02
4.057926e+02	-3.074934e-02
4.081365e+02	-3.110430e-02
4.104938e+02	-3.146334e-02
4.128648e+02	-3.182651e-02
4.152495e+02	-3.219386e-02
4.176480e+02	-3.256543e-02
4.200603e+02	-3.294128e-02
4.224866e+02	-3.332144e-02
4.249268e+02	-3.370598e-02
4.273812e+02	-3.409493e-02
4.298497e+02	-3.448836e-02
4.323325e+02	-3.488631e-02
4.348297e+02	-3.528883e-02
4.373412e+02	-3.569597e-02
4.398673e+02	-3.610780e-02
4.424079e+02	-3.652435e-02
4.449633e+02	-3.694569e-02
4.475334e+02	-3.737187e-02
4.501183e+02	-3.780294e-02
4.527182e+02	-3.823897e-02
4.553330e+02	-3.868000e-02
4.579630e+02	-3.912609e-02
4.606082e+02	-3.957731e-02
4.632687e+02	-4.003370e-02
4.659445e+02	-4.049534e-02
4.686358e+02	-4.096227e-02
4.713426e+02	-4.143456e-02
4.740650e+02	-4.191227e-02
4.768032e+02	-4.239546e-02
4.795572e+02	-4.288419e-02
4.823271e+02	-4.337853e-02
4.851130e+02	-4.387853e-02
4.879150e+02	-4.438427e-02
4.907332e+02	-4.489581e-02
4.935676e+02	-4.541322e-02
4.964185e+02	-4.593655e-02
4.992858e+02	-4.646589e-02
5.021696e+02	-4.700129e-02
5.050701e+02	-4.754283e-02
5.079874e+02	-4.809057e-02
5.109215e+02	-4.864458e-02
5.138726e+02	-4.920495e-02
5.168407e+02	-4.977173e-02
5.198259e+02	-5.034500e-02
5.228284e+02	-5.092483e-02
5.258482e+02	-5.151130e-02
5.288855e+02	-5.210449e-02
5.319403e+02	-5.270447e-02
5.350128e+02	-5.331131e-02
5.381030e+02	-5.392509e-02
5.412111e+02	-5.454590e-02
5.443371e+02	-5.517381e-02
5.474812e+02	-5.580890e-02
5.506434e+02	-5.645125e-02
5.538239e+02	-5.710095e-02
5.570228e+02	-5.775808e-02
5.602401e+02	-5.842271e-02
5.634760e+02	-5.909495e-02
5.667306e+02	-5.977486e-02
5.700040e+02	-6.046254e-02
5.732964e+02	-6.115808e-02
5.766077e+02	-6.186156e-02
5.799382e+02	-6.257308e-02
5.832879e+02	-6.329272e-02
5.866569e+02	-6.402057e-02
5.900454e+02	-6.475673e-02
5.934535e+02	-6.550129e-02
5.968813e+02	-6.625435e-02
6.003288e+02	-6.701600e-02
6.037963e+02	-6.778634e-02
6.072838e+02	-6.856546e-02
6.107914e+02	-6.935346e-02
6.143194e+02	-7.015045e-02
6.178676e+02	-7.095652e-02
6.214364e+02	-7.177178e-02
6.250258e+02	-7.259632e-02
6.286359e+02	-7.343026e-02
6.322669e+02	-7.427369e-02
6.359189e+02	-7.512673e-02
6.395919e+02	-7.598948e-02
6.432862e+02	-7.686205e-02
6.470017e+02	-7.774455e-02
6.507388e+02	-7.863709e-02
6.544974e+02	-7.953978e-02
6.582778e+02	-8.045274e-02
6.620800e+02	-8.137608e-02
6.659041e+02	-8.230991e-02
6.697504e+02	-8.325436e-02
6.736188e+02	-8.420954e-02
6.775096e+02	-8.517557e-02
6.814229e+02	-8.615257e-02
6.853587e+02	-8.714067e-02
6.893173e+02	-8.813998e-02
6.932988e+02	-8.915064e-02
6.973033e+02	-9.017276e-02
7.013309e+02	-9.120648e-02
