Frequency(Hz)	Magnitude(dB)
1.000000e+01	-1.742357e-05
1.005776e+01	-1.762542e-05
1.011585e+01	-1.782962e-05
1.017428e+01	-1.803618e-05
1.023305e+01	-1.824513e-05
1.029215e+01	-1.845651e-05
1.035160e+01	-1.867033e-05
1.041139e+01	-1.888663e-05
1.047153e+01	-1.910544e-05
1.053201e+01	-1.932678e-05
1.059284e+01	-1.955069e-05
1.065403e+01	-1.977719e-05
1.071556e+01	-2.000631e-05
1.077746e+01	-2.023809e-05
1.083971e+01	-2.047255e-05
1.090232e+01	-2.070973e-05
1.096529e+01	-2.094966e-05
1.102862e+01	-2.119237e-05
1.109232e+01	-2.143788e-05
1.115639e+01	-2.168625e-05
1.122083e+01	-2.193749e-05
1.128564e+01	-2.219164e-05
1.135083e+01	-2.244874e-05
1.141639e+01	-2.270881e-05
1.148233e+01	-2.297190e-05
1.154865e+01	-2.323803e-05
1.161536e+01	-2.350725e-05
1.168245e+01	-2.377959e-05
1.174992e+01	-2.405508e-05
1.181779e+01	-2.433376e-05
1.188605e+01	-2.461568e-05
1.195470e+01	-2.490086e-05
1.202375e+01	-2.518934e-05
1.209320e+01	-2.548116e-05
1.216305e+01	-2.577637e-05
1.223330e+01	-2.607499e-05
1.230396e+01	-2.637708e-05
1.237503e+01	-2.668266e-05
1.244651e+01	-2.699179e-05
1.251840e+01	-2.730450e-05
1.259070e+01	-2.762082e-05
1.266343e+01	-2.794082e-05
1.273657e+01	-2.826452e-05
1.281014e+01	-2.859197e-05
1.288413e+01	-2.892322e-05
1.295855e+01	-2.925830e-05
1.303339e+01	-2.959726e-05
1.310867e+01	-2.994015e-05
1.318439e+01	-3.028702e-05
1.326054e+01	-3.063790e-05
1.333713e+01	-3.099285e-05
1.341417e+01	-3.135191e-05
1.349165e+01	-3.171513e-05
1.356958e+01	-3.208255e-05
1.364795e+01	-3.245424e-05
1.372678e+01	-3.283023e-05
1.380607e+01	-3.321057e-05
1.388581e+01	-3.359533e-05
1.396602e+01	-3.398454e-05
1.404668e+01	-3.437825e-05
1.412782e+01	-3.477653e-05
1.420942e+01	-3.517943e-05
1.429149e+01	-3.558699e-05
1.437404e+01	-3.599927e-05
1.445706e+01	-3.641633e-05
1.454057e+01	-3.683823e-05
1.462455e+01	-3.726501e-05
1.470902e+01	-3.769673e-05
1.479398e+01	-3.813345e-05
1.487943e+01	-3.857524e-05
1.496537e+01	-3.902214e-05
1.505181e+01	-3.947422e-05
1.513875e+01	-3.993154e-05
1.522619e+01	-4.039416e-05
1.531414e+01	-4.086213e-05
1.540259e+01	-4.133553e-05
1.549156e+01	-4.181441e-05
1.558103e+01	-4.229884e-05
1.567103e+01	-4.278888e-05
1.576155e+01	-4.328460e-05
1.585258e+01	-4.378606e-05
1.594415e+01	-4.429333e-05
1.603624e+01	-4.480648e-05
1.612886e+01	-4.532557e-05
1.622202e+01	-4.585068e-05
1.631572e+01	-4.638187e-05
1.640996e+01	-4.691921e-05
1.650474e+01	-4.746278e-05
1.660008e+01	-4.801265e-05
1.669596e+01	-4.856889e-05
1.679239e+01	-4.913157e-05
1.688938e+01	-4.970077e-05
1.698694e+01	-5.027656e-05
1.708505e+01	-5.085903e-05
1.718373e+01	-5.144824e-05
1.728299e+01	-5.204428e-05
1.738281e+01	-5.264722e-05
1.748322e+01	-5.325715e-05
1.758420e+01	-5.387414e-05
1.768576e+01	-5.449829e-05
1.778792e+01	-5.512966e-05
1.789066e+01	-5.576835e-05
1.799399e+01	-5.641444e-05
1.809793e+01	-5.706801e-05
1.820246e+01	-5.772916e-05
1.830760e+01	-5.839796e-05
1.841334e+01	-5.907451e-05
1.851969e+01	-5.975890e-05
1.862666e+01	-6.045122e-05
1.873425e+01	-6.115156e-05
1.884246e+01	-6.186001e-05
1.895129e+01	-6.257667e-05
1.906075e+01	-6.330164e-05
1.917085e+01	-6.403500e-05
1.928158e+01	-6.477686e-05
1.939295e+01	-6.552731e-05
1.950496e+01	-6.628645e-05
1.961762e+01	-6.705440e-05
1.973093e+01	-6.783123e-05
1.984490e+01	-6.861707e-05
1.995952e+01	-6.941201e-05
2.007480e+01	-7.021616e-05
2.019076e+01	-7.102963e-05
2.030738e+01	-7.185252e-05
2.042467e+01	-7.268495e-05
2.054264e+01	-7.352702e-05
2.066130e+01	-7.437884e-05
2.078064e+01	-7.524053e-05
2.090066e+01	-7.611221e-05
2.102139e+01	-7.699398e-05
2.114280e+01	-7.788597e-05
2.126492e+01	-7.878829e-05
2.138775e+01	-7.970107e-05
2.151128e+01	-8.062442e-05
2.163553e+01	-8.155846e-05
2.176050e+01	-8.250333e-05
2.188619e+01	-8.345915e-05
2.201260e+01	-8.442604e-05
2.213974e+01	-8.540413e-05
2.226762e+01	-8.639355e-05
2.239624e+01	-8.739443e-05
2.252560e+01	-8.840691e-05
2.265571e+01	-8.943112e-05
2.278656e+01	-9.046719e-05
2.291818e+01	-9.151527e-05
2.305055e+01	-9.257549e-05
2.318369e+01	-9.364799e-05
2.331760e+01	-9.473291e-05
2.345228e+01	-9.583041e-05
2.358774e+01	-9.694062e-05
2.372398e+01	-9.806369e-05
2.386101e+01	-9.919977e-05
2.399883e+01	-1.003490e-04
2.413745e+01	-1.015116e-04
2.427686e+01	-1.026876e-04
2.441709e+01	-1.038773e-04
2.455812e+01	-1.050807e-04
2.469997e+01	-1.062981e-04
2.484263e+01	-1.075295e-04
2.498612e+01	-1.087753e-04
2.513044e+01	-1.100355e-04
2.527559e+01	-1.113102e-04
2.542158e+01	-1.125998e-04
2.556842e+01	-1.139043e-04
2.571610e+01	-1.152239e-04
2.586463e+01	-1.165587e-04
2.601403e+01	-1.179091e-04
2.616428e+01	-1.192751e-04
2.631541e+01	-1.206569e-04
2.646740e+01	-1.220547e-04
2.662028e+01	-1.234687e-04
2.677404e+01	-1.248991e-04
2.692868e+01	-1.263461e-04
2.708422e+01	-1.278098e-04
2.724066e+01	-1.292905e-04
2.739800e+01	-1.307884e-04
2.755625e+01	-1.323036e-04
2.771541e+01	-1.338363e-04
2.787550e+01	-1.353868e-04
2.803650e+01	-1.369553e-04
2.819844e+01	-1.385419e-04
2.836131e+01	-1.401470e-04
2.852513e+01	-1.417706e-04
2.868989e+01	-1.434130e-04
2.885560e+01	-1.450744e-04
2.902227e+01	-1.467551e-04
2.918990e+01	-1.484553e-04
2.935850e+01	-1.501752e-04
2.952807e+01	-1.519150e-04
2.969863e+01	-1.536749e-04
2.987016e+01	-1.554553e-04
3.004269e+01	-1.572562e-04
3.021622e+01	-1.590780e-04
3.039075e+01	-1.609210e-04
3.056628e+01	-1.627852e-04
3.074283e+01	-1.646711e-04
3.092040e+01	-1.665788e-04
3.109900e+01	-1.685087e-04
3.127862e+01	-1.704609e-04
3.145929e+01	-1.724356e-04
3.164099e+01	-1.744333e-04
3.182375e+01	-1.764541e-04
3.200756e+01	-1.784984e-04
3.219244e+01	-1.805663e-04
3.237838e+01	-1.826581e-04
3.256540e+01	-1.847742e-04
3.275349e+01	-1.869149e-04
3.294268e+01	-1.890803e-04
3.313295e+01	-1.912708e-04
3.332433e+01	-1.934867e-04
3.351681e+01	-1.957282e-04
3.371040e+01	-1.979957e-04
3.390511e+01	-2.002895e-04
3.410094e+01	-2.026098e-04
3.429791e+01	-2.049571e-04
3.449601e+01	-2.073315e-04
3.469526e+01	-2.097334e-04
3.489566e+01	-2.121632e-04
3.509721e+01	-2.146211e-04
3.529993e+01	-2.171075e-04
3.550382e+01	-2.196227e-04
3.570889e+01	-2.221670e-04
3.591515e+01	-2.247408e-04
3.612259e+01	-2.273444e-04
3.633123e+01	-2.299782e-04
3.654108e+01	-2.326425e-04
3.675214e+01	-2.353377e-04
3.696442e+01	-2.380640e-04
3.717792e+01	-2.408220e-04
3.739266e+01	-2.436119e-04
3.760864e+01	-2.464341e-04
3.782587e+01	-2.492891e-04
3.804435e+01	-2.521771e-04
3.826409e+01	-2.550985e-04
3.848510e+01	-2.580538e-04
3.870739e+01	-2.610434e-04
3.893096e+01	-2.640675e-04
3.915583e+01	-2.671267e-04
3.938199e+01	-2.702214e-04
3.960946e+01	-2.733519e-04
3.983824e+01	-2.765186e-04
4.006834e+01	-2.797221e-04
4.029978e+01	-2.829626e-04
4.053255e+01	-2.862407e-04
4.076666e+01	-2.895568e-04
4.100213e+01	-2.929112e-04
4.123896e+01	-2.963046e-04
4.147715e+01	-2.997372e-04
4.171672e+01	-3.032097e-04
4.195767e+01	-3.067223e-04
4.220002e+01	-3.102756e-04
4.244377e+01	-3.138701e-04
4.268892e+01	-3.175063e-04
4.293549e+01	-3.211845e-04
4.318348e+01	-3.249054e-04
4.343291e+01	-3.286694e-04
4.368377e+01	-3.324770e-04
4.393609e+01	-3.363287e-04
4.418986e+01	-3.402250e-04
4.444510e+01	-3.441664e-04
4.470182e+01	-3.481535e-04
4.496001e+01	-3.521868e-04
4.521970e+01	-3.562668e-04
4.548089e+01	-3.603941e-04
4.574358e+01	-3.645692e-04
4.600779e+01	-3.687927e-04
4.627353e+01	-3.730650e-04
4.654081e+01	-3.773869e-04
4.680963e+01	-3.817588e-04
4.708000e+01	-3.861814e-04
4.735193e+01	-3.906552e-04
4.762543e+01	-3.951809e-04
4.790051e+01	-3.997590e-04
4.817719e+01	-4.043901e-04
4.845545e+01	-4.090748e-04
4.873533e+01	-4.138138e-04
4.901682e+01	-4.186078e-04
4.929994e+01	-4.234572e-04
4.958470e+01	-4.283628e-04
4.987110e+01	-4.333253e-04
5.015915e+01	-4.383452e-04
5.044887e+01	-4.434233e-04
5.074026e+01	-4.485602e-04
5.103333e+01	-4.537567e-04
5.132810e+01	-4.590133e-04
5.162457e+01	-4.643308e-04
5.192275e+01	-4.697099e-04
5.222265e+01	-4.751513e-04
5.252429e+01	-4.806558e-04
5.282767e+01	-4.862240e-04
5.313280e+01	-4.918567e-04
5.343969e+01	-4.975547e-04
5.374836e+01	-5.033187e-04
5.405880e+01	-5.091494e-04
5.437105e+01	-5.150477e-04
5.468509e+01	-5.210143e-04
5.500095e+01	-5.270500e-04
5.531863e+01	-5.331557e-04
5.563815e+01	-5.393320e-04
5.595951e+01	-5.455800e-04
5.628273e+01	-5.519002e-04
5.660782e+01	-5.582938e-04
5.693479e+01	-5.647613e-04
5.726364e+01	-5.713038e-04
5.759439e+01	-5.779221e-04
5.792705e+01	-5.846170e-04
5.826164e+01	-5.913895e-04
5.859815e+01	-5.982404e-04
5.893662e+01	-6.051707e-04
5.927703e+01	-6.121813e-04
5.961941e+01	-6.192731e-04
5.996377e+01	-6.264470e-04
6.031012e+01	-6.337041e-04
6.065847e+01	-6.410452e-04
6.100883e+01	-6.484713e-04
6.136121e+01	-6.559834e-04
6.171563e+01	-6.635826e-04
6.207210e+01	-6.712698e-04
6.243063e+01	-6.790460e-04
6.279122e+01	-6.869123e-04
6.315390e+01	-6.948698e-04
6.351868e+01	-7.029194e-04
6.388556e+01	-7.110622e-04
6.425456e+01	-7.192994e-04
6.462569e+01	-7.276320e-04
6.499897e+01	-7.360611e-04
6.537440e+01	-7.445878e-04
6.575200e+01	-7.532133e-04
6.613178e+01	-7.619387e-04
6.651375e+01	-7.707652e-04
6.689793e+01	-7.796940e-04
6.728433e+01	-7.887261e-04
6.767297e+01	-7.978629e-04
6.806384e+01	-8.071055e-04
6.845698e+01	-8.164551e-04
6.885238e+01	-8.259131e-04
6.925007e+01	-8.354806e-04
6.965005e+01	-8.451589e-04
7.005235e+01	-8.549494e-04
7.045697e+01	-8.648532e-04
7.086393e+01	-8.748718e-04
7.127323e+01	-8.850063e-04
7.168490e+01	-8.952583e-04
7.209895e+01	-9.056291e-04
7.251539e+01	-9.161199e-04
7.293424e+01	-9.267323e-04
7.335551e+01	-9.374676e-04
7.377920e+01	-9.483272e-04
7.420535e+01	-9.593126e-04
7.463396e+01	-9.704253e-04
7.506504e+01	-9.816666e-04
7.549861e+01	-9.930382e-04
7.593469e+01	-1.004542e-03
7.637328e+01	-1.016178e-03
7.681441e+01	-1.027949e-03
7.725809e+01	-1.039857e-03
7.770433e+01	-1.051903e-03
7.815315e+01	-1.064088e-03
7.860456e+01	-1.076414e-03
7.905857e+01	-1.088883e-03
7.951521e+01	-1.101496e-03
7.997449e+01	-1.114256e-03
8.043642e+01	-1.127163e-03
8.090102e+01	-1.140220e-03
8.136830e+01	-1.153428e-03
8.183828e+01	-1.166789e-03
8.231097e+01	-1.180304e-03
8.278640e+01	-1.193977e-03
8.326457e+01	-1.207807e-03
8.374550e+01	-1.221798e-03
8.422921e+01	-1.235951e-03
8.471572e+01	-1.250268e-03
8.520503e+01	-1.264750e-03
8.569717e+01	-1.279401e-03
8.619215e+01	-1.294221e-03
8.669000e+01	-1.309212e-03
8.719071e+01	-1.324378e-03
8.769432e+01	-1.339719e-03
8.820084e+01	-1.355237e-03
8.871029e+01	-1.370935e-03
8.922267e+01	-1.386816e-03
8.973802e+01	-1.402880e-03
9.025634e+01	-1.419130e-03
9.077766e+01	-1.435568e-03
9.130199e+01	-1.452197e-03
9.182935e+01	-1.469018e-03
9.235975e+01	-1.486034e-03
9.289321e+01	-1.503247e-03
9.342976e+01	-1.520659e-03
9.396941e+01	-1.538274e-03
9.451217e+01	-1.556092e-03
9.505807e+01	-1.574116e-03
9.560712e+01	-1.592349e-03
9.615934e+01	-1.610794e-03
9.671476e+01	-1.629452e-03
9.727338e+01	-1.648326e-03
9.783522e+01	-1.667418e-03
9.840032e+01	-1.686732e-03
9.896867e+01	-1.706270e-03
9.954031e+01	-1.726033e-03
1.001153e+02	-1.746026e-03
1.006935e+02	-1.766250e-03
1.012751e+02	-1.786708e-03
1.018601e+02	-1.807403e-03
1.024484e+02	-1.828338e-03
1.030402e+02	-1.849515e-03
1.036353e+02	-1.870938e-03
1.042339e+02	-1.892608e-03
1.048360e+02	-1.914530e-03
1.054415e+02	-1.936705e-03
1.060505e+02	-1.959138e-03
1.066631e+02	-1.981830e-03
1.072791e+02	-2.004784e-03
1.078988e+02	-2.028005e-03
1.085220e+02	-2.051494e-03
1.091488e+02	-2.075256e-03
1.097793e+02	-2.099292e-03
1.104133e+02	-2.123607e-03
1.110511e+02	-2.148204e-03
1.116925e+02	-2.173085e-03
1.123376e+02	-2.198254e-03
1.129865e+02	-2.223715e-03
1.136391e+02	-2.249471e-03
1.142955e+02	-2.275525e-03
1.149556e+02	-2.301880e-03
1.156196e+02	-2.328541e-03
1.162874e+02	-2.355510e-03
1.169591e+02	-2.382792e-03
1.176347e+02	-2.410390e-03
1.183141e+02	-2.438307e-03
1.189975e+02	-2.466547e-03
1.196848e+02	-2.495115e-03
1.203761e+02	-2.524013e-03
1.210714e+02	-2.553246e-03
1.217707e+02	-2.582817e-03
1.224740e+02	-2.612730e-03
1.231814e+02	-2.642990e-03
1.238929e+02	-2.673601e-03
1.246085e+02	-2.704565e-03
1.253283e+02	-2.735889e-03
1.260522e+02	-2.767574e-03
1.267802e+02	-2.799627e-03
1.275125e+02	-2.832051e-03
1.282490e+02	-2.864850e-03
1.289898e+02	-2.898029e-03
1.297348e+02	-2.931592e-03
1.304842e+02	-2.965544e-03
1.312378e+02	-2.999889e-03
1.319959e+02	-3.034631e-03
1.327583e+02	-3.069775e-03
1.335251e+02	-3.105327e-03
1.342963e+02	-3.141290e-03
1.350720e+02	-3.177669e-03
1.358522e+02	-3.214470e-03
1.366368e+02	-3.251696e-03
1.374260e+02	-3.289354e-03
1.382198e+02	-3.327447e-03
1.390182e+02	-3.365981e-03
1.398211e+02	-3.404962e-03
1.406287e+02	-3.444394e-03
1.414410e+02	-3.484282e-03
1.422579e+02	-3.524632e-03
1.430796e+02	-3.565449e-03
1.439060e+02	-3.606738e-03
1.447372e+02	-3.648506e-03
1.455732e+02	-3.690756e-03
1.464141e+02	-3.733496e-03
1.472597e+02	-3.776731e-03
1.481103e+02	-3.820466e-03
1.489658e+02	-3.864708e-03
1.498262e+02	-3.909461e-03
1.506916e+02	-3.954733e-03
1.515620e+02	-4.000528e-03
1.524374e+02	-4.046854e-03
1.533179e+02	-4.093715e-03
1.542034e+02	-4.141119e-03
1.550941e+02	-4.189072e-03
1.559899e+02	-4.237580e-03
1.568909e+02	-4.286649e-03
1.577971e+02	-4.336286e-03
1.587085e+02	-4.386498e-03
1.596252e+02	-4.437290e-03
1.605472e+02	-4.488671e-03
1.614745e+02	-4.540646e-03
1.624072e+02	-4.593223e-03
1.633453e+02	-4.646408e-03
1.642887e+02	-4.700209e-03
1.652377e+02	-4.754632e-03
1.661921e+02	-4.809685e-03
1.671520e+02	-4.865375e-03
1.681175e+02	-4.921710e-03
1.690885e+02	-4.978696e-03
1.700651e+02	-5.036342e-03
1.710474e+02	-5.094655e-03
1.720354e+02	-5.153643e-03
1.730291e+02	-5.213313e-03
1.740285e+02	-5.273674e-03
1.750337e+02	-5.334733e-03
1.760446e+02	-5.396499e-03
1.770615e+02	-5.458980e-03
1.780842e+02	-5.522183e-03
1.791128e+02	-5.586118e-03
1.801473e+02	-5.650792e-03
1.811878e+02	-5.716215e-03
1.822344e+02	-5.782394e-03
1.832870e+02	-5.849340e-03
1.843456e+02	-5.917059e-03
1.854104e+02	-5.985563e-03
1.864813e+02	-6.054859e-03
1.875584e+02	-6.124956e-03
1.886418e+02	-6.195864e-03
1.897313e+02	-6.267593e-03
1.908272e+02	-6.340152e-03
1.919294e+02	-6.413550e-03
1.930380e+02	-6.487797e-03
1.941530e+02	-6.562902e-03
1.952744e+02	-6.638877e-03
1.964023e+02	-6.715731e-03
1.975367e+02	-6.793473e-03
1.986777e+02	-6.872115e-03
1.998252e+02	-6.951666e-03
2.009794e+02	-7.032137e-03
2.021403e+02	-7.113540e-03
2.033078e+02	-7.195883e-03
2.044821e+02	-7.279179e-03
2.056632e+02	-7.363439e-03
2.068511e+02	-7.448673e-03
2.080459e+02	-7.534892e-03
2.092475e+02	-7.622109e-03
2.104561e+02	-7.710335e-03
2.116717e+02	-7.799580e-03
2.128943e+02	-7.889858e-03
2.141240e+02	-7.981180e-03
2.153608e+02	-8.073558e-03
2.166047e+02	-8.167004e-03
2.178558e+02	-8.261530e-03
2.191141e+02	-8.357150e-03
2.203797e+02	-8.453875e-03
2.216526e+02	-8.551719e-03
2.229329e+02	-8.650693e-03
2.242205e+02	-8.750813e-03
2.255156e+02	-8.852089e-03
2.268182e+02	-8.954537e-03
2.281283e+02	-9.058169e-03
2.294459e+02	-9.162999e-03
2.307712e+02	-9.269041e-03
2.321041e+02	-9.376309e-03
2.334447e+02	-9.484817e-03
2.347931e+02	-9.594579e-03
2.361493e+02	-9.705610e-03
2.375133e+02	-9.817925e-03
2.388851e+02	-9.931537e-03
2.402649e+02	-1.004646e-02
2.416527e+02	-1.016272e-02
2.430484e+02	-1.028032e-02
2.444523e+02	-1.039927e-02
2.458642e+02	-1.051960e-02
2.472843e+02	-1.064133e-02
2.487126e+02	-1.076446e-02
2.501492e+02	-1.088901e-02
2.515940e+02	-1.101500e-02
2.530472e+02	-1.114245e-02
2.545088e+02	-1.127137e-02
2.559789e+02	-1.140178e-02
2.574574e+02	-1.153369e-02
2.589444e+02	-1.166713e-02
2.604401e+02	-1.180212e-02
2.619444e+02	-1.193866e-02
2.634574e+02	-1.207678e-02
2.649791e+02	-1.221649e-02
2.665096e+02	-1.235782e-02
2.680489e+02	-1.250078e-02
2.695972e+02	-1.264540e-02
2.711544e+02	-1.279168e-02
2.727205e+02	-1.293965e-02
2.742958e+02	-1.308934e-02
2.758801e+02	-1.324075e-02
2.774736e+02	-1.339391e-02
2.790762e+02	-1.354884e-02
2.806882e+02	-1.370555e-02
2.823094e+02	-1.386408e-02
2.839400e+02	-1.402444e-02
2.855800e+02	-1.418665e-02
2.872295e+02	-1.435073e-02
2.888886e+02	-1.451671e-02
2.905572e+02	-1.468461e-02
2.922354e+02	-1.485444e-02
2.939234e+02	-1.502623e-02
2.956211e+02	-1.520001e-02
2.973286e+02	-1.537579e-02
2.990459e+02	-1.555361e-02
3.007732e+02	-1.573347e-02
3.025104e+02	-1.591541e-02
3.042577e+02	-1.609945e-02
3.060151e+02	-1.628562e-02
3.077826e+02	-1.647393e-02
3.095604e+02	-1.666442e-02
3.113484e+02	-1.685710e-02
3.131467e+02	-1.705201e-02
3.149554e+02	-1.724917e-02
3.167746e+02	-1.744861e-02
3.186043e+02	-1.765034e-02
3.204445e+02	-1.785440e-02
3.222954e+02	-1.806082e-02
3.241570e+02	-1.826961e-02
3.260293e+02	-1.848082e-02
3.279124e+02	-1.869446e-02
3.298064e+02	-1.891057e-02
3.317114e+02	-1.912917e-02
3.336273e+02	-1.935029e-02
3.355544e+02	-1.957396e-02
3.374925e+02	-1.980021e-02
3.394418e+02	-2.002907e-02
3.414024e+02	-2.026057e-02
3.433744e+02	-2.049474e-02
3.453577e+02	-2.073161e-02
3.473525e+02	-2.097121e-02
3.493588e+02	-2.121357e-02
3.513766e+02	-2.145872e-02
3.534062e+02	-2.170670e-02
3.554474e+02	-2.195754e-02
3.575005e+02	-2.221127e-02
3.595654e+02	-2.246793e-02
3.616422e+02	-2.272754e-02
3.637311e+02	-2.299015e-02
3.658320e+02	-2.325578e-02
3.679450e+02	-2.352447e-02
3.700702e+02	-2.379626e-02
3.722077e+02	-2.407118e-02
3.743576e+02	-2.434926e-02
3.765199e+02	-2.463055e-02
3.786946e+02	-2.491508e-02
3.808820e+02	-2.520289e-02
3.830819e+02	-2.549401e-02
3.852946e+02	-2.578849e-02
3.875200e+02	-2.608635e-02
3.897583e+02	-2.638765e-02
3.920096e+02	-2.669241e-02
3.942738e+02	-2.700069e-02
3.965511e+02	-2.731251e-02
3.988416e+02	-2.762792e-02
4.011452e+02	-2.794697e-02
4.034622e+02	-2.826968e-02
4.057926e+02	-2.859611e-02
4.081365e+02	-2.892630e-02
4.104938e+02	-2.926029e-02
4.128648e+02	-2.959811e-02
4.152495e+02	-2.993983e-02
4.176480e+02	-3.028548e-02
4.200603e+02	-3.063510e-02
4.224866e+02	-3.098875e-02
4.249268e+02	-3.134646e-02
4.273812e+02	-3.170829e-02
4.298497e+02	-3.207428e-02
4.323325e+02	-3.244447e-02
4.348297e+02	-3.281892e-02
4.373412e+02	-3.319768e-02
4.398673e+02	-3.358080e-02
4.424079e+02	-3.396831e-02
4.449633e+02	-3.436028e-02
4.475334e+02	-3.475676e-02
4.501183e+02	-3.515779e-02
4.527182e+02	-3.556343e-02
4.553330e+02	-3.597373e-02
4.579630e+02	-3.638874e-02
4.606082e+02	-3.680852e-02
4.632687e+02	-3.723313e-02
4.659445e+02	-3.766261e-02
4.686358e+02	-3.809702e-02
4.713426e+02	-3.853642e-02
4.740650e+02	-3.898086e-02
4.768032e+02	-3.943041e-02
4.795572e+02	-3.988512e-02
4.823271e+02	-4.034505e-02
4.851130e+02	-4.081025e-02
4.879150e+02	-4.128080e-02
4.907332e+02	-4.175674e-02
4.935676e+02	-4.223815e-02
4.964185e+02	-4.272507e-02
4.992858e+02	-4.321759e-02
5.021696e+02	-4.371575e-02
5.050701e+02	-4.421962e-02
5.079874e+02	-4.472927e-02
5.109215e+02	-4.524477e-02
5.138726e+02	-4.576617e-02
5.168407e+02	-4.629355e-02
5.198259e+02	-4.682698e-02
5.228284e+02	-4.736652e-02
5.258482e+02	-4.791224e-02
5.288855e+02	-4.846421e-02
5.319403e+02	-4.902250e-02
5.350128e+02	-4.958719e-02
5.381030e+02	-5.015835e-02
5.412111e+02	-5.073605e-02
5.443371e+02	-5.132036e-02
5.474812e+02	-5.191136e-02
5.506434e+02	-5.250912e-02
5.538239e+02	-5.311373e-02
5.570228e+02	-5.372525e-02
5.602401e+02	-5.434377e-02
5.634760e+02	-5.496937e-02
5.667306e+02	-5.560212e-02
5.700040e+02	-5.624211e-02
5.732964e+02	-5.688941e-02
5.766077e+02	-5.754412e-02
5.799382e+02	-5.820631e-02
5.832879e+02	-5.887607e-02
5.866569e+02	-5.955348e-02
5.900454e+02	-6.023863e-02
5.934535e+02	-6.093161e-02
5.968813e+02	-6.163250e-02
6.003288e+02	-6.234140e-02
6.037963e+02	-6.305839e-02
6.072838e+02	-6.378357e-02
6.107914e+02	-6.451703e-02
6.143194e+02	-6.525885e-02
6.178676e+02	-6.600914e-02
6.214364e+02	-6.676799e-02
6.250258e+02	-6.753550e-02
6.286359e+02	-6.831176e-02
6.322669e+02	-6.909687e-02
6.359189e+02	-6.989093e-02
6.395919e+02	-7.069404e-02
6.432862e+02	-7.150631e-02
6.470017e+02	-7.232782e-02
6.507388e+02	-7.315870e-02
6.544974e+02	-7.399904e-02
6.582778e+02	-7.484895e-02
6.620800e+02	-7.570854e-02
6.659041e+02	-7.657791e-02
6.697504e+02	-7.745717e-02
6.736188e+02	-7.834644e-02
6.775096e+02	-7.924582e-02
6.814229e+02	-8.015543e-02
6.853587e+02	-8.107539e-02
6.893173e+02	-8.200581e-02
6.932988e+02	-8.294680e-02
6.973033e+02	-8.389848e-02
7.013309e+02	-8.486097e-02
