Frequency(Hz)	Magnitude(dB)
1.000000e+01	-2.045715e+00
1.005776e+01	-2.064346e+00
1.011585e+01	-2.083480e+00
1.017428e+01	-2.102426e+00
1.023305e+01	-2.121812e+00
1.029215e+01	-2.141193e+00
1.035160e+01	-2.160709e+00
1.041139e+01	-2.180548e+00
1.047153e+01	-2.200107e+00
1.053201e+01	-2.220197e+00
1.059284e+01	-2.240312e+00
1.065403e+01	-2.260544e+00
1.071556e+01	-2.280866e+00
1.077746e+01	-2.301319e+00
1.083971e+01	-2.322044e+00
1.090232e+01	-2.342909e+00
1.096529e+01	-2.363613e+00
1.102862e+01	-2.384820e+00
1.109232e+01	-2.405959e+00
1.115639e+01	-2.427253e+00
1.122083e+01	-2.448710e+00
1.128564e+01	-2.470434e+00
1.135083e+01	-2.492162e+00
1.141639e+01	-2.514013e+00
1.148233e+01	-2.536130e+00
1.154865e+01	-2.558331e+00
1.161536e+01	-2.580715e+00
1.168245e+01	-2.603284e+00
1.174992e+01	-2.625758e+00
1.181779e+01	-2.648700e+00
1.188605e+01	-2.671840e+00
1.195470e+01	-2.694741e+00
1.202375e+01	-2.717895e+00
1.209320e+01	-2.741056e+00
1.216305e+01	-2.764550e+00
1.223330e+01	-2.788223e+00
1.230396e+01	-2.812033e+00
1.237503e+01	-2.835866e+00
1.244651e+01	-2.860093e+00
1.251840e+01	-2.884111e+00
1.259070e+01	-2.908585e+00
1.266343e+01	-2.933214e+00
1.273657e+01	-2.957678e+00
1.281014e+01	-2.982550e+00
1.288413e+01	-3.007411e+00
1.295855e+01	-3.032619e+00
1.303339e+01	-3.057682e+00
1.310867e+01	-3.082933e+00
1.318439e+01	-3.108459e+00
1.326054e+01	-3.134385e+00
1.333713e+01	-3.159945e+00
1.341417e+01	-3.185818e+00
1.349165e+01	-3.211871e+00
1.356958e+01	-3.238021e+00
1.364795e+01	-3.264586e+00
1.372678e+01	-3.291081e+00
1.380607e+01	-3.317596e+00
1.388581e+01	-3.344542e+00
1.396602e+01	-3.371238e+00
1.404668e+01	-3.398773e+00
1.412782e+01	-3.425825e+00
1.420942e+01	-3.453041e+00
1.429149e+01	-3.480583e+00
1.437404e+01	-3.508431e+00
1.445706e+01	-3.535996e+00
1.454057e+01	-3.563942e+00
1.462455e+01	-3.592203e+00
1.470902e+01	-3.620441e+00
1.479398e+01	-3.648523e+00
1.487943e+01	-3.677105e+00
1.496537e+01	-3.705706e+00
1.505181e+01	-3.734579e+00
1.513875e+01	-3.763527e+00
1.522619e+01	-3.792553e+00
1.531414e+01	-3.821843e+00
1.540259e+01	-3.851131e+00
1.549156e+01	-3.880702e+00
1.558103e+01	-3.910268e+00
1.567103e+01	-3.940175e+00
1.576155e+01	-3.970041e+00
1.585258e+01	-4.000127e+00
1.594415e+01	-4.030040e+00
1.603624e+01	-4.060408e+00
1.612886e+01	-4.090965e+00
1.622202e+01	-4.121622e+00
1.631572e+01	-4.152232e+00
1.640996e+01	-4.182983e+00
1.650474e+01	-4.213925e+00
1.660008e+01	-4.245189e+00
1.669596e+01	-4.276395e+00
1.679239e+01	-4.307946e+00
1.688938e+01	-4.339449e+00
1.698694e+01	-4.371387e+00
1.708505e+01	-4.403076e+00
1.718373e+01	-4.434853e+00
1.728299e+01	-4.466692e+00
1.738281e+01	-4.499220e+00
1.748322e+01	-4.531465e+00
1.758420e+01	-4.563762e+00
1.768576e+01	-4.596544e+00
1.778792e+01	-4.629372e+00
1.789066e+01	-4.662149e+00
1.799399e+01	-4.695389e+00
1.809793e+01	-4.728543e+00
1.820246e+01	-4.761657e+00
1.830760e+01	-4.794759e+00
1.841334e+01	-4.828245e+00
1.851969e+01	-4.862000e+00
1.862666e+01	-4.895832e+00
1.873425e+01	-4.929920e+00
1.884246e+01	-4.963536e+00
1.895129e+01	-4.997820e+00
1.906075e+01	-5.031969e+00
1.917085e+01	-5.066527e+00
1.928158e+01	-5.101023e+00
1.939295e+01	-5.135723e+00
1.950496e+01	-5.170352e+00
1.961762e+01	-5.205420e+00
1.973093e+01	-5.240328e+00
1.984490e+01	-5.275323e+00
1.995952e+01	-5.310552e+00
2.007480e+01	-5.345623e+00
2.019076e+01	-5.381243e+00
2.030738e+01	-5.416743e+00
2.042467e+01	-5.452602e+00
2.054264e+01	-5.488363e+00
2.066130e+01	-5.524380e+00
2.078064e+01	-5.560560e+00
2.090066e+01	-5.596670e+00
2.102139e+01	-5.632842e+00
2.114280e+01	-5.669431e+00
2.126492e+01	-5.705986e+00
2.138775e+01	-5.742504e+00
2.151128e+01	-5.779350e+00
2.163553e+01	-5.815832e+00
2.176050e+01	-5.852929e+00
2.188619e+01	-5.890211e+00
2.201260e+01	-5.927363e+00
2.213974e+01	-5.964663e+00
2.226762e+01	-6.001800e+00
2.239624e+01	-6.039602e+00
2.252560e+01	-6.077146e+00
2.265571e+01	-6.115099e+00
2.278656e+01	-6.152825e+00
2.291818e+01	-6.190741e+00
2.305055e+01	-6.229066e+00
2.318369e+01	-6.266880e+00
2.331760e+01	-6.305505e+00
2.345228e+01	-6.343471e+00
2.358774e+01	-6.382139e+00
2.372398e+01	-6.420660e+00
2.386101e+01	-6.459305e+00
2.399883e+01	-6.498257e+00
2.413745e+01	-6.537062e+00
2.427686e+01	-6.575872e+00
2.441709e+01	-6.615229e+00
2.455812e+01	-6.654269e+00
2.469997e+01	-6.694016e+00
2.484263e+01	-6.732623e+00
2.498612e+01	-6.772232e+00
2.513044e+01	-6.812028e+00
2.527559e+01	-6.851670e+00
2.542158e+01	-6.891095e+00
2.556842e+01	-6.931241e+00
2.571610e+01	-6.970998e+00
2.586463e+01	-7.011062e+00
2.601403e+01	-7.051498e+00
2.616428e+01	-7.091153e+00
2.631541e+01	-7.131802e+00
2.646740e+01	-7.172258e+00
2.662028e+01	-7.212514e+00
2.677404e+01	-7.253202e+00
2.692868e+01	-7.293554e+00
2.708422e+01	-7.334646e+00
2.724066e+01	-7.375308e+00
2.739800e+01	-7.416449e+00
2.755625e+01	-7.457223e+00
2.771541e+01	-7.497907e+00
2.787550e+01	-7.539428e+00
2.803650e+01	-7.580654e+00
2.819844e+01	-7.622174e+00
2.836131e+01	-7.663181e+00
2.852513e+01	-7.704752e+00
2.868989e+01	-7.746175e+00
2.885560e+01	-7.788572e+00
2.902227e+01	-7.830212e+00
2.918990e+01	-7.871719e+00
2.935850e+01	-7.913627e+00
2.952807e+01	-7.955538e+00
2.969863e+01	-7.997960e+00
2.987016e+01	-8.039671e+00
3.004269e+01	-8.081740e+00
3.021622e+01	-8.124254e+00
3.039075e+01	-8.166818e+00
3.056628e+01	-8.209203e+00
3.074283e+01	-8.251600e+00
3.092040e+01	-8.294290e+00
3.109900e+01	-8.336804e+00
3.127862e+01	-8.379727e+00
3.145929e+01	-8.421980e+00
3.164099e+01	-8.465329e+00
3.182375e+01	-8.508494e+00
3.200756e+01	-8.551099e+00
3.219244e+01	-8.594295e+00
3.237838e+01	-8.637171e+00
3.256540e+01	-8.680792e+00
3.275349e+01	-8.723749e+00
3.294268e+01	-8.767079e+00
3.313295e+01	-8.811045e+00
3.332433e+01	-8.854174e+00
3.351681e+01	-8.897499e+00
3.371040e+01	-8.941047e+00
3.390511e+01	-8.985310e+00
3.410094e+01	-9.028775e+00
3.429791e+01	-9.072222e+00
3.449601e+01	-9.116508e+00
3.469526e+01	-9.160430e+00
3.489566e+01	-9.204106e+00
3.509721e+01	-9.248428e+00
3.529993e+01	-9.292479e+00
3.550382e+01	-9.337006e+00
3.570889e+01	-9.380785e+00
3.591515e+01	-9.424994e+00
3.612259e+01	-9.469485e+00
3.633123e+01	-9.513412e+00
3.654108e+01	-9.558355e+00
3.675214e+01	-9.602909e+00
3.696442e+01	-9.647754e+00
3.717792e+01	-9.692210e+00
3.739266e+01	-9.736758e+00
3.760864e+01	-9.781150e+00
3.782587e+01	-9.826438e+00
3.804435e+01	-9.871492e+00
3.826409e+01	-9.916239e+00
3.848510e+01	-9.960990e+00
3.870739e+01	-1.000566e+01
3.893096e+01	-1.005056e+01
3.915583e+01	-1.009620e+01
3.938199e+01	-1.014107e+01
3.960946e+01	-1.018686e+01
3.983824e+01	-1.023163e+01
4.006834e+01	-1.027669e+01
4.029978e+01	-1.032225e+01
4.053255e+01	-1.036827e+01
4.076666e+01	-1.041315e+01
4.100213e+01	-1.045883e+01
4.123896e+01	-1.050452e+01
4.147715e+01	-1.055030e+01
4.171672e+01	-1.059510e+01
4.195767e+01	-1.064140e+01
4.220002e+01	-1.068715e+01
4.244377e+01	-1.073241e+01
4.268892e+01	-1.077876e+01
4.293549e+01	-1.082451e+01
4.318348e+01	-1.087072e+01
4.343291e+01	-1.091608e+01
4.368377e+01	-1.096232e+01
4.393609e+01	-1.100784e+01
4.418986e+01	-1.105428e+01
4.444510e+01	-1.110082e+01
4.470182e+01	-1.114706e+01
4.496001e+01	-1.119289e+01
4.521970e+01	-1.123911e+01
4.548089e+01	-1.128557e+01
4.574358e+01	-1.133145e+01
4.600779e+01	-1.137827e+01
4.627353e+01	-1.142444e+01
4.654081e+01	-1.147124e+01
4.680963e+01	-1.151730e+01
4.708000e+01	-1.156459e+01
4.735193e+01	-1.161080e+01
4.762543e+01	-1.165712e+01
4.790051e+01	-1.170394e+01
4.817719e+01	-1.175023e+01
4.845545e+01	-1.179710e+01
4.873533e+01	-1.184368e+01
4.901682e+01	-1.189085e+01
4.929994e+01	-1.193735e+01
4.958470e+01	-1.198460e+01
4.987110e+01	-1.203109e+01
5.015915e+01	-1.207783e+01
5.044887e+01	-1.212530e+01
5.074026e+01	-1.217240e+01
5.103333e+01	-1.221866e+01
5.132810e+01	-1.226583e+01
5.162457e+01	-1.231385e+01
5.192275e+01	-1.235979e+01
5.222265e+01	-1.240747e+01
5.252429e+01	-1.245428e+01
5.282767e+01	-1.250203e+01
5.313280e+01	-1.254869e+01
5.343969e+01	-1.259576e+01
5.374836e+01	-1.264383e+01
5.405880e+01	-1.269083e+01
5.437105e+01	-1.273819e+01
5.468509e+01	-1.278528e+01
5.500095e+01	-1.283283e+01
5.531863e+01	-1.288025e+01
5.563815e+01	-1.292792e+01
5.595951e+01	-1.297573e+01
5.628273e+01	-1.302254e+01
5.660782e+01	-1.307051e+01
5.693479e+01	-1.311846e+01
5.726364e+01	-1.316567e+01
5.759439e+01	-1.321285e+01
5.792705e+01	-1.326099e+01
5.826164e+01	-1.330879e+01
5.859815e+01	-1.335668e+01
5.893662e+01	-1.340452e+01
5.927703e+01	-1.345254e+01
5.961941e+01	-1.349965e+01
5.996377e+01	-1.354733e+01
6.031012e+01	-1.359547e+01
6.065847e+01	-1.364336e+01
6.100883e+01	-1.369099e+01
6.136121e+01	-1.373917e+01
6.171563e+01	-1.378585e+01
6.207210e+01	-1.383461e+01
6.243063e+01	-1.388306e+01
6.279122e+01	-1.393012e+01
6.315390e+01	-1.397907e+01
6.351868e+01	-1.402816e+01
6.388556e+01	-1.407374e+01
6.425456e+01	-1.412243e+01
6.462569e+01	-1.417091e+01
6.499897e+01	-1.421954e+01
6.537440e+01	-1.426778e+01
6.575200e+01	-1.431523e+01
6.613178e+01	-1.436295e+01
6.651375e+01	-1.441181e+01
6.689793e+01	-1.445966e+01
6.728433e+01	-1.450792e+01
6.767297e+01	-1.455626e+01
6.806384e+01	-1.460403e+01
6.845698e+01	-1.465454e+01
6.885238e+01	-1.470109e+01
6.925007e+01	-1.474971e+01
6.965005e+01	-1.479694e+01
7.005235e+01	-1.484723e+01
7.045697e+01	-1.489525e+01
7.086393e+01	-1.494291e+01
7.127323e+01	-1.499134e+01
7.168490e+01	-1.504002e+01
7.209895e+01	-1.508881e+01
7.251539e+01	-1.513806e+01
7.293424e+01	-1.518530e+01
7.335551e+01	-1.523367e+01
7.377920e+01	-1.528328e+01
7.420535e+01	-1.533188e+01
7.463396e+01	-1.538047e+01
7.506504e+01	-1.542801e+01
7.549861e+01	-1.547764e+01
7.593469e+01	-1.552623e+01
7.637328e+01	-1.557504e+01
7.681441e+01	-1.562392e+01
7.725809e+01	-1.567162e+01
7.770433e+01	-1.572090e+01
7.815315e+01	-1.576952e+01
7.860456e+01	-1.581822e+01
7.905857e+01	-1.586697e+01
7.951521e+01	-1.591627e+01
7.997449e+01	-1.596369e+01
8.043642e+01	-1.601272e+01
8.090102e+01	-1.606037e+01
8.136830e+01	-1.611058e+01
8.183828e+01	-1.615870e+01
8.231097e+01	-1.620719e+01
8.278640e+01	-1.625643e+01
8.326457e+01	-1.630591e+01
8.374550e+01	-1.635403e+01
8.422921e+01	-1.640364e+01
8.471572e+01	-1.645261e+01
8.520503e+01	-1.650048e+01
8.569717e+01	-1.655094e+01
8.619215e+01	-1.659975e+01
8.669000e+01	-1.664798e+01
8.719071e+01	-1.669680e+01
8.769432e+01	-1.674645e+01
8.820084e+01	-1.679540e+01
8.871029e+01	-1.684363e+01
8.922267e+01	-1.689292e+01
8.973802e+01	-1.694223e+01
9.025634e+01	-1.699026e+01
9.077766e+01	-1.704006e+01
9.130199e+01	-1.708869e+01
9.182935e+01	-1.713880e+01
9.235975e+01	-1.718705e+01
9.289321e+01	-1.723576e+01
9.342976e+01	-1.728491e+01
9.396941e+01	-1.733446e+01
9.451217e+01	-1.738432e+01
9.505807e+01	-1.743161e+01
9.560712e+01	-1.748160e+01
9.615934e+01	-1.753092e+01
9.671476e+01	-1.758024e+01
9.727338e+01	-1.762960e+01
9.783522e+01	-1.767908e+01
9.840032e+01	-1.772720e+01
9.896867e+01	-1.777690e+01
9.954031e+01	-1.782590e+01
1.001153e+02	-1.787521e+01
1.006935e+02	-1.792423e+01
1.012751e+02	-1.797488e+01
1.018601e+02	-1.802192e+01
1.024484e+02	-1.807156e+01
1.030402e+02	-1.812128e+01
1.036353e+02	-1.817052e+01
1.042339e+02	-1.821970e+01
1.048360e+02	-1.826958e+01
1.054415e+02	-1.831879e+01
1.060505e+02	-1.836818e+01
1.066631e+02	-1.841692e+01
1.072791e+02	-1.846642e+01
1.078988e+02	-1.851538e+01
1.085220e+02	-1.856543e+01
1.091488e+02	-1.861469e+01
1.097793e+02	-1.866223e+01
1.104133e+02	-1.871302e+01
1.110511e+02	-1.876088e+01
1.116925e+02	-1.881201e+01
1.123376e+02	-1.886136e+01
1.129865e+02	-1.891188e+01
1.136391e+02	-1.896033e+01
1.142955e+02	-1.900945e+01
1.149556e+02	-1.905760e+01
1.156196e+02	-1.910827e+01
1.162874e+02	-1.915820e+01
1.169591e+02	-1.920721e+01
1.176347e+02	-1.925636e+01
1.183141e+02	-1.930594e+01
1.189975e+02	-1.935578e+01
1.196848e+02	-1.940527e+01
1.203761e+02	-1.945520e+01
1.210714e+02	-1.950443e+01
1.217707e+02	-1.955245e+01
1.224740e+02	-1.960291e+01
1.231814e+02	-1.965230e+01
1.238929e+02	-1.970063e+01
1.246085e+02	-1.975096e+01
1.253283e+02	-1.980052e+01
1.260522e+02	-1.984906e+01
1.267802e+02	-1.989936e+01
1.275125e+02	-1.994825e+01
1.282490e+02	-1.999897e+01
1.289898e+02	-2.004790e+01
1.297348e+02	-2.009970e+01
1.304842e+02	-2.014929e+01
1.312378e+02	-2.019791e+01
1.319959e+02	-2.024714e+01
1.327583e+02	-2.029699e+01
1.335251e+02	-2.034639e+01
1.342963e+02	-2.039544e+01
1.350720e+02	-2.044438e+01
1.358522e+02	-2.049550e+01
1.366368e+02	-2.054305e+01
1.374260e+02	-2.059661e+01
1.382198e+02	-2.064362e+01
1.390182e+02	-2.069245e+01
1.398211e+02	-2.074316e+01
1.406287e+02	-2.079242e+01
1.414410e+02	-2.084259e+01
1.422579e+02	-2.089245e+01
1.430796e+02	-2.094157e+01
1.439060e+02	-2.099094e+01
1.447372e+02	-2.104167e+01
1.455732e+02	-2.108881e+01
1.464141e+02	-2.113952e+01
1.472597e+02	-2.118974e+01
1.481103e+02	-2.123965e+01
1.489658e+02	-2.128970e+01
1.498262e+02	-2.133968e+01
1.506916e+02	-2.138778e+01
1.515620e+02	-2.143836e+01
1.524374e+02	-2.148593e+01
1.533179e+02	-2.153644e+01
1.542034e+02	-2.158653e+01
1.550941e+02	-2.163576e+01
1.559899e+02	-2.168682e+01
1.568909e+02	-2.173743e+01
1.577971e+02	-2.178585e+01
1.587085e+02	-2.183453e+01
1.596252e+02	-2.188614e+01
1.605472e+02	-2.193444e+01
1.614745e+02	-2.198564e+01
1.624072e+02	-2.203536e+01
1.633453e+02	-2.208333e+01
1.642887e+02	-2.213294e+01
1.652377e+02	-2.218377e+01
1.661921e+02	-2.223427e+01
1.671520e+02	-2.228237e+01
1.681175e+02	-2.233079e+01
1.690885e+02	-2.238084e+01
1.700651e+02	-2.243181e+01
1.710474e+02	-2.248266e+01
1.720354e+02	-2.252964e+01
1.730291e+02	-2.258211e+01
1.740285e+02	-2.263202e+01
1.750337e+02	-2.268045e+01
1.760446e+02	-2.273096e+01
1.770615e+02	-2.278155e+01
1.780842e+02	-2.283011e+01
1.791128e+02	-2.287883e+01
1.801473e+02	-2.292938e+01
1.811878e+02	-2.298105e+01
1.822344e+02	-2.302847e+01
1.832870e+02	-2.308067e+01
1.843456e+02	-2.312743e+01
1.854104e+02	-2.317889e+01
1.864813e+02	-2.323154e+01
1.875584e+02	-2.327803e+01
1.886418e+02	-2.332838e+01
1.897313e+02	-2.338119e+01
1.908272e+02	-2.342622e+01
1.919294e+02	-2.347874e+01
1.930380e+02	-2.352921e+01
1.941530e+02	-2.357783e+01
1.952744e+02	-2.362909e+01
1.964023e+02	-2.367559e+01
1.975367e+02	-2.372641e+01
1.986777e+02	-2.377498e+01
1.998252e+02	-2.382468e+01
2.009794e+02	-2.387790e+01
2.021403e+02	-2.392473e+01
2.033078e+02	-2.397916e+01
2.044821e+02	-2.402480e+01
2.056632e+02	-2.407489e+01
2.068511e+02	-2.412370e+01
2.080459e+02	-2.417421e+01
2.092475e+02	-2.422677e+01
2.104561e+02	-2.427332e+01
2.116717e+02	-2.432412e+01
2.128943e+02	-2.437216e+01
2.141240e+02	-2.442417e+01
2.153608e+02	-2.447252e+01
2.166047e+02	-2.452670e+01
2.178558e+02	-2.457297e+01
2.191141e+02	-2.462736e+01
2.203797e+02	-2.467385e+01
2.216526e+02	-2.472361e+01
2.229329e+02	-2.477541e+01
2.242205e+02	-2.482553e+01
2.255156e+02	-2.487274e+01
2.268182e+02	-2.492428e+01
2.281283e+02	-2.497456e+01
2.294459e+02	-2.502424e+01
2.307712e+02	-2.507214e+01
2.321041e+02	-2.512186e+01
2.334447e+02	-2.517376e+01
2.347931e+02	-2.522344e+01
2.361493e+02	-2.527226e+01
2.375133e+02	-2.532249e+01
2.388851e+02	-2.537317e+01
2.402649e+02	-2.542358e+01
2.416527e+02	-2.547424e+01
2.430484e+02	-2.552063e+01
2.444523e+02	-2.557344e+01
2.458642e+02	-2.562264e+01
2.472843e+02	-2.567092e+01
2.487126e+02	-2.572197e+01
2.501492e+02	-2.576993e+01
2.515940e+02	-2.582466e+01
2.530472e+02	-2.587517e+01
2.545088e+02	-2.592307e+01
2.559789e+02	-2.597078e+01
2.574574e+02	-2.602167e+01
2.589444e+02	-2.607432e+01
2.604401e+02	-2.612113e+01
2.619444e+02	-2.617172e+01
2.634574e+02	-2.622307e+01
2.649791e+02	-2.627540e+01
2.665096e+02	-2.632373e+01
2.680489e+02	-2.637657e+01
2.695972e+02	-2.642103e+01
2.711544e+02	-2.647106e+01
2.727205e+02	-2.652159e+01
2.742958e+02	-2.657442e+01
2.758801e+02	-2.661799e+01
2.774736e+02	-2.667196e+01
2.790762e+02	-2.672157e+01
2.806882e+02	-2.677336e+01
2.823094e+02	-2.681989e+01
2.839400e+02	-2.686922e+01
2.855800e+02	-2.692529e+01
2.872295e+02	-2.697091e+01
2.888886e+02	-2.702120e+01
2.905572e+02	-2.707339e+01
2.922354e+02	-2.712083e+01
2.939234e+02	-2.717061e+01
2.956211e+02	-2.721982e+01
2.973286e+02	-2.727533e+01
2.990459e+02	-2.732377e+01
3.007732e+02	-2.737150e+01
3.025104e+02	-2.741811e+01
3.042577e+02	-2.747266e+01
3.060151e+02	-2.752088e+01
3.077826e+02	-2.757239e+01
3.095604e+02	-2.762149e+01
3.113484e+02	-2.766871e+01
3.131467e+02	-2.771925e+01
3.149554e+02	-2.777133e+01
3.167746e+02	-2.782104e+01
3.186043e+02	-2.787576e+01
3.204445e+02	-2.792242e+01
3.222954e+02	-2.797408e+01
3.241570e+02	-2.801790e+01
3.260293e+02	-2.807183e+01
3.279124e+02	-2.812322e+01
3.298064e+02	-2.817290e+01
3.317114e+02	-2.822438e+01
3.336273e+02	-2.827588e+01
3.355544e+02	-2.832259e+01
3.374925e+02	-2.837306e+01
3.394418e+02	-2.842050e+01
3.414024e+02	-2.847082e+01
3.433744e+02	-2.851939e+01
3.453577e+02	-2.857250e+01
3.473525e+02	-2.862049e+01
3.493588e+02	-2.867412e+01
3.513766e+02	-2.872373e+01
3.534062e+02	-2.877305e+01
3.554474e+02	-2.882057e+01
3.575005e+02	-2.887382e+01
3.595654e+02	-2.892808e+01
3.616422e+02	-2.897155e+01
3.637311e+02	-2.902335e+01
3.658320e+02	-2.907336e+01
3.679450e+02	-2.912250e+01
3.700702e+02	-2.917692e+01
3.722077e+02	-2.922286e+01
3.743576e+02	-2.927358e+01
3.765199e+02	-2.932232e+01
3.786946e+02	-2.937407e+01
3.808820e+02	-2.942388e+01
3.830819e+02	-2.947900e+01
3.852946e+02	-2.951797e+01
3.875200e+02	-2.957446e+01
3.897583e+02	-2.962687e+01
3.920096e+02	-2.967474e+01
3.942738e+02	-2.972618e+01
3.965511e+02	-2.977946e+01
3.988416e+02	-2.982826e+01
4.011452e+02	-2.987390e+01
4.034622e+02	-2.992332e+01
4.057926e+02	-2.997689e+01
4.081365e+02	-3.002709e+01
4.104938e+02	-3.007663e+01
4.128648e+02	-3.012389e+01
4.152495e+02	-3.017452e+01
4.176480e+02	-3.022577e+01
4.200603e+02	-3.027312e+01
4.224866e+02	-3.032306e+01
4.249268e+02	-3.037307e+01
4.273812e+02	-3.042784e+01
4.298497e+02	-3.047817e+01
4.323325e+02	-3.052461e+01
4.348297e+02	-3.057275e+01
4.373412e+02	-3.062377e+01
4.398673e+02	-3.067517e+01
4.424079e+02	-3.073005e+01
4.449633e+02	-3.077562e+01
4.475334e+02	-3.083077e+01
4.501183e+02	-3.088129e+01
4.527182e+02	-3.093006e+01
4.553330e+02	-3.097741e+01
4.579630e+02	-3.102956e+01
4.606082e+02	-3.108310e+01
4.632687e+02	-3.112759e+01
4.659445e+02	-3.117986e+01
4.686358e+02	-3.122629e+01
4.713426e+02	-3.128128e+01
4.740650e+02	-3.132568e+01
4.768032e+02	-3.137265e+01
4.795572e+02	-3.143692e+01
4.823271e+02	-3.148332e+01
4.851130e+02	-3.153144e+01
4.879150e+02	-3.158183e+01
4.907332e+02	-3.163112e+01
4.935676e+02	-3.167844e+01
4.964185e+02	-3.173287e+01
4.992858e+02	-3.178132e+01
5.021696e+02	-3.183395e+01
5.050701e+02	-3.188406e+01
5.079874e+02	-3.192685e+01
5.109215e+02	-3.197749e+01
5.138726e+02	-3.202429e+01
5.168407e+02	-3.207577e+01
5.198259e+02	-3.212598e+01
5.228284e+02	-3.218101e+01
5.258482e+02	-3.223028e+01
5.288855e+02	-3.228057e+01
5.319403e+02	-3.233522e+01
5.350128e+02	-3.238518e+01
5.381030e+02	-3.243461e+01
5.412111e+02	-3.248242e+01
5.443371e+02	-3.253442e+01
5.474812e+02	-3.257757e+01
5.506434e+02	-3.263040e+01
5.538239e+02	-3.268626e+01
5.570228e+02	-3.273118e+01
5.602401e+02	-3.278755e+01
5.634760e+02	-3.284045e+01
5.667306e+02	-3.289197e+01
5.700040e+02	-3.294157e+01
5.732964e+02	-3.298320e+01
5.766077e+02	-3.303325e+01
5.799382e+02	-3.308531e+01
5.832879e+02	-3.313266e+01
5.866569e+02	-3.319559e+01
5.900454e+02	-3.323404e+01
5.934535e+02	-3.328530e+01
5.968813e+02	-3.333504e+01
6.003288e+02	-3.339715e+01
6.037963e+02	-3.344736e+01
6.072838e+02	-3.348918e+01
6.107914e+02	-3.353690e+01
6.143194e+02	-3.358254e+01
6.178676e+02	-3.364080e+01
6.214364e+02	-3.369491e+01
6.250258e+02	-3.374174e+01
6.286359e+02	-3.379360e+01
6.322669e+02	-3.384643e+01
6.359189e+02	-3.389420e+01
6.395919e+02	-3.393823e+01
6.432862e+02	-3.399718e+01
6.470017e+02	-3.405065e+01
6.507388e+02	-3.409185e+01
6.544974e+02	-3.414289e+01
6.582778e+02	-3.418580e+01
6.620800e+02	-3.425153e+01
6.659041e+02	-3.429315e+01
6.697504e+02	-3.435042e+01
6.736188e+02	-3.439741e+01
6.775096e+02	-3.444098e+01
6.814229e+02	-3.450231e+01
6.853587e+02	-3.454335e+01
6.893173e+02	-3.459662e+01
6.932988e+02	-3.464839e+01
6.973033e+02	-3.469290e+01
7.013309e+02	-3.474711e+01
