Frequency(Hz)	Magnitude(dB)
1.000000e+01	-2.029336e+00
1.005776e+01	-2.048173e+00
1.011585e+01	-2.067226e+00
1.017428e+01	-2.086216e+00
1.023305e+01	-2.105178e+00
1.029215e+01	-2.124483e+00
1.035160e+01	-2.143958e+00
1.041139e+01	-2.163558e+00
1.047153e+01	-2.183034e+00
1.053201e+01	-2.203073e+00
1.059284e+01	-2.223130e+00
1.065403e+01	-2.242937e+00
1.071556e+01	-2.263223e+00
1.077746e+01	-2.283828e+00
1.083971e+01	-2.304213e+00
1.090232e+01	-2.324894e+00
1.096529e+01	-2.345560e+00
1.102862e+01	-2.366701e+00
1.109232e+01	-2.387780e+00
1.115639e+01	-2.409164e+00
1.122083e+01	-2.430386e+00
1.128564e+01	-2.451865e+00
1.135083e+01	-2.473550e+00
1.141639e+01	-2.495333e+00
1.148233e+01	-2.517405e+00
1.154865e+01	-2.539155e+00
1.161536e+01	-2.561584e+00
1.168245e+01	-2.584139e+00
1.174992e+01	-2.606601e+00
1.181779e+01	-2.628927e+00
1.188605e+01	-2.651863e+00
1.195470e+01	-2.674856e+00
1.202375e+01	-2.697923e+00
1.209320e+01	-2.720937e+00
1.216305e+01	-2.744547e+00
1.223330e+01	-2.768177e+00
1.230396e+01	-2.791626e+00
1.237503e+01	-2.815654e+00
1.244651e+01	-2.839243e+00
1.251840e+01	-2.863617e+00
1.259070e+01	-2.887735e+00
1.266343e+01	-2.912124e+00
1.273657e+01	-2.936398e+00
1.281014e+01	-2.960987e+00
1.288413e+01	-2.986106e+00
1.295855e+01	-3.010833e+00
1.303339e+01	-3.036025e+00
1.310867e+01	-3.060974e+00
1.318439e+01	-3.086617e+00
1.326054e+01	-3.112094e+00
1.333713e+01	-3.137928e+00
1.341417e+01	-3.163505e+00
1.349165e+01	-3.189561e+00
1.356958e+01	-3.215892e+00
1.364795e+01	-3.241937e+00
1.372678e+01	-3.268276e+00
1.380607e+01	-3.294761e+00
1.388581e+01	-3.321522e+00
1.396602e+01	-3.348517e+00
1.404668e+01	-3.375459e+00
1.412782e+01	-3.402269e+00
1.420942e+01	-3.429793e+00
1.429149e+01	-3.457034e+00
1.437404e+01	-3.484377e+00
1.445706e+01	-3.512394e+00
1.454057e+01	-3.540166e+00
1.462455e+01	-3.568050e+00
1.470902e+01	-3.596125e+00
1.479398e+01	-3.624334e+00
1.487943e+01	-3.652539e+00
1.496537e+01	-3.681156e+00
1.505181e+01	-3.709977e+00
1.513875e+01	-3.738677e+00
1.522619e+01	-3.767624e+00
1.531414e+01	-3.796722e+00
1.540259e+01	-3.826282e+00
1.549156e+01	-3.855324e+00
1.558103e+01	-3.884670e+00
1.567103e+01	-3.914609e+00
1.576155e+01	-3.944128e+00
1.585258e+01	-3.974463e+00
1.594415e+01	-4.004282e+00
1.603624e+01	-4.034324e+00
1.612886e+01	-4.064663e+00
1.622202e+01	-4.095496e+00
1.631572e+01	-4.125771e+00
1.640996e+01	-4.156707e+00
1.650474e+01	-4.187704e+00
1.660008e+01	-4.218444e+00
1.669596e+01	-4.249595e+00
1.679239e+01	-4.281033e+00
1.688938e+01	-4.312356e+00
1.698694e+01	-4.343790e+00
1.708505e+01	-4.375411e+00
1.718373e+01	-4.407354e+00
1.728299e+01	-4.439485e+00
1.738281e+01	-4.471580e+00
1.748322e+01	-4.503750e+00
1.758420e+01	-4.535886e+00
1.768576e+01	-4.568407e+00
1.778792e+01	-4.601037e+00
1.789066e+01	-4.633907e+00
1.799399e+01	-4.666728e+00
1.809793e+01	-4.699937e+00
1.820246e+01	-4.733134e+00
1.830760e+01	-4.766232e+00
1.841334e+01	-4.799661e+00
1.851969e+01	-4.832993e+00
1.862666e+01	-4.866799e+00
1.873425e+01	-4.900398e+00
1.884246e+01	-4.934504e+00
1.895129e+01	-4.968446e+00
1.906075e+01	-5.002798e+00
1.917085e+01	-5.036913e+00
1.928158e+01	-5.071418e+00
1.939295e+01	-5.105710e+00
1.950496e+01	-5.140566e+00
1.961762e+01	-5.175010e+00
1.973093e+01	-5.210059e+00
1.984490e+01	-5.245249e+00
1.995952e+01	-5.280478e+00
2.007480e+01	-5.315760e+00
2.019076e+01	-5.350957e+00
2.030738e+01	-5.386649e+00
2.042467e+01	-5.422154e+00
2.054264e+01	-5.457479e+00
2.066130e+01	-5.493665e+00
2.078064e+01	-5.529575e+00
2.090066e+01	-5.565758e+00
2.102139e+01	-5.601837e+00
2.114280e+01	-5.638090e+00
2.126492e+01	-5.674680e+00
2.138775e+01	-5.711197e+00
2.151128e+01	-5.747705e+00
2.163553e+01	-5.784292e+00
2.176050e+01	-5.821462e+00
2.188619e+01	-5.858230e+00
2.201260e+01	-5.895349e+00
2.213974e+01	-5.932466e+00
2.226762e+01	-5.969667e+00
2.239624e+01	-6.007614e+00
2.252560e+01	-6.045181e+00
2.265571e+01	-6.082791e+00
2.278656e+01	-6.120292e+00
2.291818e+01	-6.158063e+00
2.305055e+01	-6.196517e+00
2.318369e+01	-6.234245e+00
2.331760e+01	-6.272576e+00
2.345228e+01	-6.310963e+00
2.358774e+01	-6.349092e+00
2.372398e+01	-6.387626e+00
2.386101e+01	-6.426019e+00
2.399883e+01	-6.464843e+00
2.413745e+01	-6.503717e+00
2.427686e+01	-6.542288e+00
2.441709e+01	-6.581766e+00
2.455812e+01	-6.620479e+00
2.469997e+01	-6.659678e+00
2.484263e+01	-6.699101e+00
2.498612e+01	-6.738937e+00
2.513044e+01	-6.777854e+00
2.527559e+01	-6.817402e+00
2.542158e+01	-6.857355e+00
2.556842e+01	-6.896792e+00
2.571610e+01	-6.936831e+00
2.586463e+01	-6.976961e+00
2.601403e+01	-7.016938e+00
2.616428e+01	-7.056516e+00
2.631541e+01	-7.096798e+00
2.646740e+01	-7.137351e+00
2.662028e+01	-7.177775e+00
2.677404e+01	-7.218287e+00
2.692868e+01	-7.259083e+00
2.708422e+01	-7.299562e+00
2.724066e+01	-7.340121e+00
2.739800e+01	-7.380870e+00
2.755625e+01	-7.422007e+00
2.771541e+01	-7.462927e+00
2.787550e+01	-7.504275e+00
2.803650e+01	-7.545231e+00
2.819844e+01	-7.586397e+00
2.836131e+01	-7.628004e+00
2.852513e+01	-7.669017e+00
2.868989e+01	-7.710904e+00
2.885560e+01	-7.752563e+00
2.902227e+01	-7.794182e+00
2.918990e+01	-7.836036e+00
2.935850e+01	-7.877729e+00
2.952807e+01	-7.919768e+00
2.969863e+01	-7.961452e+00
2.987016e+01	-8.003496e+00
3.004269e+01	-8.045699e+00
3.021622e+01	-8.088246e+00
3.039075e+01	-8.130255e+00
3.056628e+01	-8.172864e+00
3.074283e+01	-8.215311e+00
3.092040e+01	-8.258145e+00
3.109900e+01	-8.299879e+00
3.127862e+01	-8.343331e+00
3.145929e+01	-8.385657e+00
3.164099e+01	-8.428689e+00
3.182375e+01	-8.471166e+00
3.200756e+01	-8.514678e+00
3.219244e+01	-8.556795e+00
3.237838e+01	-8.600438e+00
3.256540e+01	-8.643719e+00
3.275349e+01	-8.686671e+00
3.294268e+01	-8.730164e+00
3.313295e+01	-8.773609e+00
3.332433e+01	-8.817170e+00
3.351681e+01	-8.860987e+00
3.371040e+01	-8.903770e+00
3.390511e+01	-8.947239e+00
3.410094e+01	-8.991478e+00
3.429791e+01	-9.035328e+00
3.449601e+01	-9.078958e+00
3.469526e+01	-9.122859e+00
3.489566e+01	-9.166194e+00
3.509721e+01	-9.210688e+00
3.529993e+01	-9.254456e+00
3.550382e+01	-9.299032e+00
3.570889e+01	-9.343434e+00
3.591515e+01	-9.387312e+00
3.612259e+01	-9.431143e+00
3.633123e+01	-9.475696e+00
3.654108e+01	-9.519601e+00
3.675214e+01	-9.564465e+00
3.696442e+01	-9.609106e+00
3.717792e+01	-9.653849e+00
3.739266e+01	-9.698452e+00
3.760864e+01	-9.742942e+00
3.782587e+01	-9.788129e+00
3.804435e+01	-9.832733e+00
3.826409e+01	-9.877813e+00
3.848510e+01	-9.922198e+00
3.870739e+01	-9.967296e+00
3.893096e+01	-1.001275e+01
3.915583e+01	-1.005750e+01
3.938199e+01	-1.010264e+01
3.960946e+01	-1.014809e+01
3.983824e+01	-1.019316e+01
4.006834e+01	-1.023817e+01
4.029978e+01	-1.028361e+01
4.053255e+01	-1.032918e+01
4.076666e+01	-1.037426e+01
4.100213e+01	-1.041946e+01
4.123896e+01	-1.046551e+01
4.147715e+01	-1.051086e+01
4.171672e+01	-1.055666e+01
4.195767e+01	-1.060224e+01
4.220002e+01	-1.064766e+01
4.244377e+01	-1.069348e+01
4.268892e+01	-1.073921e+01
4.293549e+01	-1.078521e+01
4.318348e+01	-1.083074e+01
4.343291e+01	-1.087735e+01
4.368377e+01	-1.092292e+01
4.393609e+01	-1.096907e+01
4.418986e+01	-1.101457e+01
4.444510e+01	-1.106150e+01
4.470182e+01	-1.110722e+01
4.496001e+01	-1.115345e+01
4.521970e+01	-1.119952e+01
4.548089e+01	-1.124546e+01
4.574358e+01	-1.129174e+01
4.600779e+01	-1.133813e+01
4.627353e+01	-1.138464e+01
4.654081e+01	-1.143102e+01
4.680963e+01	-1.147772e+01
4.708000e+01	-1.152372e+01
4.735193e+01	-1.157092e+01
4.762543e+01	-1.161738e+01
4.790051e+01	-1.166368e+01
4.817719e+01	-1.171022e+01
4.845545e+01	-1.175713e+01
4.873533e+01	-1.180424e+01
4.901682e+01	-1.185029e+01
4.929994e+01	-1.189695e+01
4.958470e+01	-1.194463e+01
4.987110e+01	-1.199093e+01
5.015915e+01	-1.203753e+01
5.044887e+01	-1.208487e+01
5.074026e+01	-1.213198e+01
5.103333e+01	-1.217876e+01
5.132810e+01	-1.222575e+01
5.162457e+01	-1.227285e+01
5.192275e+01	-1.231966e+01
5.222265e+01	-1.236630e+01
5.252429e+01	-1.241410e+01
5.282767e+01	-1.246143e+01
5.313280e+01	-1.250860e+01
5.343969e+01	-1.255613e+01
5.374836e+01	-1.260291e+01
5.405880e+01	-1.265007e+01
5.437105e+01	-1.269688e+01
5.468509e+01	-1.274533e+01
5.500095e+01	-1.279242e+01
5.531863e+01	-1.283977e+01
5.563815e+01	-1.288749e+01
5.595951e+01	-1.293464e+01
5.628273e+01	-1.298215e+01
5.660782e+01	-1.303000e+01
5.693479e+01	-1.307701e+01
5.726364e+01	-1.312461e+01
5.759439e+01	-1.317256e+01
5.792705e+01	-1.321984e+01
5.826164e+01	-1.326773e+01
5.859815e+01	-1.331496e+01
5.893662e+01	-1.336272e+01
5.927703e+01	-1.341104e+01
5.961941e+01	-1.345877e+01
5.996377e+01	-1.350560e+01
6.031012e+01	-1.355422e+01
6.065847e+01	-1.360238e+01
6.100883e+01	-1.364978e+01
6.136121e+01	-1.369757e+01
6.171563e+01	-1.374594e+01
6.207210e+01	-1.379389e+01
6.243063e+01	-1.384145e+01
6.279122e+01	-1.388994e+01
6.315390e+01	-1.393701e+01
6.351868e+01	-1.398525e+01
6.388556e+01	-1.403354e+01
6.425456e+01	-1.408188e+01
6.462569e+01	-1.412979e+01
6.499897e+01	-1.417797e+01
6.537440e+01	-1.422629e+01
6.575200e+01	-1.427383e+01
6.613178e+01	-1.432183e+01
6.651375e+01	-1.437030e+01
6.689793e+01	-1.441820e+01
6.728433e+01	-1.446648e+01
6.767297e+01	-1.451556e+01
6.806384e+01	-1.456342e+01
6.845698e+01	-1.461281e+01
6.885238e+01	-1.465973e+01
6.925007e+01	-1.470866e+01
6.965005e+01	-1.475642e+01
7.005235e+01	-1.480442e+01
7.045697e+01	-1.485234e+01
7.086393e+01	-1.490134e+01
7.127323e+01	-1.495055e+01
7.168490e+01	-1.499938e+01
7.209895e+01	-1.504767e+01
7.251539e+01	-1.509564e+01
7.293424e+01	-1.514344e+01
7.335551e+01	-1.519339e+01
7.377920e+01	-1.524134e+01
7.420535e+01	-1.529011e+01
7.463396e+01	-1.533809e+01
7.506504e+01	-1.538619e+01
7.549861e+01	-1.543553e+01
7.593469e+01	-1.548448e+01
7.637328e+01	-1.553185e+01
7.681441e+01	-1.558071e+01
7.725809e+01	-1.562918e+01
7.770433e+01	-1.567827e+01
7.815315e+01	-1.572744e+01
7.860456e+01	-1.577658e+01
7.905857e+01	-1.582447e+01
7.951521e+01	-1.587422e+01
7.997449e+01	-1.592277e+01
8.043642e+01	-1.597083e+01
8.090102e+01	-1.602047e+01
8.136830e+01	-1.606856e+01
8.183828e+01	-1.611725e+01
8.231097e+01	-1.616667e+01
8.278640e+01	-1.621475e+01
8.326457e+01	-1.626350e+01
8.374550e+01	-1.631384e+01
8.422921e+01	-1.636038e+01
8.471572e+01	-1.641165e+01
8.520503e+01	-1.646016e+01
8.569717e+01	-1.650704e+01
8.619215e+01	-1.655618e+01
8.669000e+01	-1.660490e+01
8.719071e+01	-1.665611e+01
8.769432e+01	-1.670498e+01
8.820084e+01	-1.675379e+01
8.871029e+01	-1.680258e+01
8.922267e+01	-1.685083e+01
8.973802e+01	-1.689967e+01
9.025634e+01	-1.694863e+01
9.077766e+01	-1.699805e+01
9.130199e+01	-1.704776e+01
9.182935e+01	-1.709561e+01
9.235975e+01	-1.714453e+01
9.289321e+01	-1.719516e+01
9.342976e+01	-1.724321e+01
9.396941e+01	-1.729230e+01
9.451217e+01	-1.734119e+01
9.505807e+01	-1.739053e+01
9.560712e+01	-1.744019e+01
9.615934e+01	-1.748904e+01
9.671476e+01	-1.753806e+01
9.727338e+01	-1.758776e+01
9.783522e+01	-1.763723e+01
9.840032e+01	-1.768630e+01
9.896867e+01	-1.773575e+01
9.954031e+01	-1.778547e+01
1.001153e+02	-1.783247e+01
1.006935e+02	-1.788154e+01
1.012751e+02	-1.793121e+01
1.018601e+02	-1.798027e+01
1.024484e+02	-1.802884e+01
1.030402e+02	-1.807953e+01
1.036353e+02	-1.812878e+01
1.042339e+02	-1.817694e+01
1.048360e+02	-1.822718e+01
1.054415e+02	-1.827650e+01
1.060505e+02	-1.832646e+01
1.066631e+02	-1.837570e+01
1.072791e+02	-1.842452e+01
1.078988e+02	-1.847203e+01
1.085220e+02	-1.852405e+01
1.091488e+02	-1.857248e+01
1.097793e+02	-1.862199e+01
1.104133e+02	-1.867166e+01
1.110511e+02	-1.872064e+01
1.116925e+02	-1.876932e+01
1.123376e+02	-1.881975e+01
1.129865e+02	-1.886780e+01
1.136391e+02	-1.891826e+01
1.142955e+02	-1.896818e+01
1.149556e+02	-1.901595e+01
1.156196e+02	-1.906542e+01
1.162874e+02	-1.911467e+01
1.169591e+02	-1.916417e+01
1.176347e+02	-1.921625e+01
1.183141e+02	-1.926266e+01
1.189975e+02	-1.931303e+01
1.196848e+02	-1.936382e+01
1.203761e+02	-1.941231e+01
1.210714e+02	-1.946282e+01
1.217707e+02	-1.951122e+01
1.224740e+02	-1.956001e+01
1.231814e+02	-1.960963e+01
1.238929e+02	-1.965964e+01
1.246085e+02	-1.971122e+01
1.253283e+02	-1.975719e+01
1.260522e+02	-1.980649e+01
1.267802e+02	-1.985793e+01
1.275125e+02	-1.990623e+01
1.282490e+02	-1.995612e+01
1.289898e+02	-2.000461e+01
1.297348e+02	-2.005344e+01
1.304842e+02	-2.010502e+01
1.312378e+02	-2.015566e+01
1.319959e+02	-2.020466e+01
1.327583e+02	-2.025247e+01
1.335251e+02	-2.030219e+01
1.342963e+02	-2.035190e+01
1.350720e+02	-2.040340e+01
1.358522e+02	-2.045252e+01
1.366368e+02	-2.050265e+01
1.374260e+02	-2.055281e+01
1.382198e+02	-2.060079e+01
1.390182e+02	-2.065038e+01
1.398211e+02	-2.070133e+01
1.406287e+02	-2.074892e+01
1.414410e+02	-2.079974e+01
1.422579e+02	-2.084972e+01
1.430796e+02	-2.089590e+01
1.439060e+02	-2.094644e+01
1.447372e+02	-2.099914e+01
1.455732e+02	-2.104726e+01
1.464141e+02	-2.109736e+01
1.472597e+02	-2.114703e+01
1.481103e+02	-2.119819e+01
1.489658e+02	-2.124461e+01
1.498262e+02	-2.129658e+01
1.506916e+02	-2.134476e+01
1.515620e+02	-2.139426e+01
1.524374e+02	-2.144395e+01
1.533179e+02	-2.149549e+01
1.542034e+02	-2.154489e+01
1.550941e+02	-2.159344e+01
1.559899e+02	-2.164436e+01
1.568909e+02	-2.169263e+01
1.577971e+02	-2.174151e+01
1.587085e+02	-2.179266e+01
1.596252e+02	-2.184466e+01
1.605472e+02	-2.189435e+01
1.614745e+02	-2.194177e+01
1.624072e+02	-2.199153e+01
1.633453e+02	-2.204128e+01
1.642887e+02	-2.209212e+01
1.652377e+02	-2.213922e+01
1.661921e+02	-2.219138e+01
1.671520e+02	-2.224103e+01
1.681175e+02	-2.229048e+01
1.690885e+02	-2.233865e+01
1.700651e+02	-2.239010e+01
1.710474e+02	-2.243920e+01
1.720354e+02	-2.248908e+01
1.730291e+02	-2.253841e+01
1.740285e+02	-2.258881e+01
1.750337e+02	-2.263833e+01
1.760446e+02	-2.268806e+01
1.770615e+02	-2.273839e+01
1.780842e+02	-2.278797e+01
1.791128e+02	-2.283615e+01
1.801473e+02	-2.288782e+01
1.811878e+02	-2.293604e+01
1.822344e+02	-2.298694e+01
1.832870e+02	-2.303680e+01
1.843456e+02	-2.308745e+01
1.854104e+02	-2.313696e+01
1.864813e+02	-2.318610e+01
1.875584e+02	-2.323491e+01
1.886418e+02	-2.328602e+01
1.897313e+02	-2.333526e+01
1.908272e+02	-2.338607e+01
1.919294e+02	-2.343578e+01
1.930380e+02	-2.348531e+01
1.941530e+02	-2.353396e+01
1.952744e+02	-2.358525e+01
1.964023e+02	-2.363240e+01
1.975367e+02	-2.368526e+01
1.986777e+02	-2.373526e+01
1.998252e+02	-2.378613e+01
2.009794e+02	-2.383226e+01
2.021403e+02	-2.388350e+01
2.033078e+02	-2.393143e+01
2.044821e+02	-2.398373e+01
2.056632e+02	-2.403294e+01
2.068511e+02	-2.408467e+01
2.080459e+02	-2.413413e+01
2.092475e+02	-2.418383e+01
2.104561e+02	-2.423666e+01
2.116717e+02	-2.428447e+01
2.128943e+02	-2.433496e+01
2.141240e+02	-2.438124e+01
2.153608e+02	-2.443242e+01
2.166047e+02	-2.448167e+01
2.178558e+02	-2.453390e+01
2.191141e+02	-2.458185e+01
2.203797e+02	-2.463055e+01
2.216526e+02	-2.467897e+01
2.229329e+02	-2.473015e+01
2.242205e+02	-2.478232e+01
2.255156e+02	-2.482843e+01
2.268182e+02	-2.488083e+01
2.281283e+02	-2.492899e+01
2.294459e+02	-2.498398e+01
2.307712e+02	-2.503149e+01
2.321041e+02	-2.508229e+01
2.334447e+02	-2.513099e+01
2.347931e+02	-2.518060e+01
2.361493e+02	-2.523358e+01
2.375133e+02	-2.528014e+01
2.388851e+02	-2.533159e+01
2.402649e+02	-2.537906e+01
2.416527e+02	-2.543050e+01
2.430484e+02	-2.548115e+01
2.444523e+02	-2.552778e+01
2.458642e+02	-2.557898e+01
2.472843e+02	-2.563016e+01
2.487126e+02	-2.568113e+01
2.501492e+02	-2.572885e+01
2.515940e+02	-2.577945e+01
2.530472e+02	-2.583015e+01
2.545088e+02	-2.588089e+01
2.559789e+02	-2.593372e+01
2.574574e+02	-2.598087e+01
2.589444e+02	-2.602776e+01
2.604401e+02	-2.607675e+01
2.619444e+02	-2.612963e+01
2.634574e+02	-2.618041e+01
2.649791e+02	-2.623032e+01
2.665096e+02	-2.628028e+01
2.680489e+02	-2.632759e+01
2.695972e+02	-2.638060e+01
2.711544e+02	-2.642988e+01
2.727205e+02	-2.647993e+01
2.742958e+02	-2.652728e+01
2.758801e+02	-2.658003e+01
2.774736e+02	-2.662837e+01
2.790762e+02	-2.667972e+01
2.806882e+02	-2.672791e+01
2.823094e+02	-2.677738e+01
2.839400e+02	-2.682901e+01
2.855800e+02	-2.687839e+01
2.872295e+02	-2.692926e+01
2.888886e+02	-2.698133e+01
2.905572e+02	-2.702856e+01
2.922354e+02	-2.707729e+01
2.939234e+02	-2.712658e+01
2.956211e+02	-2.718077e+01
2.973286e+02	-2.722839e+01
2.990459e+02	-2.728006e+01
3.007732e+02	-2.733076e+01
3.025104e+02	-2.737909e+01
3.042577e+02	-2.742807e+01
3.060151e+02	-2.747688e+01
3.077826e+02	-2.752831e+01
3.095604e+02	-2.757771e+01
3.113484e+02	-2.762543e+01
3.131467e+02	-2.767851e+01
3.149554e+02	-2.772819e+01
3.167746e+02	-2.778094e+01
3.186043e+02	-2.783042e+01
3.204445e+02	-2.788253e+01
3.222954e+02	-2.792811e+01
3.241570e+02	-2.798028e+01
3.260293e+02	-2.802921e+01
3.279124e+02	-2.808021e+01
3.298064e+02	-2.813188e+01
3.317114e+02	-2.817738e+01
3.336273e+02	-2.823274e+01
3.355544e+02	-2.828297e+01
3.374925e+02	-2.833005e+01
3.394418e+02	-2.837915e+01
3.414024e+02	-2.843402e+01
3.433744e+02	-2.848005e+01
3.453577e+02	-2.852748e+01
3.473525e+02	-2.858012e+01
3.493588e+02	-2.862859e+01
3.513766e+02	-2.867940e+01
3.534062e+02	-2.872881e+01
3.554474e+02	-2.877899e+01
3.575005e+02	-2.883055e+01
3.595654e+02	-2.888275e+01
3.616422e+02	-2.892879e+01
3.637311e+02	-2.898358e+01
3.658320e+02	-2.903373e+01
3.679450e+02	-2.908065e+01
3.700702e+02	-2.912761e+01
3.722077e+02	-2.917801e+01
3.743576e+02	-2.922917e+01
3.765199e+02	-2.928203e+01
3.786946e+02	-2.932840e+01
3.808820e+02	-2.938304e+01
3.830819e+02	-2.942918e+01
3.852946e+02	-2.947852e+01
3.875200e+02	-2.953232e+01
3.897583e+02	-2.957712e+01
3.920096e+02	-2.962803e+01
3.942738e+02	-2.968235e+01
3.965511e+02	-2.973540e+01
3.988416e+02	-2.977794e+01
4.011452e+02	-2.983490e+01
4.034622e+02	-2.988349e+01
4.057926e+02	-2.993041e+01
4.081365e+02	-2.998361e+01
4.104938e+02	-3.003258e+01
4.128648e+02	-3.008746e+01
4.152495e+02	-3.013332e+01
4.176480e+02	-3.018502e+01
4.200603e+02	-3.023342e+01
4.224866e+02	-3.028403e+01
4.249268e+02	-3.032810e+01
4.273812e+02	-3.038364e+01
4.298497e+02	-3.043352e+01
4.323325e+02	-3.047953e+01
4.348297e+02	-3.053843e+01
4.373412e+02	-3.058843e+01
4.398673e+02	-3.063299e+01
4.424079e+02	-3.068956e+01
4.449633e+02	-3.073483e+01
4.475334e+02	-3.077705e+01
4.501183e+02	-3.083354e+01
4.527182e+02	-3.088927e+01
4.553330e+02	-3.093676e+01
4.579630e+02	-3.097971e+01
4.606082e+02	-3.103392e+01
4.632687e+02	-3.108229e+01
4.659445e+02	-3.113880e+01
4.686358e+02	-3.118598e+01
4.713426e+02	-3.123895e+01
4.740650e+02	-3.128251e+01
4.768032e+02	-3.133293e+01
4.795572e+02	-3.138359e+01
4.823271e+02	-3.144010e+01
4.851130e+02	-3.148109e+01
4.879150e+02	-3.153462e+01
4.907332e+02	-3.158399e+01
4.935676e+02	-3.163890e+01
4.964185e+02	-3.169153e+01
4.992858e+02	-3.173935e+01
5.021696e+02	-3.179089e+01
5.050701e+02	-3.184301e+01
5.079874e+02	-3.188174e+01
5.109215e+02	-3.193858e+01
5.138726e+02	-3.198437e+01
5.168407e+02	-3.204743e+01
5.198259e+02	-3.209462e+01
5.228284e+02	-3.214054e+01
5.258482e+02	-3.218639e+01
5.288855e+02	-3.224039e+01
5.319403e+02	-3.229295e+01
5.350128e+02	-3.234281e+01
5.381030e+02	-3.239140e+01
5.412111e+02	-3.244487e+01
5.443371e+02	-3.248905e+01
5.474812e+02	-3.254042e+01
5.506434e+02	-3.258844e+01
5.538239e+02	-3.264103e+01
5.570228e+02	-3.269232e+01
5.602401e+02	-3.273701e+01
5.634760e+02	-3.279207e+01
5.667306e+02	-3.284636e+01
5.700040e+02	-3.289575e+01
5.732964e+02	-3.294118e+01
5.766077e+02	-3.299602e+01
5.799382e+02	-3.304792e+01
5.832879e+02	-3.309376e+01
5.866569e+02	-3.313612e+01
5.900454e+02	-3.319624e+01
5.934535e+02	-3.324625e+01
5.968813e+02	-3.329312e+01
6.003288e+02	-3.334579e+01
6.037963e+02	-3.339003e+01
6.072838e+02	-3.344625e+01
6.107914e+02	-3.349329e+01
6.143194e+02	-3.354364e+01
6.178676e+02	-3.359735e+01
6.214364e+02	-3.365089e+01
6.250258e+02	-3.370039e+01
6.286359e+02	-3.375560e+01
6.322669e+02	-3.379675e+01
6.359189e+02	-3.385184e+01
6.395919e+02	-3.389983e+01
6.432862e+02	-3.395036e+01
6.470017e+02	-3.399687e+01
6.507388e+02	-3.405323e+01
6.544974e+02	-3.409591e+01
6.582778e+02	-3.414870e+01
6.620800e+02	-3.420749e+01
6.659041e+02	-3.425279e+01
6.697504e+02	-3.429681e+01
6.736188e+02	-3.435167e+01
6.775096e+02	-3.440583e+01
6.814229e+02	-3.445092e+01
6.853587e+02	-3.450525e+01
6.893173e+02	-3.454868e+01
6.932988e+02	-3.460355e+01
6.973033e+02	-3.466398e+01
7.013309e+02	-3.471121e+01
