Frequency(Hz)	Magnitude(dB)
1.000000e+01	-1.579573e-05
1.005776e+01	-1.597873e-05
1.011585e+01	-1.616384e-05
1.017428e+01	-1.635111e-05
1.023305e+01	-1.654054e-05
1.029215e+01	-1.673216e-05
1.035160e+01	-1.692601e-05
1.041139e+01	-1.712210e-05
1.047153e+01	-1.732047e-05
1.053201e+01	-1.752113e-05
1.059284e+01	-1.772412e-05
1.065403e+01	-1.792945e-05
1.071556e+01	-1.813717e-05
1.077746e+01	-1.834730e-05
1.083971e+01	-1.855985e-05
1.090232e+01	-1.877487e-05
1.096529e+01	-1.899239e-05
1.102862e+01	-1.921242e-05
1.109232e+01	-1.943500e-05
1.115639e+01	-1.966016e-05
1.122083e+01	-1.988793e-05
1.128564e+01	-2.011833e-05
1.135083e+01	-2.035141e-05
1.141639e+01	-2.058718e-05
1.148233e+01	-2.082569e-05
1.154865e+01	-2.106696e-05
1.161536e+01	-2.131103e-05
1.168245e+01	-2.155792e-05
1.174992e+01	-2.180768e-05
1.181779e+01	-2.206032e-05
1.188605e+01	-2.231590e-05
1.195470e+01	-2.257443e-05
1.202375e+01	-2.283596e-05
1.209320e+01	-2.310052e-05
1.216305e+01	-2.336815e-05
1.223330e+01	-2.363887e-05
1.230396e+01	-2.391274e-05
1.237503e+01	-2.418977e-05
1.244651e+01	-2.447002e-05
1.251840e+01	-2.475351e-05
1.259070e+01	-2.504028e-05
1.266343e+01	-2.533038e-05
1.273657e+01	-2.562384e-05
1.281014e+01	-2.592070e-05
1.288413e+01	-2.622100e-05
1.295855e+01	-2.652477e-05
1.303339e+01	-2.683207e-05
1.310867e+01	-2.714293e-05
1.318439e+01	-2.745738e-05
1.326054e+01	-2.777548e-05
1.333713e+01	-2.809727e-05
1.341417e+01	-2.842278e-05
1.349165e+01	-2.875207e-05
1.356958e+01	-2.908517e-05
1.364795e+01	-2.942213e-05
1.372678e+01	-2.976299e-05
1.380607e+01	-3.010780e-05
1.388581e+01	-3.045661e-05
1.396602e+01	-3.080945e-05
1.404668e+01	-3.116639e-05
1.412782e+01	-3.152746e-05
1.420942e+01	-3.189271e-05
1.429149e+01	-3.226219e-05
1.437404e+01	-3.263596e-05
1.445706e+01	-3.301406e-05
1.454057e+01	-3.339653e-05
1.462455e+01	-3.378344e-05
1.470902e+01	-3.417483e-05
1.479398e+01	-3.457075e-05
1.487943e+01	-3.497126e-05
1.496537e+01	-3.537641e-05
1.505181e+01	-3.578625e-05
1.513875e+01	-3.620085e-05
1.522619e+01	-3.662024e-05
1.531414e+01	-3.704450e-05
1.540259e+01	-3.747366e-05
1.549156e+01	-3.790781e-05
1.558103e+01	-3.834698e-05
1.567103e+01	-3.879123e-05
1.576155e+01	-3.924064e-05
1.585258e+01	-3.969525e-05
1.594415e+01	-4.015513e-05
1.603624e+01	-4.062034e-05
1.612886e+01	-4.109093e-05
1.622202e+01	-4.156698e-05
1.631572e+01	-4.204854e-05
1.640996e+01	-4.253568e-05
1.650474e+01	-4.302847e-05
1.660008e+01	-4.352696e-05
1.669596e+01	-4.403123e-05
1.679239e+01	-4.454134e-05
1.688938e+01	-4.505737e-05
1.698694e+01	-4.557937e-05
1.708505e+01	-4.610741e-05
1.718373e+01	-4.664158e-05
1.728299e+01	-4.718193e-05
1.738281e+01	-4.772854e-05
1.748322e+01	-4.828149e-05
1.758420e+01	-4.884084e-05
1.768576e+01	-4.940667e-05
1.778792e+01	-4.997906e-05
1.789066e+01	-5.055808e-05
1.799399e+01	-5.114380e-05
1.809793e+01	-5.173631e-05
1.820246e+01	-5.233569e-05
1.830760e+01	-5.294201e-05
1.841334e+01	-5.355535e-05
1.851969e+01	-5.417580e-05
1.862666e+01	-5.480344e-05
1.873425e+01	-5.543835e-05
1.884246e+01	-5.608062e-05
1.895129e+01	-5.673032e-05
1.906075e+01	-5.738755e-05
1.917085e+01	-5.805240e-05
1.928158e+01	-5.872495e-05
1.939295e+01	-5.940529e-05
1.950496e+01	-6.009351e-05
1.961762e+01	-6.078971e-05
1.973093e+01	-6.149397e-05
1.984490e+01	-6.220639e-05
1.995952e+01	-6.292706e-05
2.007480e+01	-6.365608e-05
2.019076e+01	-6.439355e-05
2.030738e+01	-6.513956e-05
2.042467e+01	-6.589422e-05
2.054264e+01	-6.665761e-05
2.066130e+01	-6.742985e-05
2.078064e+01	-6.821104e-05
2.090066e+01	-6.900128e-05
2.102139e+01	-6.980067e-05
2.114280e+01	-7.060933e-05
2.126492e+01	-7.142735e-05
2.138775e+01	-7.225485e-05
2.151128e+01	-7.309193e-05
2.163553e+01	-7.393872e-05
2.176050e+01	-7.479531e-05
2.188619e+01	-7.566183e-05
2.201260e+01	-7.653838e-05
2.213974e+01	-7.742509e-05
2.226762e+01	-7.832208e-05
2.239624e+01	-7.922945e-05
2.252560e+01	-8.014734e-05
2.265571e+01	-8.107586e-05
2.278656e+01	-8.201514e-05
2.291818e+01	-8.296530e-05
2.305055e+01	-8.392646e-05
2.318369e+01	-8.489876e-05
2.331760e+01	-8.588233e-05
2.345228e+01	-8.687729e-05
2.358774e+01	-8.788378e-05
2.372398e+01	-8.890193e-05
2.386101e+01	-8.993187e-05
2.399883e+01	-9.097374e-05
2.413745e+01	-9.202769e-05
2.427686e+01	-9.309384e-05
2.441709e+01	-9.417235e-05
2.455812e+01	-9.526335e-05
2.469997e+01	-9.636699e-05
2.484263e+01	-9.748342e-05
2.498612e+01	-9.861278e-05
2.513044e+01	-9.975522e-05
2.527559e+01	-1.009109e-04
2.542158e+01	-1.020800e-04
2.556842e+01	-1.032626e-04
2.571610e+01	-1.044589e-04
2.586463e+01	-1.056691e-04
2.601403e+01	-1.068933e-04
2.616428e+01	-1.081316e-04
2.631541e+01	-1.093843e-04
2.646740e+01	-1.106516e-04
2.662028e+01	-1.119335e-04
2.677404e+01	-1.132303e-04
2.692868e+01	-1.145420e-04
2.708422e+01	-1.158690e-04
2.724066e+01	-1.172114e-04
2.739800e+01	-1.185693e-04
2.755625e+01	-1.199429e-04
2.771541e+01	-1.213325e-04
2.787550e+01	-1.227381e-04
2.803650e+01	-1.241601e-04
2.819844e+01	-1.255985e-04
2.836131e+01	-1.270535e-04
2.852513e+01	-1.285255e-04
2.868989e+01	-1.300145e-04
2.885560e+01	-1.315207e-04
2.902227e+01	-1.330444e-04
2.918990e+01	-1.345857e-04
2.935850e+01	-1.361449e-04
2.952807e+01	-1.377221e-04
2.969863e+01	-1.393177e-04
2.987016e+01	-1.409317e-04
3.004269e+01	-1.425644e-04
3.021622e+01	-1.442160e-04
3.039075e+01	-1.458868e-04
3.056628e+01	-1.475769e-04
3.074283e+01	-1.492866e-04
3.092040e+01	-1.510160e-04
3.109900e+01	-1.527656e-04
3.127862e+01	-1.545354e-04
3.145929e+01	-1.563257e-04
3.164099e+01	-1.581367e-04
3.182375e+01	-1.599688e-04
3.200756e+01	-1.618220e-04
3.219244e+01	-1.636967e-04
3.237838e+01	-1.655932e-04
3.256540e+01	-1.675116e-04
3.275349e+01	-1.694522e-04
3.294268e+01	-1.714153e-04
3.313295e+01	-1.734012e-04
3.332433e+01	-1.754100e-04
3.351681e+01	-1.774422e-04
3.371040e+01	-1.794978e-04
3.390511e+01	-1.815773e-04
3.410094e+01	-1.836809e-04
3.429791e+01	-1.858088e-04
3.449601e+01	-1.879614e-04
3.469526e+01	-1.901390e-04
3.489566e+01	-1.923417e-04
3.509721e+01	-1.945700e-04
3.529993e+01	-1.968241e-04
3.550382e+01	-1.991043e-04
3.570889e+01	-2.014110e-04
3.591515e+01	-2.037443e-04
3.612259e+01	-2.061047e-04
3.633123e+01	-2.084924e-04
3.654108e+01	-2.109078e-04
3.675214e+01	-2.133512e-04
3.696442e+01	-2.158228e-04
3.717792e+01	-2.183231e-04
3.739266e+01	-2.208524e-04
3.760864e+01	-2.234110e-04
3.782587e+01	-2.259992e-04
3.804435e+01	-2.286174e-04
3.826409e+01	-2.312659e-04
3.848510e+01	-2.339451e-04
3.870739e+01	-2.366554e-04
3.893096e+01	-2.393970e-04
3.915583e+01	-2.421704e-04
3.938199e+01	-2.449759e-04
3.960946e+01	-2.478140e-04
3.983824e+01	-2.506849e-04
4.006834e+01	-2.535891e-04
4.029978e+01	-2.565269e-04
4.053255e+01	-2.594987e-04
4.076666e+01	-2.625050e-04
4.100213e+01	-2.655461e-04
4.123896e+01	-2.686224e-04
4.147715e+01	-2.717344e-04
4.171672e+01	-2.748824e-04
4.195767e+01	-2.780669e-04
4.220002e+01	-2.812883e-04
4.244377e+01	-2.845470e-04
4.268892e+01	-2.878434e-04
4.293549e+01	-2.911780e-04
4.318348e+01	-2.945513e-04
4.343291e+01	-2.979637e-04
4.368377e+01	-3.014155e-04
4.393609e+01	-3.049074e-04
4.418986e+01	-3.084397e-04
4.444510e+01	-3.120129e-04
4.470182e+01	-3.156276e-04
4.496001e+01	-3.192841e-04
4.521970e+01	-3.229829e-04
4.548089e+01	-3.267246e-04
4.574358e+01	-3.305097e-04
4.600779e+01	-3.343386e-04
4.627353e+01	-3.382118e-04
4.654081e+01	-3.421299e-04
4.680963e+01	-3.460935e-04
4.708000e+01	-3.501029e-04
4.735193e+01	-3.541588e-04
4.762543e+01	-3.582616e-04
4.790051e+01	-3.624120e-04
4.817719e+01	-3.666105e-04
4.845545e+01	-3.708576e-04
4.873533e+01	-3.751539e-04
4.901682e+01	-3.794999e-04
4.929994e+01	-3.838964e-04
4.958470e+01	-3.883437e-04
4.987110e+01	-3.928426e-04
5.015915e+01	-3.973936e-04
5.044887e+01	-4.019973e-04
5.074026e+01	-4.066543e-04
5.103333e+01	-4.113653e-04
5.132810e+01	-4.161308e-04
5.162457e+01	-4.209516e-04
5.192275e+01	-4.258282e-04
5.222265e+01	-4.307613e-04
5.252429e+01	-4.357515e-04
5.282767e+01	-4.407996e-04
5.313280e+01	-4.459061e-04
5.343969e+01	-4.510718e-04
5.374836e+01	-4.562973e-04
5.405880e+01	-4.615833e-04
5.437105e+01	-4.669306e-04
5.468509e+01	-4.723398e-04
5.500095e+01	-4.778117e-04
5.531863e+01	-4.833470e-04
5.563815e+01	-4.889464e-04
5.595951e+01	-4.946106e-04
5.628273e+01	-5.003405e-04
5.660782e+01	-5.061368e-04
5.693479e+01	-5.120001e-04
5.726364e+01	-5.179315e-04
5.759439e+01	-5.239315e-04
5.792705e+01	-5.300010e-04
5.826164e+01	-5.361408e-04
5.859815e+01	-5.423518e-04
5.893662e+01	-5.486347e-04
5.927703e+01	-5.549904e-04
5.961941e+01	-5.614197e-04
5.996377e+01	-5.679234e-04
6.031012e+01	-5.745025e-04
6.065847e+01	-5.811579e-04
6.100883e+01	-5.878903e-04
6.136121e+01	-5.947007e-04
6.171563e+01	-6.015900e-04
6.207210e+01	-6.085591e-04
6.243063e+01	-6.156089e-04
6.279122e+01	-6.227404e-04
6.315390e+01	-6.299545e-04
6.351868e+01	-6.372522e-04
6.388556e+01	-6.446343e-04
6.425456e+01	-6.521021e-04
6.462569e+01	-6.596563e-04
6.499897e+01	-6.672980e-04
6.537440e+01	-6.750282e-04
6.575200e+01	-6.828480e-04
6.613178e+01	-6.907583e-04
6.651375e+01	-6.987603e-04
6.689793e+01	-7.068550e-04
6.728433e+01	-7.150434e-04
6.767297e+01	-7.233267e-04
6.806384e+01	-7.317059e-04
6.845698e+01	-7.401822e-04
6.885238e+01	-7.487567e-04
6.925007e+01	-7.574305e-04
6.965005e+01	-7.662048e-04
7.005235e+01	-7.750807e-04
7.045697e+01	-7.840594e-04
7.086393e+01	-7.931421e-04
7.127323e+01	-8.023300e-04
7.168490e+01	-8.116244e-04
7.209895e+01	-8.210264e-04
7.251539e+01	-8.305373e-04
7.293424e+01	-8.401583e-04
7.335551e+01	-8.498908e-04
7.377920e+01	-8.597361e-04
7.420535e+01	-8.696954e-04
7.463396e+01	-8.797700e-04
7.506504e+01	-8.899613e-04
7.549861e+01	-9.002707e-04
7.593469e+01	-9.106995e-04
7.637328e+01	-9.212491e-04
7.681441e+01	-9.319209e-04
7.725809e+01	-9.427163e-04
7.770433e+01	-9.536367e-04
7.815315e+01	-9.646836e-04
7.860456e+01	-9.758585e-04
7.905857e+01	-9.871628e-04
7.951521e+01	-9.985980e-04
7.997449e+01	-1.010166e-03
8.043642e+01	-1.021867e-03
8.090102e+01	-1.033705e-03
8.136830e+01	-1.045679e-03
8.183828e+01	-1.057792e-03
8.231097e+01	-1.070045e-03
8.278640e+01	-1.082440e-03
8.326457e+01	-1.094979e-03
8.374550e+01	-1.107663e-03
8.422921e+01	-1.120494e-03
8.471572e+01	-1.133474e-03
8.520503e+01	-1.146603e-03
8.569717e+01	-1.159885e-03
8.619215e+01	-1.173321e-03
8.669000e+01	-1.186913e-03
8.719071e+01	-1.200661e-03
8.769432e+01	-1.214569e-03
8.820084e+01	-1.228639e-03
8.871029e+01	-1.242871e-03
8.922267e+01	-1.257268e-03
8.973802e+01	-1.271831e-03
9.025634e+01	-1.286564e-03
9.077766e+01	-1.301466e-03
9.130199e+01	-1.316542e-03
9.182935e+01	-1.331792e-03
9.235975e+01	-1.347219e-03
9.289321e+01	-1.362824e-03
9.342976e+01	-1.378611e-03
9.396941e+01	-1.394580e-03
9.451217e+01	-1.410734e-03
9.505807e+01	-1.427075e-03
9.560712e+01	-1.443605e-03
9.615934e+01	-1.460327e-03
9.671476e+01	-1.477242e-03
9.727338e+01	-1.494353e-03
9.783522e+01	-1.511663e-03
9.840032e+01	-1.529173e-03
9.896867e+01	-1.546885e-03
9.954031e+01	-1.564803e-03
1.001153e+02	-1.582929e-03
1.006935e+02	-1.601264e-03
1.012751e+02	-1.619812e-03
1.018601e+02	-1.638574e-03
1.024484e+02	-1.657554e-03
1.030402e+02	-1.676753e-03
1.036353e+02	-1.696175e-03
1.042339e+02	-1.715822e-03
1.048360e+02	-1.735696e-03
1.054415e+02	-1.755801e-03
1.060505e+02	-1.776138e-03
1.066631e+02	-1.796711e-03
1.072791e+02	-1.817522e-03
1.078988e+02	-1.838574e-03
1.085220e+02	-1.859869e-03
1.091488e+02	-1.881412e-03
1.097793e+02	-1.903204e-03
1.104133e+02	-1.925248e-03
1.110511e+02	-1.947547e-03
1.116925e+02	-1.970105e-03
1.123376e+02	-1.992924e-03
1.129865e+02	-2.016007e-03
1.136391e+02	-2.039358e-03
1.142955e+02	-2.062979e-03
1.149556e+02	-2.086873e-03
1.156196e+02	-2.111044e-03
1.162874e+02	-2.135495e-03
1.169591e+02	-2.160229e-03
1.176347e+02	-2.185250e-03
1.183141e+02	-2.210560e-03
1.189975e+02	-2.236163e-03
1.196848e+02	-2.262063e-03
1.203761e+02	-2.288263e-03
1.210714e+02	-2.314766e-03
1.217707e+02	-2.341576e-03
1.224740e+02	-2.368696e-03
1.231814e+02	-2.396131e-03
1.238929e+02	-2.423883e-03
1.246085e+02	-2.451956e-03
1.253283e+02	-2.480355e-03
1.260522e+02	-2.509082e-03
1.267802e+02	-2.538142e-03
1.275125e+02	-2.567538e-03
1.282490e+02	-2.597275e-03
1.289898e+02	-2.627356e-03
1.297348e+02	-2.657785e-03
1.304842e+02	-2.688567e-03
1.312378e+02	-2.719705e-03
1.319959e+02	-2.751203e-03
1.327583e+02	-2.783066e-03
1.335251e+02	-2.815298e-03
1.342963e+02	-2.847904e-03
1.350720e+02	-2.880887e-03
1.358522e+02	-2.914251e-03
1.366368e+02	-2.948002e-03
1.374260e+02	-2.982144e-03
1.382198e+02	-3.016681e-03
1.390182e+02	-3.051617e-03
1.398211e+02	-3.086959e-03
1.406287e+02	-3.122709e-03
1.414410e+02	-3.158873e-03
1.422579e+02	-3.195456e-03
1.430796e+02	-3.232462e-03
1.439060e+02	-3.269897e-03
1.447372e+02	-3.307765e-03
1.455732e+02	-3.346072e-03
1.464141e+02	-3.384822e-03
1.472597e+02	-3.424021e-03
1.481103e+02	-3.463673e-03
1.489658e+02	-3.503784e-03
1.498262e+02	-3.544360e-03
1.506916e+02	-3.585405e-03
1.515620e+02	-3.626926e-03
1.524374e+02	-3.668927e-03
1.533179e+02	-3.711414e-03
1.542034e+02	-3.754393e-03
1.550941e+02	-3.797870e-03
1.559899e+02	-3.841850e-03
1.568909e+02	-3.886338e-03
1.577971e+02	-3.931342e-03
1.587085e+02	-3.976867e-03
1.596252e+02	-4.022919e-03
1.605472e+02	-4.069503e-03
1.614745e+02	-4.116627e-03
1.624072e+02	-4.164297e-03
1.633453e+02	-4.212518e-03
1.642887e+02	-4.261297e-03
1.652377e+02	-4.310640e-03
1.661921e+02	-4.360555e-03
1.671520e+02	-4.411048e-03
1.681175e+02	-4.462124e-03
1.690885e+02	-4.513792e-03
1.700651e+02	-4.566058e-03
1.710474e+02	-4.618929e-03
1.720354e+02	-4.672412e-03
1.730291e+02	-4.726513e-03
1.740285e+02	-4.781241e-03
1.750337e+02	-4.836602e-03
1.760446e+02	-4.892604e-03
1.770615e+02	-4.949253e-03
1.780842e+02	-5.006559e-03
1.791128e+02	-5.064527e-03
1.801473e+02	-5.123166e-03
1.811878e+02	-5.182484e-03
1.822344e+02	-5.242488e-03
1.832870e+02	-5.303186e-03
1.843456e+02	-5.364587e-03
1.854104e+02	-5.426698e-03
1.864813e+02	-5.489528e-03
1.875584e+02	-5.553085e-03
1.886418e+02	-5.617377e-03
1.897313e+02	-5.682414e-03
1.908272e+02	-5.748202e-03
1.919294e+02	-5.814752e-03
1.930380e+02	-5.882071e-03
1.941530e+02	-5.950170e-03
1.952744e+02	-6.019056e-03
1.964023e+02	-6.088740e-03
1.975367e+02	-6.159229e-03
1.986777e+02	-6.230534e-03
1.998252e+02	-6.302664e-03
2.009794e+02	-6.375628e-03
2.021403e+02	-6.449436e-03
2.033078e+02	-6.524099e-03
2.044821e+02	-6.599624e-03
2.056632e+02	-6.676024e-03
2.068511e+02	-6.753307e-03
2.080459e+02	-6.831484e-03
2.092475e+02	-6.910565e-03
2.104561e+02	-6.990562e-03
2.116717e+02	-7.071483e-03
2.128943e+02	-7.153340e-03
2.141240e+02	-7.236144e-03
2.153608e+02	-7.319906e-03
2.166047e+02	-7.404636e-03
2.178558e+02	-7.490347e-03
2.191141e+02	-7.577049e-03
2.203797e+02	-7.664753e-03
2.216526e+02	-7.753472e-03
2.229329e+02	-7.843216e-03
2.242205e+02	-7.933999e-03
2.255156e+02	-8.025831e-03
2.268182e+02	-8.118725e-03
2.281283e+02	-8.212693e-03
2.294459e+02	-8.307748e-03
2.307712e+02	-8.403902e-03
2.321041e+02	-8.501168e-03
2.334447e+02	-8.599559e-03
2.347931e+02	-8.699087e-03
2.361493e+02	-8.799765e-03
2.375133e+02	-8.901608e-03
2.388851e+02	-9.004628e-03
2.402649e+02	-9.108839e-03
2.416527e+02	-9.214255e-03
2.430484e+02	-9.320890e-03
2.444523e+02	-9.428757e-03
2.458642e+02	-9.537872e-03
2.472843e+02	-9.648247e-03
2.487126e+02	-9.759899e-03
2.501492e+02	-9.872841e-03
2.515940e+02	-9.987088e-03
2.530472e+02	-1.010266e-02
2.545088e+02	-1.021956e-02
2.559789e+02	-1.033781e-02
2.574574e+02	-1.045744e-02
2.589444e+02	-1.057844e-02
2.604401e+02	-1.070084e-02
2.619444e+02	-1.082466e-02
2.634574e+02	-1.094991e-02
2.649791e+02	-1.107660e-02
2.665096e+02	-1.120476e-02
2.680489e+02	-1.133440e-02
2.695972e+02	-1.146554e-02
2.711544e+02	-1.159819e-02
2.727205e+02	-1.173238e-02
2.742958e+02	-1.186812e-02
2.758801e+02	-1.200542e-02
2.774736e+02	-1.214431e-02
2.790762e+02	-1.228481e-02
2.806882e+02	-1.242692e-02
2.823094e+02	-1.257068e-02
2.839400e+02	-1.271611e-02
2.855800e+02	-1.286321e-02
2.872295e+02	-1.301201e-02
2.888886e+02	-1.316252e-02
2.905572e+02	-1.331478e-02
2.922354e+02	-1.346880e-02
2.939234e+02	-1.362459e-02
2.956211e+02	-1.378218e-02
2.973286e+02	-1.394160e-02
2.990459e+02	-1.410285e-02
3.007732e+02	-1.426597e-02
3.025104e+02	-1.443096e-02
3.042577e+02	-1.459787e-02
3.060151e+02	-1.476670e-02
3.077826e+02	-1.493748e-02
3.095604e+02	-1.511023e-02
3.113484e+02	-1.528498e-02
3.131467e+02	-1.546174e-02
3.149554e+02	-1.564055e-02
3.167746e+02	-1.582142e-02
3.186043e+02	-1.600437e-02
3.204445e+02	-1.618944e-02
3.222954e+02	-1.637665e-02
3.241570e+02	-1.656601e-02
3.260293e+02	-1.675756e-02
3.279124e+02	-1.695132e-02
3.298064e+02	-1.714732e-02
3.317114e+02	-1.734558e-02
3.336273e+02	-1.754612e-02
3.355544e+02	-1.774898e-02
3.374925e+02	-1.795418e-02
3.394418e+02	-1.816175e-02
3.414024e+02	-1.837171e-02
3.433744e+02	-1.858410e-02
3.453577e+02	-1.879893e-02
3.473525e+02	-1.901624e-02
3.493588e+02	-1.923606e-02
3.513766e+02	-1.945841e-02
3.534062e+02	-1.968333e-02
3.554474e+02	-1.991084e-02
3.575005e+02	-2.014098e-02
3.595654e+02	-2.037377e-02
3.616422e+02	-2.060924e-02
3.637311e+02	-2.084743e-02
3.658320e+02	-2.108837e-02
3.679450e+02	-2.133208e-02
3.700702e+02	-2.157860e-02
3.722077e+02	-2.182796e-02
3.743576e+02	-2.208020e-02
3.765199e+02	-2.233535e-02
3.786946e+02	-2.259343e-02
3.808820e+02	-2.285449e-02
3.830819e+02	-2.311856e-02
3.852946e+02	-2.338567e-02
3.875200e+02	-2.365586e-02
3.897583e+02	-2.392916e-02
3.920096e+02	-2.420561e-02
3.942738e+02	-2.448525e-02
3.965511e+02	-2.476810e-02
3.988416e+02	-2.505422e-02
4.011452e+02	-2.534363e-02
4.034622e+02	-2.563637e-02
4.057926e+02	-2.593249e-02
4.081365e+02	-2.623201e-02
4.104938e+02	-2.653498e-02
4.128648e+02	-2.684144e-02
4.152495e+02	-2.715143e-02
4.176480e+02	-2.746499e-02
4.200603e+02	-2.778216e-02
4.224866e+02	-2.810298e-02
4.249268e+02	-2.842749e-02
4.273812e+02	-2.875574e-02
4.298497e+02	-2.908776e-02
4.323325e+02	-2.942361e-02
4.348297e+02	-2.976332e-02
4.373412e+02	-3.010693e-02
4.398673e+02	-3.045450e-02
4.424079e+02	-3.080607e-02
4.449633e+02	-3.116168e-02
4.475334e+02	-3.152139e-02
4.501183e+02	-3.188523e-02
4.527182e+02	-3.225325e-02
4.553330e+02	-3.262550e-02
4.579630e+02	-3.300204e-02
4.606082e+02	-3.338290e-02
4.632687e+02	-3.376814e-02
4.659445e+02	-3.415782e-02
4.686358e+02	-3.455196e-02
4.713426e+02	-3.495064e-02
4.740650e+02	-3.535390e-02
4.768032e+02	-3.576180e-02
4.795572e+02	-3.617438e-02
4.823271e+02	-3.659170e-02
4.851130e+02	-3.701381e-02
4.879150e+02	-3.744077e-02
4.907332e+02	-3.787264e-02
4.935676e+02	-3.830946e-02
4.964185e+02	-3.875130e-02
4.992858e+02	-3.919821e-02
5.021696e+02	-3.965026e-02
5.050701e+02	-4.010749e-02
5.079874e+02	-4.056997e-02
5.109215e+02	-4.103776e-02
5.138726e+02	-4.151092e-02
5.168407e+02	-4.198950e-02
5.198259e+02	-4.247358e-02
5.228284e+02	-4.296321e-02
5.258482e+02	-4.345845e-02
5.288855e+02	-4.395937e-02
5.319403e+02	-4.446604e-02
5.350128e+02	-4.497852e-02
5.381030e+02	-4.549687e-02
5.412111e+02	-4.602117e-02
5.443371e+02	-4.655147e-02
5.474812e+02	-4.708786e-02
5.506434e+02	-4.763038e-02
5.538239e+02	-4.817913e-02
5.570228e+02	-4.873416e-02
5.602401e+02	-4.929555e-02
5.634760e+02	-4.986337e-02
5.667306e+02	-5.043769e-02
5.700040e+02	-5.101858e-02
5.732964e+02	-5.160613e-02
5.766077e+02	-5.220040e-02
5.799382e+02	-5.280148e-02
5.832879e+02	-5.340943e-02
5.866569e+02	-5.402434e-02
5.900454e+02	-5.464628e-02
5.934535e+02	-5.527534e-02
5.968813e+02	-5.591159e-02
6.003288e+02	-5.655512e-02
6.037963e+02	-5.720601e-02
6.072838e+02	-5.786433e-02
6.107914e+02	-5.853018e-02
6.143194e+02	-5.920365e-02
6.178676e+02	-5.988480e-02
6.214364e+02	-6.057374e-02
6.250258e+02	-6.127055e-02
6.286359e+02	-6.197532e-02
6.322669e+02	-6.268813e-02
6.359189e+02	-6.340909e-02
6.395919e+02	-6.413827e-02
6.432862e+02	-6.487577e-02
6.470017e+02	-6.562170e-02
6.507388e+02	-6.637613e-02
6.544974e+02	-6.713917e-02
6.582778e+02	-6.791091e-02
6.620800e+02	-6.869145e-02
6.659041e+02	-6.948089e-02
6.697504e+02	-7.027933e-02
6.736188e+02	-7.108687e-02
6.775096e+02	-7.190362e-02
6.814229e+02	-7.272966e-02
6.853587e+02	-7.356512e-02
6.893173e+02	-7.441009e-02
6.932988e+02	-7.526468e-02
6.973033e+02	-7.612901e-02
7.013309e+02	-7.700316e-02
