Frequency(Hz)	Magnitude(dB)
1.000000e+01	-2.338709e+00
1.005776e+01	-2.359555e+00
1.011585e+01	-2.380724e+00
1.017428e+01	-2.401478e+00
1.023305e+01	-2.423012e+00
1.029215e+01	-2.444784e+00
1.035160e+01	-2.466256e+00
1.041139e+01	-2.487858e+00
1.047153e+01	-2.509822e+00
1.053201e+01	-2.531888e+00
1.059284e+01	-2.554104e+00
1.065403e+01	-2.576304e+00
1.071556e+01	-2.598739e+00
1.077746e+01	-2.621437e+00
1.083971e+01	-2.644005e+00
1.090232e+01	-2.667095e+00
1.096529e+01	-2.690296e+00
1.102862e+01	-2.713214e+00
1.109232e+01	-2.736547e+00
1.115639e+01	-2.759821e+00
1.122083e+01	-2.783406e+00
1.128564e+01	-2.807375e+00
1.135083e+01	-2.831231e+00
1.141639e+01	-2.855044e+00
1.148233e+01	-2.879369e+00
1.154865e+01	-2.903676e+00
1.161536e+01	-2.928095e+00
1.168245e+01	-2.952786e+00
1.174992e+01	-2.977766e+00
1.181779e+01	-3.002436e+00
1.188605e+01	-3.027564e+00
1.195470e+01	-3.052574e+00
1.202375e+01	-3.078041e+00
1.209320e+01	-3.103427e+00
1.216305e+01	-3.129070e+00
1.223330e+01	-3.154797e+00
1.230396e+01	-3.180930e+00
1.237503e+01	-3.206750e+00
1.244651e+01	-3.233176e+00
1.251840e+01	-3.259430e+00
1.259070e+01	-3.285856e+00
1.266343e+01	-3.312225e+00
1.273657e+01	-3.339073e+00
1.281014e+01	-3.366115e+00
1.288413e+01	-3.392948e+00
1.295855e+01	-3.420264e+00
1.303339e+01	-3.447755e+00
1.310867e+01	-3.475105e+00
1.318439e+01	-3.502835e+00
1.326054e+01	-3.530737e+00
1.333713e+01	-3.558449e+00
1.341417e+01	-3.586513e+00
1.349165e+01	-3.614342e+00
1.356958e+01	-3.643021e+00
1.364795e+01	-3.671427e+00
1.372678e+01	-3.699749e+00
1.380607e+01	-3.728861e+00
1.388581e+01	-3.757798e+00
1.396602e+01	-3.786534e+00
1.404668e+01	-3.815925e+00
1.412782e+01	-3.845239e+00
1.420942e+01	-3.874678e+00
1.429149e+01	-3.904388e+00
1.437404e+01	-3.934183e+00
1.445706e+01	-3.963998e+00
1.454057e+01	-3.994134e+00
1.462455e+01	-4.024113e+00
1.470902e+01	-4.054608e+00
1.479398e+01	-4.085043e+00
1.487943e+01	-4.115100e+00
1.496537e+01	-4.146129e+00
1.505181e+01	-4.177017e+00
1.513875e+01	-4.207920e+00
1.522619e+01	-4.239033e+00
1.531414e+01	-4.270163e+00
1.540259e+01	-4.301780e+00
1.549156e+01	-4.333282e+00
1.558103e+01	-4.364657e+00
1.567103e+01	-4.396324e+00
1.576155e+01	-4.428146e+00
1.585258e+01	-4.460389e+00
1.594415e+01	-4.492794e+00
1.603624e+01	-4.524974e+00
1.612886e+01	-4.557537e+00
1.622202e+01	-4.589993e+00
1.631572e+01	-4.622785e+00
1.640996e+01	-4.655326e+00
1.650474e+01	-4.688437e+00
1.660008e+01	-4.721364e+00
1.669596e+01	-4.755018e+00
1.679239e+01	-4.788458e+00
1.688938e+01	-4.822226e+00
1.698694e+01	-4.855460e+00
1.708505e+01	-4.889109e+00
1.718373e+01	-4.922571e+00
1.728299e+01	-4.956617e+00
1.738281e+01	-4.991061e+00
1.748322e+01	-5.025157e+00
1.758420e+01	-5.059599e+00
1.768576e+01	-5.093760e+00
1.778792e+01	-5.128680e+00
1.789066e+01	-5.163352e+00
1.799399e+01	-5.198235e+00
1.809793e+01	-5.232921e+00
1.820246e+01	-5.268578e+00
1.830760e+01	-5.303447e+00
1.841334e+01	-5.338687e+00
1.851969e+01	-5.374393e+00
1.862666e+01	-5.410027e+00
1.873425e+01	-5.445412e+00
1.884246e+01	-5.481716e+00
1.895129e+01	-5.517464e+00
1.906075e+01	-5.553302e+00
1.917085e+01	-5.589480e+00
1.928158e+01	-5.625544e+00
1.939295e+01	-5.662060e+00
1.950496e+01	-5.698851e+00
1.961762e+01	-5.735289e+00
1.973093e+01	-5.772026e+00
1.984490e+01	-5.808722e+00
1.995952e+01	-5.845890e+00
2.007480e+01	-5.882670e+00
2.019076e+01	-5.919996e+00
2.030738e+01	-5.957174e+00
2.042467e+01	-5.994639e+00
2.054264e+01	-6.032195e+00
2.066130e+01	-6.069523e+00
2.078064e+01	-6.107349e+00
2.090066e+01	-6.145435e+00
2.102139e+01	-6.183204e+00
2.114280e+01	-6.221406e+00
2.126492e+01	-6.259664e+00
2.138775e+01	-6.297485e+00
2.151128e+01	-6.335767e+00
2.163553e+01	-6.374622e+00
2.176050e+01	-6.413092e+00
2.188619e+01	-6.451474e+00
2.201260e+01	-6.490491e+00
2.213974e+01	-6.529197e+00
2.226762e+01	-6.568269e+00
2.239624e+01	-6.607421e+00
2.252560e+01	-6.646655e+00
2.265571e+01	-6.685721e+00
2.278656e+01	-6.725256e+00
2.291818e+01	-6.764447e+00
2.305055e+01	-6.803891e+00
2.318369e+01	-6.843493e+00
2.331760e+01	-6.883576e+00
2.345228e+01	-6.923367e+00
2.358774e+01	-6.962957e+00
2.372398e+01	-7.002917e+00
2.386101e+01	-7.042888e+00
2.399883e+01	-7.083438e+00
2.413745e+01	-7.123464e+00
2.427686e+01	-7.164156e+00
2.441709e+01	-7.205056e+00
2.455812e+01	-7.245141e+00
2.469997e+01	-7.285481e+00
2.484263e+01	-7.326300e+00
2.498612e+01	-7.367352e+00
2.513044e+01	-7.407992e+00
2.527559e+01	-7.449370e+00
2.542158e+01	-7.490353e+00
2.556842e+01	-7.531293e+00
2.571610e+01	-7.572427e+00
2.586463e+01	-7.614050e+00
2.601403e+01	-7.655186e+00
2.616428e+01	-7.696733e+00
2.631541e+01	-7.738187e+00
2.646740e+01	-7.779946e+00
2.662028e+01	-7.821780e+00
2.677404e+01	-7.863215e+00
2.692868e+01	-7.905192e+00
2.708422e+01	-7.947406e+00
2.724066e+01	-7.989338e+00
2.739800e+01	-8.031438e+00
2.755625e+01	-8.073820e+00
2.771541e+01	-8.115818e+00
2.787550e+01	-8.158217e+00
2.803650e+01	-8.200762e+00
2.819844e+01	-8.243225e+00
2.836131e+01	-8.285868e+00
2.852513e+01	-8.328450e+00
2.868989e+01	-8.370991e+00
2.885560e+01	-8.413745e+00
2.902227e+01	-8.457055e+00
2.918990e+01	-8.499713e+00
2.935850e+01	-8.542563e+00
2.952807e+01	-8.586005e+00
2.969863e+01	-8.628997e+00
2.987016e+01	-8.671523e+00
3.004269e+01	-8.715247e+00
3.021622e+01	-8.758913e+00
3.039075e+01	-8.802122e+00
3.056628e+01	-8.845437e+00
3.074283e+01	-8.889335e+00
3.092040e+01	-8.932400e+00
3.109900e+01	-8.976496e+00
3.127862e+01	-9.019989e+00
3.145929e+01	-9.063888e+00
3.164099e+01	-9.107346e+00
3.182375e+01	-9.151411e+00
3.200756e+01	-9.195276e+00
3.219244e+01	-9.239351e+00
3.237838e+01	-9.283972e+00
3.256540e+01	-9.327438e+00
3.275349e+01	-9.372299e+00
3.294268e+01	-9.416918e+00
3.313295e+01	-9.460748e+00
3.332433e+01	-9.504781e+00
3.351681e+01	-9.549241e+00
3.371040e+01	-9.594110e+00
3.390511e+01	-9.638178e+00
3.410094e+01	-9.683054e+00
3.429791e+01	-9.727225e+00
3.449601e+01	-9.772290e+00
3.469526e+01	-9.816884e+00
3.489566e+01	-9.861965e+00
3.509721e+01	-9.906771e+00
3.529993e+01	-9.951689e+00
3.550382e+01	-9.997196e+00
3.570889e+01	-1.004229e+01
3.591515e+01	-1.008696e+01
3.612259e+01	-1.013169e+01
3.633123e+01	-1.017739e+01
3.654108e+01	-1.022240e+01
3.675214e+01	-1.026767e+01
3.696442e+01	-1.031361e+01
3.717792e+01	-1.035874e+01
3.739266e+01	-1.040432e+01
3.760864e+01	-1.045000e+01
3.782587e+01	-1.049549e+01
3.804435e+01	-1.054105e+01
3.826409e+01	-1.058640e+01
3.848510e+01	-1.063228e+01
3.870739e+01	-1.067756e+01
3.893096e+01	-1.072348e+01
3.915583e+01	-1.076909e+01
3.938199e+01	-1.081543e+01
3.960946e+01	-1.086111e+01
3.983824e+01	-1.090750e+01
4.006834e+01	-1.095254e+01
4.029978e+01	-1.099889e+01
4.053255e+01	-1.104535e+01
4.076666e+01	-1.109137e+01
4.100213e+01	-1.113696e+01
4.123896e+01	-1.118359e+01
4.147715e+01	-1.122978e+01
4.171672e+01	-1.127615e+01
4.195767e+01	-1.132243e+01
4.220002e+01	-1.136920e+01
4.244377e+01	-1.141530e+01
4.268892e+01	-1.146188e+01
4.293549e+01	-1.150777e+01
4.318348e+01	-1.155462e+01
4.343291e+01	-1.160175e+01
4.368377e+01	-1.164805e+01
4.393609e+01	-1.169484e+01
4.418986e+01	-1.174157e+01
4.444510e+01	-1.178750e+01
4.470182e+01	-1.183454e+01
4.496001e+01	-1.188095e+01
4.521970e+01	-1.192826e+01
4.548089e+01	-1.197528e+01
4.574358e+01	-1.202139e+01
4.600779e+01	-1.206875e+01
4.627353e+01	-1.211544e+01
4.654081e+01	-1.216204e+01
4.680963e+01	-1.220958e+01
4.708000e+01	-1.225638e+01
4.735193e+01	-1.230377e+01
4.762543e+01	-1.235116e+01
4.790051e+01	-1.239822e+01
4.817719e+01	-1.244599e+01
4.845545e+01	-1.249216e+01
4.873533e+01	-1.253990e+01
4.901682e+01	-1.258729e+01
4.929994e+01	-1.263352e+01
4.958470e+01	-1.268158e+01
4.987110e+01	-1.272951e+01
5.015915e+01	-1.277576e+01
5.044887e+01	-1.282420e+01
5.074026e+01	-1.287089e+01
5.103333e+01	-1.291847e+01
5.132810e+01	-1.296624e+01
5.162457e+01	-1.301306e+01
5.192275e+01	-1.306119e+01
5.222265e+01	-1.310936e+01
5.252429e+01	-1.315542e+01
5.282767e+01	-1.320383e+01
5.313280e+01	-1.325206e+01
5.343969e+01	-1.329893e+01
5.374836e+01	-1.334644e+01
5.405880e+01	-1.339574e+01
5.437105e+01	-1.344250e+01
5.468509e+01	-1.349014e+01
5.500095e+01	-1.353768e+01
5.531863e+01	-1.358556e+01
5.563815e+01	-1.363403e+01
5.595951e+01	-1.368135e+01
5.628273e+01	-1.372977e+01
5.660782e+01	-1.377711e+01
5.693479e+01	-1.382489e+01
5.726364e+01	-1.387311e+01
5.759439e+01	-1.392175e+01
5.792705e+01	-1.396940e+01
5.826164e+01	-1.401782e+01
5.859815e+01	-1.406430e+01
5.893662e+01	-1.411322e+01
5.927703e+01	-1.416167e+01
5.961941e+01	-1.420955e+01
5.996377e+01	-1.425790e+01
6.031012e+01	-1.430478e+01
6.065847e+01	-1.435385e+01
6.100883e+01	-1.440228e+01
6.136121e+01	-1.445050e+01
6.171563e+01	-1.449910e+01
6.207210e+01	-1.454680e+01
6.243063e+01	-1.459488e+01
6.279122e+01	-1.464382e+01
6.315390e+01	-1.469239e+01
6.351868e+01	-1.474039e+01
6.388556e+01	-1.478844e+01
6.425456e+01	-1.483698e+01
6.462569e+01	-1.488586e+01
6.499897e+01	-1.493322e+01
6.537440e+01	-1.498182e+01
6.575200e+01	-1.503031e+01
6.613178e+01	-1.507883e+01
6.651375e+01	-1.512759e+01
6.689793e+01	-1.517664e+01
6.728433e+01	-1.522410e+01
6.767297e+01	-1.527273e+01
6.806384e+01	-1.532120e+01
6.845698e+01	-1.537049e+01
6.885238e+01	-1.541930e+01
6.925007e+01	-1.546728e+01
6.965005e+01	-1.551657e+01
7.005235e+01	-1.556452e+01
7.045697e+01	-1.561357e+01
7.086393e+01	-1.566178e+01
7.127323e+01	-1.571080e+01
7.168490e+01	-1.576028e+01
7.209895e+01	-1.580853e+01
7.251539e+01	-1.585672e+01
7.293424e+01	-1.590578e+01
7.335551e+01	-1.595445e+01
7.377920e+01	-1.600258e+01
7.420535e+01	-1.605194e+01
7.463396e+01	-1.610058e+01
7.506504e+01	-1.614894e+01
7.549861e+01	-1.619828e+01
7.593469e+01	-1.624762e+01
7.637328e+01	-1.629664e+01
7.681441e+01	-1.634489e+01
7.725809e+01	-1.639435e+01
7.770433e+01	-1.644295e+01
7.815315e+01	-1.649171e+01
7.860456e+01	-1.654063e+01
7.905857e+01	-1.658890e+01
7.951521e+01	-1.663855e+01
7.997449e+01	-1.668680e+01
8.043642e+01	-1.673559e+01
8.090102e+01	-1.678546e+01
8.136830e+01	-1.683416e+01
8.183828e+01	-1.688264e+01
8.231097e+01	-1.693205e+01
8.278640e+01	-1.698115e+01
8.326457e+01	-1.703030e+01
8.374550e+01	-1.707815e+01
8.422921e+01	-1.712856e+01
8.471572e+01	-1.717757e+01
8.520503e+01	-1.722651e+01
8.569717e+01	-1.727579e+01
8.619215e+01	-1.732443e+01
8.669000e+01	-1.737406e+01
8.719071e+01	-1.742316e+01
8.769432e+01	-1.747259e+01
8.820084e+01	-1.752126e+01
8.871029e+01	-1.757125e+01
8.922267e+01	-1.761921e+01
8.973802e+01	-1.766792e+01
9.025634e+01	-1.771708e+01
9.077766e+01	-1.776587e+01
9.130199e+01	-1.781693e+01
9.182935e+01	-1.786506e+01
9.235975e+01	-1.791496e+01
9.289321e+01	-1.796218e+01
9.342976e+01	-1.801339e+01
9.396941e+01	-1.806265e+01
9.451217e+01	-1.811145e+01
9.505807e+01	-1.816085e+01
9.560712e+01	-1.820979e+01
9.615934e+01	-1.826081e+01
9.671476e+01	-1.830896e+01
9.727338e+01	-1.835829e+01
9.783522e+01	-1.840725e+01
9.840032e+01	-1.845609e+01
9.896867e+01	-1.850582e+01
9.954031e+01	-1.855534e+01
1.001153e+02	-1.860465e+01
1.006935e+02	-1.865330e+01
1.012751e+02	-1.870348e+01
1.018601e+02	-1.875306e+01
1.024484e+02	-1.880082e+01
1.030402e+02	-1.885087e+01
1.036353e+02	-1.890070e+01
1.042339e+02	-1.894983e+01
1.048360e+02	-1.899882e+01
1.054415e+02	-1.905114e+01
1.060505e+02	-1.909780e+01
1.066631e+02	-1.914705e+01
1.072791e+02	-1.919675e+01
1.078988e+02	-1.924697e+01
1.085220e+02	-1.929589e+01
1.091488e+02	-1.934530e+01
1.097793e+02	-1.939552e+01
1.104133e+02	-1.944469e+01
1.110511e+02	-1.949362e+01
1.116925e+02	-1.954266e+01
1.123376e+02	-1.959396e+01
1.129865e+02	-1.964316e+01
1.136391e+02	-1.969294e+01
1.142955e+02	-1.974023e+01
1.149556e+02	-1.978992e+01
1.156196e+02	-1.984325e+01
1.162874e+02	-1.989120e+01
1.169591e+02	-1.993934e+01
1.176347e+02	-1.998872e+01
1.183141e+02	-2.003793e+01
1.189975e+02	-2.008773e+01
1.196848e+02	-2.013661e+01
1.203761e+02	-2.018705e+01
1.210714e+02	-2.023709e+01
1.217707e+02	-2.028763e+01
1.224740e+02	-2.033682e+01
1.231814e+02	-2.038539e+01
1.238929e+02	-2.043561e+01
1.246085e+02	-2.048589e+01
1.253283e+02	-2.053352e+01
1.260522e+02	-2.058471e+01
1.267802e+02	-2.063382e+01
1.275125e+02	-2.068227e+01
1.282490e+02	-2.073249e+01
1.289898e+02	-2.078236e+01
1.297348e+02	-2.083083e+01
1.304842e+02	-2.088203e+01
1.312378e+02	-2.093108e+01
1.319959e+02	-2.098110e+01
1.327583e+02	-2.103081e+01
1.335251e+02	-2.108045e+01
1.342963e+02	-2.112875e+01
1.350720e+02	-2.117800e+01
1.358522e+02	-2.122933e+01
1.366368e+02	-2.127961e+01
1.374260e+02	-2.132767e+01
1.382198e+02	-2.137799e+01
1.390182e+02	-2.142812e+01
1.398211e+02	-2.147722e+01
1.406287e+02	-2.152574e+01
1.414410e+02	-2.157644e+01
1.422579e+02	-2.162741e+01
1.430796e+02	-2.167641e+01
1.439060e+02	-2.172676e+01
1.447372e+02	-2.177575e+01
1.455732e+02	-2.182501e+01
1.464141e+02	-2.187614e+01
1.472597e+02	-2.192471e+01
1.481103e+02	-2.197554e+01
1.489658e+02	-2.202306e+01
1.498262e+02	-2.207313e+01
1.506916e+02	-2.212324e+01
1.515620e+02	-2.217531e+01
1.524374e+02	-2.222615e+01
1.533179e+02	-2.227305e+01
1.542034e+02	-2.232224e+01
1.550941e+02	-2.237213e+01
1.559899e+02	-2.242154e+01
1.568909e+02	-2.247221e+01
1.577971e+02	-2.252002e+01
1.587085e+02	-2.257166e+01
1.596252e+02	-2.262047e+01
1.605472e+02	-2.267441e+01
1.614745e+02	-2.272184e+01
1.624072e+02	-2.277050e+01
1.633453e+02	-2.281852e+01
1.642887e+02	-2.287086e+01
1.652377e+02	-2.292105e+01
1.661921e+02	-2.296741e+01
1.671520e+02	-2.302067e+01
1.681175e+02	-2.307012e+01
1.690885e+02	-2.311754e+01
1.700651e+02	-2.317222e+01
1.710474e+02	-2.321836e+01
1.720354e+02	-2.326845e+01
1.730291e+02	-2.331850e+01
1.740285e+02	-2.336774e+01
1.750337e+02	-2.341874e+01
1.760446e+02	-2.347035e+01
1.770615e+02	-2.351904e+01
1.780842e+02	-2.356838e+01
1.791128e+02	-2.361549e+01
1.801473e+02	-2.366775e+01
1.811878e+02	-2.371404e+01
1.822344e+02	-2.376817e+01
1.832870e+02	-2.381770e+01
1.843456e+02	-2.386644e+01
1.854104e+02	-2.391430e+01
1.864813e+02	-2.396609e+01
1.875584e+02	-2.401645e+01
1.886418e+02	-2.406639e+01
1.897313e+02	-2.411466e+01
1.908272e+02	-2.416642e+01
1.919294e+02	-2.421578e+01
1.930380e+02	-2.426502e+01
1.941530e+02	-2.431368e+01
1.952744e+02	-2.436666e+01
1.964023e+02	-2.441329e+01
1.975367e+02	-2.446701e+01
1.986777e+02	-2.451722e+01
1.998252e+02	-2.456447e+01
2.009794e+02	-2.461274e+01
2.021403e+02	-2.466487e+01
2.033078e+02	-2.471551e+01
2.044821e+02	-2.476280e+01
2.056632e+02	-2.481518e+01
2.068511e+02	-2.486558e+01
2.080459e+02	-2.491140e+01
2.092475e+02	-2.496316e+01
2.104561e+02	-2.501630e+01
2.116717e+02	-2.506569e+01
2.128943e+02	-2.511529e+01
2.141240e+02	-2.516319e+01
2.153608e+02	-2.521454e+01
2.166047e+02	-2.526378e+01
2.178558e+02	-2.531304e+01
2.191141e+02	-2.536388e+01
2.203797e+02	-2.541254e+01
2.216526e+02	-2.546356e+01
2.229329e+02	-2.551299e+01
2.242205e+02	-2.556370e+01
2.255156e+02	-2.561153e+01
2.268182e+02	-2.566264e+01
2.281283e+02	-2.571282e+01
2.294459e+02	-2.576063e+01
2.307712e+02	-2.581216e+01
2.321041e+02	-2.586399e+01
2.334447e+02	-2.591243e+01
2.347931e+02	-2.596418e+01
2.361493e+02	-2.601517e+01
2.375133e+02	-2.606116e+01
2.388851e+02	-2.611300e+01
2.402649e+02	-2.616136e+01
2.416527e+02	-2.621108e+01
2.430484e+02	-2.626222e+01
2.444523e+02	-2.631291e+01
2.458642e+02	-2.636451e+01
2.472843e+02	-2.641508e+01
2.487126e+02	-2.646485e+01
2.501492e+02	-2.651359e+01
2.515940e+02	-2.655993e+01
2.530472e+02	-2.661262e+01
2.545088e+02	-2.666173e+01
2.559789e+02	-2.671166e+01
2.574574e+02	-2.676219e+01
2.589444e+02	-2.680918e+01
2.604401e+02	-2.686215e+01
2.619444e+02	-2.691270e+01
2.634574e+02	-2.695870e+01
2.649791e+02	-2.700946e+01
2.665096e+02	-2.706240e+01
2.680489e+02	-2.711307e+01
2.695972e+02	-2.716266e+01
2.711544e+02	-2.720827e+01
2.727205e+02	-2.726042e+01
2.742958e+02	-2.731108e+01
2.758801e+02	-2.736117e+01
2.774736e+02	-2.741079e+01
2.790762e+02	-2.746318e+01
2.806882e+02	-2.751000e+01
2.823094e+02	-2.756581e+01
2.839400e+02	-2.761351e+01
2.855800e+02	-2.766026e+01
2.872295e+02	-2.771294e+01
2.888886e+02	-2.776256e+01
2.905572e+02	-2.781329e+01
2.922354e+02	-2.786456e+01
2.939234e+02	-2.791278e+01
2.956211e+02	-2.796434e+01
2.973286e+02	-2.801121e+01
2.990459e+02	-2.806182e+01
3.007732e+02	-2.811097e+01
3.025104e+02	-2.816069e+01
3.042577e+02	-2.821010e+01
3.060151e+02	-2.826357e+01
3.077826e+02	-2.830990e+01
3.095604e+02	-2.836288e+01
3.113484e+02	-2.841394e+01
3.131467e+02	-2.846463e+01
3.149554e+02	-2.851221e+01
3.167746e+02	-2.856303e+01
3.186043e+02	-2.861017e+01
3.204445e+02	-2.866518e+01
3.222954e+02	-2.871584e+01
3.241570e+02	-2.875917e+01
3.260293e+02	-2.881645e+01
3.279124e+02	-2.886193e+01
3.298064e+02	-2.891566e+01
3.317114e+02	-2.896060e+01
3.336273e+02	-2.901472e+01
3.355544e+02	-2.906013e+01
3.374925e+02	-2.911422e+01
3.394418e+02	-2.916188e+01
3.414024e+02	-2.921392e+01
3.433744e+02	-2.926396e+01
3.453577e+02	-2.931430e+01
3.473525e+02	-2.936033e+01
3.493588e+02	-2.941301e+01
3.513766e+02	-2.946714e+01
3.534062e+02	-2.951571e+01
3.554474e+02	-2.956351e+01
3.575005e+02	-2.961653e+01
3.595654e+02	-2.966754e+01
3.616422e+02	-2.970847e+01
3.637311e+02	-2.976362e+01
3.658320e+02	-2.981231e+01
3.679450e+02	-2.986030e+01
3.700702e+02	-2.991984e+01
3.722077e+02	-2.996531e+01
3.743576e+02	-3.001150e+01
3.765199e+02	-3.006224e+01
3.786946e+02	-3.011548e+01
3.808820e+02	-3.015999e+01
3.830819e+02	-3.021238e+01
3.852946e+02	-3.026472e+01
3.875200e+02	-3.031853e+01
3.897583e+02	-3.035848e+01
3.920096e+02	-3.041700e+01
3.942738e+02	-3.046366e+01
3.965511e+02	-3.051188e+01
3.988416e+02	-3.056406e+01
4.011452e+02	-3.062271e+01
4.034622e+02	-3.065873e+01
4.057926e+02	-3.071771e+01
4.081365e+02	-3.076496e+01
4.104938e+02	-3.081755e+01
4.128648e+02	-3.086571e+01
4.152495e+02	-3.091543e+01
4.176480e+02	-3.096380e+01
4.200603e+02	-3.101825e+01
4.224866e+02	-3.106398e+01
4.249268e+02	-3.112009e+01
4.273812e+02	-3.116603e+01
4.298497e+02	-3.121538e+01
4.323325e+02	-3.126699e+01
4.348297e+02	-3.131410e+01
4.373412e+02	-3.137321e+01
4.398673e+02	-3.141908e+01
4.424079e+02	-3.147119e+01
4.449633e+02	-3.151928e+01
4.475334e+02	-3.157070e+01
4.501183e+02	-3.162039e+01
4.527182e+02	-3.167515e+01
4.553330e+02	-3.171560e+01
4.579630e+02	-3.176937e+01
4.606082e+02	-3.182388e+01
4.632687e+02	-3.187582e+01
4.659445e+02	-3.191443e+01
4.686358e+02	-3.197203e+01
4.713426e+02	-3.202149e+01
4.740650e+02	-3.206875e+01
4.768032e+02	-3.211831e+01
4.795572e+02	-3.217382e+01
4.823271e+02	-3.222200e+01
4.851130e+02	-3.227227e+01
4.879150e+02	-3.232261e+01
4.907332e+02	-3.237236e+01
4.935676e+02	-3.242490e+01
4.964185e+02	-3.246994e+01
4.992858e+02	-3.252571e+01
5.021696e+02	-3.257005e+01
5.050701e+02	-3.262637e+01
5.079874e+02	-3.267106e+01
5.109215e+02	-3.272224e+01
5.138726e+02	-3.277198e+01
5.168407e+02	-3.281813e+01
5.198259e+02	-3.288484e+01
5.228284e+02	-3.293387e+01
5.258482e+02	-3.297450e+01
5.288855e+02	-3.302198e+01
5.319403e+02	-3.307102e+01
5.350128e+02	-3.313357e+01
5.381030e+02	-3.316840e+01
5.412111e+02	-3.323093e+01
5.443371e+02	-3.328032e+01
5.474812e+02	-3.332475e+01
5.506434e+02	-3.336818e+01
5.538239e+02	-3.342301e+01
5.570228e+02	-3.347771e+01
5.602401e+02	-3.352529e+01
5.634760e+02	-3.357627e+01
5.667306e+02	-3.362399e+01
5.700040e+02	-3.367849e+01
5.732964e+02	-3.372446e+01
5.766077e+02	-3.378315e+01
5.799382e+02	-3.383842e+01
5.832879e+02	-3.387598e+01
5.866569e+02	-3.392708e+01
5.900454e+02	-3.397112e+01
5.934535e+02	-3.403083e+01
5.968813e+02	-3.406845e+01
6.003288e+02	-3.412341e+01
6.037963e+02	-3.418493e+01
6.072838e+02	-3.423667e+01
6.107914e+02	-3.427929e+01
6.143194e+02	-3.433352e+01
6.178676e+02	-3.437953e+01
6.214364e+02	-3.443230e+01
6.250258e+02	-3.447530e+01
6.286359e+02	-3.453734e+01
6.322669e+02	-3.459209e+01
6.359189e+02	-3.463425e+01
6.395919e+02	-3.468906e+01
6.432862e+02	-3.473225e+01
6.470017e+02	-3.478463e+01
6.507388e+02	-3.483256e+01
6.544974e+02	-3.488823e+01
6.582778e+02	-3.493485e+01
6.620800e+02	-3.498847e+01
6.659041e+02	-3.503958e+01
6.697504e+02	-3.509712e+01
6.736188e+02	-3.514211e+01
6.775096e+02	-3.518468e+01
6.814229e+02	-3.523572e+01
6.853587e+02	-3.528854e+01
6.893173e+02	-3.534201e+01
6.932988e+02	-3.539232e+01
6.973033e+02	-3.543778e+01
7.013309e+02	-3.550122e+01
