Frequency(Hz)	Magnitude(dB)
1.000000e+01	-2.336893e+00
1.005776e+01	-2.357591e+00
1.011585e+01	-2.378612e+00
1.017428e+01	-2.399773e+00
1.023305e+01	-2.421057e+00
1.029215e+01	-2.442455e+00
1.035160e+01	-2.464146e+00
1.041139e+01	-2.485915e+00
1.047153e+01	-2.507972e+00
1.053201e+01	-2.529783e+00
1.059284e+01	-2.551850e+00
1.065403e+01	-2.574114e+00
1.071556e+01	-2.596566e+00
1.077746e+01	-2.619125e+00
1.083971e+01	-2.641855e+00
1.090232e+01	-2.664821e+00
1.096529e+01	-2.687921e+00
1.102862e+01	-2.711082e+00
1.109232e+01	-2.734371e+00
1.115639e+01	-2.757666e+00
1.122083e+01	-2.781316e+00
1.128564e+01	-2.804879e+00
1.135083e+01	-2.828822e+00
1.141639e+01	-2.853039e+00
1.148233e+01	-2.877311e+00
1.154865e+01	-2.901359e+00
1.161536e+01	-2.925740e+00
1.168245e+01	-2.950417e+00
1.174992e+01	-2.974887e+00
1.181779e+01	-3.000029e+00
1.188605e+01	-3.025123e+00
1.195470e+01	-3.050339e+00
1.202375e+01	-3.075549e+00
1.209320e+01	-3.100982e+00
1.216305e+01	-3.126503e+00
1.223330e+01	-3.152287e+00
1.230396e+01	-3.178316e+00
1.237503e+01	-3.204181e+00
1.244651e+01	-3.230427e+00
1.251840e+01	-3.256841e+00
1.259070e+01	-3.283386e+00
1.266343e+01	-3.309883e+00
1.273657e+01	-3.336614e+00
1.281014e+01	-3.363515e+00
1.288413e+01	-3.390848e+00
1.295855e+01	-3.417615e+00
1.303339e+01	-3.445049e+00
1.310867e+01	-3.472636e+00
1.318439e+01	-3.500296e+00
1.326054e+01	-3.527751e+00
1.333713e+01	-3.555865e+00
1.341417e+01	-3.583682e+00
1.349165e+01	-3.611904e+00
1.356958e+01	-3.640432e+00
1.364795e+01	-3.668898e+00
1.372678e+01	-3.697154e+00
1.380607e+01	-3.725898e+00
1.388581e+01	-3.754915e+00
1.396602e+01	-3.784067e+00
1.404668e+01	-3.813352e+00
1.412782e+01	-3.842571e+00
1.420942e+01	-3.872029e+00
1.429149e+01	-3.901561e+00
1.437404e+01	-3.931364e+00
1.445706e+01	-3.961075e+00
1.454057e+01	-3.991410e+00
1.462455e+01	-4.021340e+00
1.470902e+01	-4.051680e+00
1.479398e+01	-4.082016e+00
1.487943e+01	-4.112446e+00
1.496537e+01	-4.143155e+00
1.505181e+01	-4.174080e+00
1.513875e+01	-4.204930e+00
1.522619e+01	-4.236171e+00
1.531414e+01	-4.267163e+00
1.540259e+01	-4.298610e+00
1.549156e+01	-4.329999e+00
1.558103e+01	-4.361948e+00
1.567103e+01	-4.393637e+00
1.576155e+01	-4.425146e+00
1.585258e+01	-4.457422e+00
1.594415e+01	-4.489388e+00
1.603624e+01	-4.521719e+00
1.612886e+01	-4.554195e+00
1.622202e+01	-4.586782e+00
1.631572e+01	-4.619717e+00
1.640996e+01	-4.652868e+00
1.650474e+01	-4.685534e+00
1.660008e+01	-4.718341e+00
1.669596e+01	-4.751921e+00
1.679239e+01	-4.785142e+00
1.688938e+01	-4.818469e+00
1.698694e+01	-4.852050e+00
1.708505e+01	-4.885828e+00
1.718373e+01	-4.919627e+00
1.728299e+01	-4.953698e+00
1.738281e+01	-4.987862e+00
1.748322e+01	-5.021957e+00
1.758420e+01	-5.056132e+00
1.768576e+01	-5.090550e+00
1.778792e+01	-5.125359e+00
1.789066e+01	-5.160269e+00
1.799399e+01	-5.195100e+00
1.809793e+01	-5.229455e+00
1.820246e+01	-5.264771e+00
1.830760e+01	-5.300554e+00
1.841334e+01	-5.335404e+00
1.851969e+01	-5.370736e+00
1.862666e+01	-5.406417e+00
1.873425e+01	-5.442429e+00
1.884246e+01	-5.478080e+00
1.895129e+01	-5.513977e+00
1.906075e+01	-5.549538e+00
1.917085e+01	-5.585970e+00
1.928158e+01	-5.622174e+00
1.939295e+01	-5.658736e+00
1.950496e+01	-5.695328e+00
1.961762e+01	-5.731609e+00
1.973093e+01	-5.768666e+00
1.984490e+01	-5.805123e+00
1.995952e+01	-5.842334e+00
2.007480e+01	-5.879385e+00
2.019076e+01	-5.916782e+00
2.030738e+01	-5.954280e+00
2.042467e+01	-5.991322e+00
2.054264e+01	-6.029061e+00
2.066130e+01	-6.066077e+00
2.078064e+01	-6.103823e+00
2.090066e+01	-6.141577e+00
2.102139e+01	-6.179871e+00
2.114280e+01	-6.217551e+00
2.126492e+01	-6.255497e+00
2.138775e+01	-6.294227e+00
2.151128e+01	-6.332252e+00
2.163553e+01	-6.370894e+00
2.176050e+01	-6.409268e+00
2.188619e+01	-6.447825e+00
2.201260e+01	-6.486617e+00
2.213974e+01	-6.525280e+00
2.226762e+01	-6.564277e+00
2.239624e+01	-6.603645e+00
2.252560e+01	-6.643083e+00
2.265571e+01	-6.681832e+00
2.278656e+01	-6.721477e+00
2.291818e+01	-6.760746e+00
2.305055e+01	-6.800230e+00
2.318369e+01	-6.840104e+00
2.331760e+01	-6.879594e+00
2.345228e+01	-6.919672e+00
2.358774e+01	-6.958749e+00
2.372398e+01	-6.999459e+00
2.386101e+01	-7.039234e+00
2.399883e+01	-7.079660e+00
2.413745e+01	-7.119864e+00
2.427686e+01	-7.160353e+00
2.441709e+01	-7.200553e+00
2.455812e+01	-7.241164e+00
2.469997e+01	-7.281928e+00
2.484263e+01	-7.322226e+00
2.498612e+01	-7.362897e+00
2.513044e+01	-7.404494e+00
2.527559e+01	-7.444829e+00
2.542158e+01	-7.486648e+00
2.556842e+01	-7.527163e+00
2.571610e+01	-7.568587e+00
2.586463e+01	-7.610096e+00
2.601403e+01	-7.651473e+00
2.616428e+01	-7.693004e+00
2.631541e+01	-7.734548e+00
2.646740e+01	-7.775772e+00
2.662028e+01	-7.818024e+00
2.677404e+01	-7.859489e+00
2.692868e+01	-7.901510e+00
2.708422e+01	-7.943320e+00
2.724066e+01	-7.985283e+00
2.739800e+01	-8.027226e+00
2.755625e+01	-8.069699e+00
2.771541e+01	-8.112028e+00
2.787550e+01	-8.154408e+00
2.803650e+01	-8.196645e+00
2.819844e+01	-8.239143e+00
2.836131e+01	-8.281674e+00
2.852513e+01	-8.324468e+00
2.868989e+01	-8.367210e+00
2.885560e+01	-8.410067e+00
2.902227e+01	-8.452493e+00
2.918990e+01	-8.495569e+00
2.935850e+01	-8.538443e+00
2.952807e+01	-8.581305e+00
2.969863e+01	-8.624756e+00
2.987016e+01	-8.667717e+00
3.004269e+01	-8.711226e+00
3.021622e+01	-8.754460e+00
3.039075e+01	-8.797569e+00
3.056628e+01	-8.841438e+00
3.074283e+01	-8.884590e+00
3.092040e+01	-8.928662e+00
3.109900e+01	-8.972503e+00
3.127862e+01	-9.016207e+00
3.145929e+01	-9.059839e+00
3.164099e+01	-9.103859e+00
3.182375e+01	-9.147592e+00
3.200756e+01	-9.191681e+00
3.219244e+01	-9.235803e+00
3.237838e+01	-9.279493e+00
3.256540e+01	-9.323608e+00
3.275349e+01	-9.367750e+00
3.294268e+01	-9.412232e+00
3.313295e+01	-9.456096e+00
3.332433e+01	-9.500750e+00
3.351681e+01	-9.545157e+00
3.371040e+01	-9.589632e+00
3.390511e+01	-9.634304e+00
3.410094e+01	-9.679153e+00
3.429791e+01	-9.723826e+00
3.449601e+01	-9.768194e+00
3.469526e+01	-9.813090e+00
3.489566e+01	-9.857992e+00
3.509721e+01	-9.902908e+00
3.529993e+01	-9.947966e+00
3.550382e+01	-9.992725e+00
3.570889e+01	-1.003765e+01
3.591515e+01	-1.008332e+01
3.612259e+01	-1.012834e+01
3.633123e+01	-1.017353e+01
3.654108e+01	-1.021840e+01
3.675214e+01	-1.026411e+01
3.696442e+01	-1.030907e+01
3.717792e+01	-1.035426e+01
3.739266e+01	-1.040001e+01
3.760864e+01	-1.044542e+01
3.782587e+01	-1.049052e+01
3.804435e+01	-1.053631e+01
3.826409e+01	-1.058192e+01
3.848510e+01	-1.062813e+01
3.870739e+01	-1.067338e+01
3.893096e+01	-1.071929e+01
3.915583e+01	-1.076500e+01
3.938199e+01	-1.081081e+01
3.960946e+01	-1.085714e+01
3.983824e+01	-1.090320e+01
4.006834e+01	-1.094817e+01
4.029978e+01	-1.099418e+01
4.053255e+01	-1.104061e+01
4.076666e+01	-1.108716e+01
4.100213e+01	-1.113301e+01
4.123896e+01	-1.117914e+01
4.147715e+01	-1.122556e+01
4.171672e+01	-1.127182e+01
4.195767e+01	-1.131853e+01
4.220002e+01	-1.136410e+01
4.244377e+01	-1.141050e+01
4.268892e+01	-1.145739e+01
4.293549e+01	-1.150373e+01
4.318348e+01	-1.155075e+01
4.343291e+01	-1.159731e+01
4.368377e+01	-1.164322e+01
4.393609e+01	-1.169031e+01
4.418986e+01	-1.173656e+01
4.444510e+01	-1.178343e+01
4.470182e+01	-1.183008e+01
4.496001e+01	-1.187604e+01
4.521970e+01	-1.192397e+01
4.548089e+01	-1.196989e+01
4.574358e+01	-1.201711e+01
4.600779e+01	-1.206447e+01
4.627353e+01	-1.211138e+01
4.654081e+01	-1.215832e+01
4.680963e+01	-1.220563e+01
4.708000e+01	-1.225193e+01
4.735193e+01	-1.229950e+01
4.762543e+01	-1.234641e+01
4.790051e+01	-1.239299e+01
4.817719e+01	-1.244012e+01
4.845545e+01	-1.248793e+01
4.873533e+01	-1.253570e+01
4.901682e+01	-1.258245e+01
4.929994e+01	-1.262957e+01
4.958470e+01	-1.267712e+01
4.987110e+01	-1.272363e+01
5.015915e+01	-1.277139e+01
5.044887e+01	-1.281897e+01
5.074026e+01	-1.286647e+01
5.103333e+01	-1.291362e+01
5.132810e+01	-1.296110e+01
5.162457e+01	-1.300913e+01
5.192275e+01	-1.305636e+01
5.222265e+01	-1.310324e+01
5.252429e+01	-1.315171e+01
5.282767e+01	-1.319934e+01
5.313280e+01	-1.324695e+01
5.343969e+01	-1.329443e+01
5.374836e+01	-1.334118e+01
5.405880e+01	-1.338999e+01
5.437105e+01	-1.343876e+01
5.468509e+01	-1.348590e+01
5.500095e+01	-1.353384e+01
5.531863e+01	-1.358137e+01
5.563815e+01	-1.362880e+01
5.595951e+01	-1.367579e+01
5.628273e+01	-1.372507e+01
5.660782e+01	-1.377335e+01
5.693479e+01	-1.382058e+01
5.726364e+01	-1.386861e+01
5.759439e+01	-1.391594e+01
5.792705e+01	-1.396467e+01
5.826164e+01	-1.401202e+01
5.859815e+01	-1.406020e+01
5.893662e+01	-1.410860e+01
5.927703e+01	-1.415778e+01
5.961941e+01	-1.420445e+01
5.996377e+01	-1.425271e+01
6.031012e+01	-1.430083e+01
6.065847e+01	-1.434981e+01
6.100883e+01	-1.439711e+01
6.136121e+01	-1.444637e+01
6.171563e+01	-1.449456e+01
6.207210e+01	-1.454193e+01
6.243063e+01	-1.459057e+01
6.279122e+01	-1.463884e+01
6.315390e+01	-1.468763e+01
6.351868e+01	-1.473635e+01
6.388556e+01	-1.478350e+01
6.425456e+01	-1.483214e+01
6.462569e+01	-1.488139e+01
6.499897e+01	-1.492877e+01
6.537440e+01	-1.497732e+01
6.575200e+01	-1.502537e+01
6.613178e+01	-1.507482e+01
6.651375e+01	-1.512353e+01
6.689793e+01	-1.517032e+01
6.728433e+01	-1.521948e+01
6.767297e+01	-1.526892e+01
6.806384e+01	-1.531711e+01
6.845698e+01	-1.536573e+01
6.885238e+01	-1.541338e+01
6.925007e+01	-1.546312e+01
6.965005e+01	-1.551202e+01
7.005235e+01	-1.556000e+01
7.045697e+01	-1.560815e+01
7.086393e+01	-1.565804e+01
7.127323e+01	-1.570570e+01
7.168490e+01	-1.575464e+01
7.209895e+01	-1.580276e+01
7.251539e+01	-1.585259e+01
7.293424e+01	-1.590114e+01
7.335551e+01	-1.594889e+01
7.377920e+01	-1.599905e+01
7.420535e+01	-1.604655e+01
7.463396e+01	-1.609545e+01
7.506504e+01	-1.614552e+01
7.549861e+01	-1.619430e+01
7.593469e+01	-1.624296e+01
7.637328e+01	-1.629152e+01
7.681441e+01	-1.633954e+01
7.725809e+01	-1.638901e+01
7.770433e+01	-1.643873e+01
7.815315e+01	-1.648679e+01
7.860456e+01	-1.653614e+01
7.905857e+01	-1.658442e+01
7.951521e+01	-1.663397e+01
7.997449e+01	-1.668245e+01
8.043642e+01	-1.673218e+01
8.090102e+01	-1.678088e+01
8.136830e+01	-1.682933e+01
8.183828e+01	-1.687721e+01
8.231097e+01	-1.692791e+01
8.278640e+01	-1.697628e+01
8.326457e+01	-1.702478e+01
8.374550e+01	-1.707493e+01
8.422921e+01	-1.712444e+01
8.471572e+01	-1.717352e+01
8.520503e+01	-1.722189e+01
8.569717e+01	-1.727083e+01
8.619215e+01	-1.731957e+01
8.669000e+01	-1.736894e+01
8.719071e+01	-1.741954e+01
8.769432e+01	-1.746723e+01
8.820084e+01	-1.751549e+01
8.871029e+01	-1.756503e+01
8.922267e+01	-1.761537e+01
8.973802e+01	-1.766391e+01
9.025634e+01	-1.771245e+01
9.077766e+01	-1.776249e+01
9.130199e+01	-1.781058e+01
9.182935e+01	-1.786020e+01
9.235975e+01	-1.791027e+01
9.289321e+01	-1.795989e+01
9.342976e+01	-1.800788e+01
9.396941e+01	-1.805823e+01
9.451217e+01	-1.810764e+01
9.505807e+01	-1.815576e+01
9.560712e+01	-1.820668e+01
9.615934e+01	-1.825528e+01
9.671476e+01	-1.830278e+01
9.727338e+01	-1.835288e+01
9.783522e+01	-1.840347e+01
9.840032e+01	-1.845222e+01
9.896867e+01	-1.850053e+01
9.954031e+01	-1.855077e+01
1.001153e+02	-1.859960e+01
1.006935e+02	-1.864916e+01
1.012751e+02	-1.869806e+01
1.018601e+02	-1.874721e+01
1.024484e+02	-1.879756e+01
1.030402e+02	-1.884717e+01
1.036353e+02	-1.889580e+01
1.042339e+02	-1.894545e+01
1.048360e+02	-1.899533e+01
1.054415e+02	-1.904253e+01
1.060505e+02	-1.909456e+01
1.066631e+02	-1.914211e+01
1.072791e+02	-1.919357e+01
1.078988e+02	-1.924016e+01
1.085220e+02	-1.929086e+01
1.091488e+02	-1.934054e+01
1.097793e+02	-1.939036e+01
1.104133e+02	-1.943982e+01
1.110511e+02	-1.948875e+01
1.116925e+02	-1.953992e+01
1.123376e+02	-1.958798e+01
1.129865e+02	-1.963939e+01
1.136391e+02	-1.968586e+01
1.142955e+02	-1.973818e+01
1.149556e+02	-1.978692e+01
1.156196e+02	-1.983492e+01
1.162874e+02	-1.988610e+01
1.169591e+02	-1.993417e+01
1.176347e+02	-1.998387e+01
1.183141e+02	-2.003406e+01
1.189975e+02	-2.008367e+01
1.196848e+02	-2.013287e+01
1.203761e+02	-2.018162e+01
1.210714e+02	-2.023206e+01
1.217707e+02	-2.028184e+01
1.224740e+02	-2.033152e+01
1.231814e+02	-2.038150e+01
1.238929e+02	-2.043046e+01
1.246085e+02	-2.047928e+01
1.253283e+02	-2.052990e+01
1.260522e+02	-2.057991e+01
1.267802e+02	-2.062921e+01
1.275125e+02	-2.068096e+01
1.282490e+02	-2.072828e+01
1.289898e+02	-2.077797e+01
1.297348e+02	-2.082757e+01
1.304842e+02	-2.087751e+01
1.312378e+02	-2.092811e+01
1.319959e+02	-2.097450e+01
1.327583e+02	-2.102650e+01
1.335251e+02	-2.107528e+01
1.342963e+02	-2.112619e+01
1.350720e+02	-2.117444e+01
1.358522e+02	-2.122512e+01
1.366368e+02	-2.127505e+01
1.374260e+02	-2.132416e+01
1.382198e+02	-2.137241e+01
1.390182e+02	-2.142339e+01
1.398211e+02	-2.147251e+01
1.406287e+02	-2.152367e+01
1.414410e+02	-2.157203e+01
1.422579e+02	-2.162247e+01
1.430796e+02	-2.167253e+01
1.439060e+02	-2.172001e+01
1.447372e+02	-2.177173e+01
1.455732e+02	-2.181999e+01
1.464141e+02	-2.187220e+01
1.472597e+02	-2.192037e+01
1.481103e+02	-2.196718e+01
1.489658e+02	-2.201728e+01
1.498262e+02	-2.206922e+01
1.506916e+02	-2.211942e+01
1.515620e+02	-2.216900e+01
1.524374e+02	-2.221890e+01
1.533179e+02	-2.226774e+01
1.542034e+02	-2.231876e+01
1.550941e+02	-2.236670e+01
1.559899e+02	-2.241450e+01
1.568909e+02	-2.246623e+01
1.577971e+02	-2.251808e+01
1.587085e+02	-2.256646e+01
1.596252e+02	-2.262023e+01
1.605472e+02	-2.266769e+01
1.614745e+02	-2.271714e+01
1.624072e+02	-2.276516e+01
1.633453e+02	-2.281374e+01
1.642887e+02	-2.286650e+01
1.652377e+02	-2.291438e+01
1.661921e+02	-2.296536e+01
1.671520e+02	-2.301726e+01
1.681175e+02	-2.306454e+01
1.690885e+02	-2.311573e+01
1.700651e+02	-2.316530e+01
1.710474e+02	-2.321229e+01
1.720354e+02	-2.326651e+01
1.730291e+02	-2.331296e+01
1.740285e+02	-2.336202e+01
1.750337e+02	-2.341500e+01
1.760446e+02	-2.346319e+01
1.770615e+02	-2.351255e+01
1.780842e+02	-2.356250e+01
1.791128e+02	-2.361306e+01
1.801473e+02	-2.366271e+01
1.811878e+02	-2.371353e+01
1.822344e+02	-2.376166e+01
1.832870e+02	-2.381129e+01
1.843456e+02	-2.386110e+01
1.854104e+02	-2.391186e+01
1.864813e+02	-2.396309e+01
1.875584e+02	-2.400998e+01
1.886418e+02	-2.406263e+01
1.897313e+02	-2.411131e+01
1.908272e+02	-2.415866e+01
1.919294e+02	-2.421240e+01
1.930380e+02	-2.426067e+01
1.941530e+02	-2.431150e+01
1.952744e+02	-2.436060e+01
1.964023e+02	-2.441022e+01
1.975367e+02	-2.445724e+01
1.986777e+02	-2.450892e+01
1.998252e+02	-2.455959e+01
2.009794e+02	-2.461166e+01
2.021403e+02	-2.466084e+01
2.033078e+02	-2.470728e+01
2.044821e+02	-2.475960e+01
2.056632e+02	-2.481015e+01
2.068511e+02	-2.485515e+01
2.080459e+02	-2.491075e+01
2.092475e+02	-2.495933e+01
2.104561e+02	-2.500756e+01
2.116717e+02	-2.505937e+01
2.128943e+02	-2.510792e+01
2.141240e+02	-2.515901e+01
2.153608e+02	-2.520863e+01
2.166047e+02	-2.525989e+01
2.178558e+02	-2.530631e+01
2.191141e+02	-2.535811e+01
2.203797e+02	-2.541151e+01
2.216526e+02	-2.545970e+01
2.229329e+02	-2.550721e+01
2.242205e+02	-2.555695e+01
2.255156e+02	-2.560698e+01
2.268182e+02	-2.565758e+01
2.281283e+02	-2.570931e+01
2.294459e+02	-2.575694e+01
2.307712e+02	-2.580838e+01
2.321041e+02	-2.586128e+01
2.334447e+02	-2.590663e+01
2.347931e+02	-2.595933e+01
2.361493e+02	-2.600596e+01
2.375133e+02	-2.605681e+01
2.388851e+02	-2.610861e+01
2.402649e+02	-2.615763e+01
2.416527e+02	-2.620770e+01
2.430484e+02	-2.625979e+01
2.444523e+02	-2.630333e+01
2.458642e+02	-2.635561e+01
2.472843e+02	-2.640731e+01
2.487126e+02	-2.645555e+01
2.501492e+02	-2.650713e+01
2.515940e+02	-2.655813e+01
2.530472e+02	-2.660876e+01
2.545088e+02	-2.665837e+01
2.559789e+02	-2.670667e+01
2.574574e+02	-2.675872e+01
2.589444e+02	-2.680839e+01
2.604401e+02	-2.685532e+01
2.619444e+02	-2.690712e+01
2.634574e+02	-2.696223e+01
2.649791e+02	-2.700293e+01
2.665096e+02	-2.705607e+01
2.680489e+02	-2.710898e+01
2.695972e+02	-2.715660e+01
2.711544e+02	-2.720980e+01
2.727205e+02	-2.725472e+01
2.742958e+02	-2.730709e+01
2.758801e+02	-2.735898e+01
2.774736e+02	-2.740823e+01
2.790762e+02	-2.745557e+01
2.806882e+02	-2.750505e+01
2.823094e+02	-2.755784e+01
2.839400e+02	-2.760826e+01
2.855800e+02	-2.765697e+01
2.872295e+02	-2.771001e+01
2.888886e+02	-2.775532e+01
2.905572e+02	-2.780614e+01
2.922354e+02	-2.785965e+01
2.939234e+02	-2.790719e+01
2.956211e+02	-2.795824e+01
2.973286e+02	-2.800774e+01
2.990459e+02	-2.805519e+01
3.007732e+02	-2.810677e+01
3.025104e+02	-2.815924e+01
3.042577e+02	-2.820865e+01
3.060151e+02	-2.825855e+01
3.077826e+02	-2.831019e+01
3.095604e+02	-2.835866e+01
3.113484e+02	-2.840928e+01
3.131467e+02	-2.845912e+01
3.149554e+02	-2.850862e+01
3.167746e+02	-2.855566e+01
3.186043e+02	-2.860776e+01
3.204445e+02	-2.865714e+01
3.222954e+02	-2.870384e+01
3.241570e+02	-2.875564e+01
3.260293e+02	-2.880865e+01
3.279124e+02	-2.885527e+01
3.298064e+02	-2.891001e+01
3.317114e+02	-2.895836e+01
3.336273e+02	-2.900942e+01
3.355544e+02	-2.906266e+01
3.374925e+02	-2.910783e+01
3.394418e+02	-2.916131e+01
3.414024e+02	-2.921067e+01
3.433744e+02	-2.925779e+01
3.453577e+02	-2.930928e+01
3.473525e+02	-2.935774e+01
3.493588e+02	-2.940569e+01
3.513766e+02	-2.945874e+01
3.534062e+02	-2.950664e+01
3.554474e+02	-2.955893e+01
3.575005e+02	-2.960821e+01
3.595654e+02	-2.965602e+01
3.616422e+02	-2.970764e+01
3.637311e+02	-2.976016e+01
3.658320e+02	-2.981014e+01
3.679450e+02	-2.986070e+01
3.700702e+02	-2.990619e+01
3.722077e+02	-2.996294e+01
3.743576e+02	-3.000616e+01
3.765199e+02	-3.006578e+01
3.786946e+02	-3.010979e+01
3.808820e+02	-3.015601e+01
3.830819e+02	-3.020720e+01
3.852946e+02	-3.026134e+01
3.875200e+02	-3.031380e+01
3.897583e+02	-3.035916e+01
3.920096e+02	-3.040623e+01
3.942738e+02	-3.046231e+01
3.965511e+02	-3.051426e+01
3.988416e+02	-3.055958e+01
4.011452e+02	-3.061280e+01
4.034622e+02	-3.065906e+01
4.057926e+02	-3.070684e+01
4.081365e+02	-3.076683e+01
4.104938e+02	-3.080967e+01
4.128648e+02	-3.085913e+01
4.152495e+02	-3.091152e+01
4.176480e+02	-3.095651e+01
4.200603e+02	-3.100855e+01
4.224866e+02	-3.106498e+01
4.249268e+02	-3.110661e+01
4.273812e+02	-3.116024e+01
4.298497e+02	-3.121555e+01
4.323325e+02	-3.125879e+01
4.348297e+02	-3.131556e+01
4.373412e+02	-3.135838e+01
4.398673e+02	-3.141064e+01
4.424079e+02	-3.146554e+01
4.449633e+02	-3.150955e+01
4.475334e+02	-3.156143e+01
4.501183e+02	-3.161505e+01
4.527182e+02	-3.166133e+01
4.553330e+02	-3.171154e+01
4.579630e+02	-3.176877e+01
4.606082e+02	-3.181048e+01
4.632687e+02	-3.186112e+01
4.659445e+02	-3.191813e+01
4.686358e+02	-3.196873e+01
4.713426e+02	-3.201271e+01
4.740650e+02	-3.207276e+01
4.768032e+02	-3.211487e+01
4.795572e+02	-3.216975e+01
4.823271e+02	-3.221684e+01
4.851130e+02	-3.226567e+01
4.879150e+02	-3.231668e+01
4.907332e+02	-3.236489e+01
4.935676e+02	-3.241731e+01
4.964185e+02	-3.246758e+01
4.992858e+02	-3.251896e+01
5.021696e+02	-3.257044e+01
5.050701e+02	-3.261634e+01
5.079874e+02	-3.266422e+01
5.109215e+02	-3.272236e+01
5.138726e+02	-3.277236e+01
5.168407e+02	-3.282041e+01
5.198259e+02	-3.287231e+01
5.228284e+02	-3.291270e+01
5.258482e+02	-3.297117e+01
5.288855e+02	-3.302193e+01
5.319403e+02	-3.307317e+01
5.350128e+02	-3.312616e+01
5.381030e+02	-3.317237e+01
5.412111e+02	-3.321975e+01
5.443371e+02	-3.327134e+01
5.474812e+02	-3.332318e+01
5.506434e+02	-3.337587e+01
5.538239e+02	-3.342672e+01
5.570228e+02	-3.347094e+01
5.602401e+02	-3.352563e+01
5.634760e+02	-3.357508e+01
5.667306e+02	-3.362923e+01
5.700040e+02	-3.368016e+01
5.732964e+02	-3.372489e+01
5.766077e+02	-3.377202e+01
5.799382e+02	-3.382542e+01
5.832879e+02	-3.387705e+01
5.866569e+02	-3.392704e+01
5.900454e+02	-3.397759e+01
5.934535e+02	-3.402682e+01
5.968813e+02	-3.407346e+01
6.003288e+02	-3.412362e+01
6.037963e+02	-3.417792e+01
6.072838e+02	-3.421950e+01
6.107914e+02	-3.427948e+01
6.143194e+02	-3.433020e+01
6.178676e+02	-3.437612e+01
6.214364e+02	-3.442974e+01
6.250258e+02	-3.447628e+01
6.286359e+02	-3.453254e+01
6.322669e+02	-3.457793e+01
6.359189e+02	-3.463847e+01
6.395919e+02	-3.467951e+01
6.432862e+02	-3.473272e+01
6.470017e+02	-3.478253e+01
6.507388e+02	-3.483988e+01
6.544974e+02	-3.488455e+01
6.582778e+02	-3.492951e+01
6.620800e+02	-3.498972e+01
6.659041e+02	-3.502429e+01
6.697504e+02	-3.508443e+01
6.736188e+02	-3.513352e+01
6.775096e+02	-3.519242e+01
6.814229e+02	-3.523225e+01
6.853587e+02	-3.528434e+01
6.893173e+02	-3.534887e+01
6.932988e+02	-3.538276e+01
6.973033e+02	-3.544097e+01
7.013309e+02	-3.549543e+01
