Frequency(Hz)	Magnitude(dB)
1.000000e+01	-1.878637e-05
1.005776e+01	-1.900401e-05
1.011585e+01	-1.922418e-05
1.017428e+01	-1.944690e-05
1.023305e+01	-1.967220e-05
1.029215e+01	-1.990010e-05
1.035160e+01	-2.013065e-05
1.041139e+01	-2.036387e-05
1.047153e+01	-2.059979e-05
1.053201e+01	-2.083844e-05
1.059284e+01	-2.107986e-05
1.065403e+01	-2.132408e-05
1.071556e+01	-2.157112e-05
1.077746e+01	-2.182103e-05
1.083971e+01	-2.207383e-05
1.090232e+01	-2.232956e-05
1.096529e+01	-2.258826e-05
1.102862e+01	-2.284995e-05
1.109232e+01	-2.311467e-05
1.115639e+01	-2.338246e-05
1.122083e+01	-2.365335e-05
1.128564e+01	-2.392738e-05
1.135083e+01	-2.420458e-05
1.141639e+01	-2.448500e-05
1.148233e+01	-2.476866e-05
1.154865e+01	-2.505562e-05
1.161536e+01	-2.534589e-05
1.168245e+01	-2.563953e-05
1.174992e+01	-2.593657e-05
1.181779e+01	-2.623705e-05
1.188605e+01	-2.654101e-05
1.195470e+01	-2.684850e-05
1.202375e+01	-2.715954e-05
1.209320e+01	-2.747419e-05
1.216305e+01	-2.779249e-05
1.223330e+01	-2.811447e-05
1.230396e+01	-2.844019e-05
1.237503e+01	-2.876967e-05
1.244651e+01	-2.910298e-05
1.251840e+01	-2.944014e-05
1.259070e+01	-2.978121e-05
1.266343e+01	-3.012623e-05
1.273657e+01	-3.047525e-05
1.281014e+01	-3.082832e-05
1.288413e+01	-3.118547e-05
1.295855e+01	-3.154676e-05
1.303339e+01	-3.191224e-05
1.310867e+01	-3.228195e-05
1.318439e+01	-3.265594e-05
1.326054e+01	-3.303427e-05
1.333713e+01	-3.341698e-05
1.341417e+01	-3.380412e-05
1.349165e+01	-3.419575e-05
1.356958e+01	-3.459192e-05
1.364795e+01	-3.499267e-05
1.372678e+01	-3.539807e-05
1.380607e+01	-3.580817e-05
1.388581e+01	-3.622301e-05
1.396602e+01	-3.664266e-05
1.404668e+01	-3.706718e-05
1.412782e+01	-3.749661e-05
1.420942e+01	-3.793102e-05
1.429149e+01	-3.837046e-05
1.437404e+01	-3.881499e-05
1.445706e+01	-3.926467e-05
1.454057e+01	-3.971956e-05
1.462455e+01	-4.017972e-05
1.470902e+01	-4.064521e-05
1.479398e+01	-4.111609e-05
1.487943e+01	-4.159243e-05
1.496537e+01	-4.207429e-05
1.505181e+01	-4.256173e-05
1.513875e+01	-4.305482e-05
1.522619e+01	-4.355362e-05
1.531414e+01	-4.405819e-05
1.540259e+01	-4.456862e-05
1.549156e+01	-4.508496e-05
1.558103e+01	-4.560727e-05
1.567103e+01	-4.613564e-05
1.576155e+01	-4.667014e-05
1.585258e+01	-4.721082e-05
1.594415e+01	-4.775777e-05
1.603624e+01	-4.831105e-05
1.612886e+01	-4.887075e-05
1.622202e+01	-4.943692e-05
1.631572e+01	-5.000966e-05
1.640996e+01	-5.058903e-05
1.650474e+01	-5.117512e-05
1.660008e+01	-5.176799e-05
1.669596e+01	-5.236774e-05
1.679239e+01	-5.297443e-05
1.688938e+01	-5.358815e-05
1.698694e+01	-5.420898e-05
1.708505e+01	-5.483700e-05
1.718373e+01	-5.547230e-05
1.728299e+01	-5.611495e-05
1.738281e+01	-5.676506e-05
1.748322e+01	-5.742269e-05
1.758420e+01	-5.808795e-05
1.768576e+01	-5.876091e-05
1.778792e+01	-5.944166e-05
1.789066e+01	-6.013031e-05
1.799399e+01	-6.082693e-05
1.809793e+01	-6.153162e-05
1.820246e+01	-6.224448e-05
1.830760e+01	-6.296559e-05
1.841334e+01	-6.369506e-05
1.851969e+01	-6.443298e-05
1.862666e+01	-6.517945e-05
1.873425e+01	-6.593456e-05
1.884246e+01	-6.669843e-05
1.895129e+01	-6.747114e-05
1.906075e+01	-6.825281e-05
1.917085e+01	-6.904353e-05
1.928158e+01	-6.984341e-05
1.939295e+01	-7.065256e-05
1.950496e+01	-7.147108e-05
1.961762e+01	-7.229909e-05
1.973093e+01	-7.313669e-05
1.984490e+01	-7.398399e-05
1.995952e+01	-7.484111e-05
2.007480e+01	-7.570815e-05
2.019076e+01	-7.658525e-05
2.030738e+01	-7.747250e-05
2.042467e+01	-7.837003e-05
2.054264e+01	-7.927796e-05
2.066130e+01	-8.019641e-05
2.078064e+01	-8.112550e-05
2.090066e+01	-8.206535e-05
2.102139e+01	-8.301609e-05
2.114280e+01	-8.397785e-05
2.126492e+01	-8.495075e-05
2.138775e+01	-8.593492e-05
2.151128e+01	-8.693049e-05
2.163553e+01	-8.793759e-05
2.176050e+01	-8.895636e-05
2.188619e+01	-8.998693e-05
2.201260e+01	-9.102945e-05
2.213974e+01	-9.208404e-05
2.226762e+01	-9.315085e-05
2.239624e+01	-9.423001e-05
2.252560e+01	-9.532168e-05
2.265571e+01	-9.642600e-05
2.278656e+01	-9.754311e-05
2.291818e+01	-9.867316e-05
2.305055e+01	-9.981630e-05
2.318369e+01	-1.009727e-04
2.331760e+01	-1.021425e-04
2.345228e+01	-1.033258e-04
2.358774e+01	-1.045229e-04
2.372398e+01	-1.057338e-04
2.386101e+01	-1.069587e-04
2.399883e+01	-1.081978e-04
2.413745e+01	-1.094513e-04
2.427686e+01	-1.107193e-04
2.441709e+01	-1.120020e-04
2.455812e+01	-1.132996e-04
2.469997e+01	-1.146122e-04
2.484263e+01	-1.159400e-04
2.498612e+01	-1.172831e-04
2.513044e+01	-1.186419e-04
2.527559e+01	-1.200164e-04
2.542158e+01	-1.214068e-04
2.556842e+01	-1.228133e-04
2.571610e+01	-1.242361e-04
2.586463e+01	-1.256754e-04
2.601403e+01	-1.271313e-04
2.616428e+01	-1.286042e-04
2.631541e+01	-1.300941e-04
2.646740e+01	-1.316012e-04
2.662028e+01	-1.331258e-04
2.677404e+01	-1.346681e-04
2.692868e+01	-1.362283e-04
2.708422e+01	-1.378065e-04
2.724066e+01	-1.394030e-04
2.739800e+01	-1.410180e-04
2.755625e+01	-1.426517e-04
2.771541e+01	-1.443043e-04
2.787550e+01	-1.459761e-04
2.803650e+01	-1.476672e-04
2.819844e+01	-1.493780e-04
2.836131e+01	-1.511085e-04
2.852513e+01	-1.528591e-04
2.868989e+01	-1.546300e-04
2.885560e+01	-1.564214e-04
2.902227e+01	-1.582336e-04
2.918990e+01	-1.600667e-04
2.935850e+01	-1.619211e-04
2.952807e+01	-1.637970e-04
2.969863e+01	-1.656945e-04
2.987016e+01	-1.676141e-04
3.004269e+01	-1.695559e-04
3.021622e+01	-1.715203e-04
3.039075e+01	-1.735073e-04
3.056628e+01	-1.755174e-04
3.074283e+01	-1.775508e-04
3.092040e+01	-1.796077e-04
3.109900e+01	-1.816885e-04
3.127862e+01	-1.837934e-04
3.145929e+01	-1.859226e-04
3.164099e+01	-1.880765e-04
3.182375e+01	-1.902554e-04
3.200756e+01	-1.924595e-04
3.219244e+01	-1.946892e-04
3.237838e+01	-1.969446e-04
3.256540e+01	-1.992262e-04
3.275349e+01	-2.015343e-04
3.294268e+01	-2.038691e-04
3.313295e+01	-2.062309e-04
3.332433e+01	-2.086201e-04
3.351681e+01	-2.110369e-04
3.371040e+01	-2.134818e-04
3.390511e+01	-2.159550e-04
3.410094e+01	-2.184568e-04
3.429791e+01	-2.209876e-04
3.449601e+01	-2.235478e-04
3.469526e+01	-2.261376e-04
3.489566e+01	-2.287574e-04
3.509721e+01	-2.314075e-04
3.529993e+01	-2.340884e-04
3.550382e+01	-2.368003e-04
3.570889e+01	-2.395436e-04
3.591515e+01	-2.423187e-04
3.612259e+01	-2.451259e-04
3.633123e+01	-2.479657e-04
3.654108e+01	-2.508384e-04
3.675214e+01	-2.537443e-04
3.696442e+01	-2.566839e-04
3.717792e+01	-2.596576e-04
3.739266e+01	-2.626657e-04
3.760864e+01	-2.657087e-04
3.782587e+01	-2.687869e-04
3.804435e+01	-2.719008e-04
3.826409e+01	-2.750507e-04
3.848510e+01	-2.782372e-04
3.870739e+01	-2.814605e-04
3.893096e+01	-2.847212e-04
3.915583e+01	-2.880197e-04
3.938199e+01	-2.913563e-04
3.960946e+01	-2.947317e-04
3.983824e+01	-2.981461e-04
4.006834e+01	-3.016001e-04
4.029978e+01	-3.050941e-04
4.053255e+01	-3.086286e-04
4.076666e+01	-3.122040e-04
4.100213e+01	-3.158208e-04
4.123896e+01	-3.194795e-04
4.147715e+01	-3.231807e-04
4.171672e+01	-3.269247e-04
4.195767e+01	-3.307120e-04
4.220002e+01	-3.345433e-04
4.244377e+01	-3.384189e-04
4.268892e+01	-3.423394e-04
4.293549e+01	-3.463054e-04
4.318348e+01	-3.503172e-04
4.343291e+01	-3.543756e-04
4.368377e+01	-3.584810e-04
4.393609e+01	-3.626339e-04
4.418986e+01	-3.668349e-04
4.444510e+01	-3.710846e-04
4.470182e+01	-3.753836e-04
4.496001e+01	-3.797323e-04
4.521970e+01	-3.841314e-04
4.548089e+01	-3.885815e-04
4.574358e+01	-3.930831e-04
4.600779e+01	-3.976369e-04
4.627353e+01	-4.022434e-04
4.654081e+01	-4.069033e-04
4.680963e+01	-4.116171e-04
4.708000e+01	-4.163856e-04
4.735193e+01	-4.212093e-04
4.762543e+01	-4.260889e-04
4.790051e+01	-4.310250e-04
4.817719e+01	-4.360183e-04
4.845545e+01	-4.410695e-04
4.873533e+01	-4.461791e-04
4.901682e+01	-4.513479e-04
4.929994e+01	-4.565767e-04
4.958470e+01	-4.618659e-04
4.987110e+01	-4.672165e-04
5.015915e+01	-4.726290e-04
5.044887e+01	-4.781043e-04
5.074026e+01	-4.836429e-04
5.103333e+01	-4.892458e-04
5.132810e+01	-4.949135e-04
5.162457e+01	-5.006469e-04
5.192275e+01	-5.064467e-04
5.222265e+01	-5.123136e-04
5.252429e+01	-5.182486e-04
5.282767e+01	-5.242523e-04
5.313280e+01	-5.303255e-04
5.343969e+01	-5.364691e-04
5.374836e+01	-5.426838e-04
5.405880e+01	-5.489706e-04
5.437105e+01	-5.553302e-04
5.468509e+01	-5.617634e-04
5.500095e+01	-5.682712e-04
5.531863e+01	-5.748543e-04
5.563815e+01	-5.815137e-04
5.595951e+01	-5.882502e-04
5.628273e+01	-5.950648e-04
5.660782e+01	-6.019583e-04
5.693479e+01	-6.089317e-04
5.726364e+01	-6.159858e-04
5.759439e+01	-6.231217e-04
5.792705e+01	-6.303402e-04
5.826164e+01	-6.376423e-04
5.859815e+01	-6.450290e-04
5.893662e+01	-6.525013e-04
5.927703e+01	-6.600602e-04
5.961941e+01	-6.677065e-04
5.996377e+01	-6.754415e-04
6.031012e+01	-6.832661e-04
6.065847e+01	-6.911813e-04
6.100883e+01	-6.991881e-04
6.136121e+01	-7.072878e-04
6.171563e+01	-7.154812e-04
6.207210e+01	-7.237696e-04
6.243063e+01	-7.321539e-04
6.279122e+01	-7.406354e-04
6.315390e+01	-7.492151e-04
6.351868e+01	-7.578943e-04
6.388556e+01	-7.666739e-04
6.425456e+01	-7.755552e-04
6.462569e+01	-7.845394e-04
6.499897e+01	-7.936277e-04
6.537440e+01	-8.028213e-04
6.575200e+01	-8.121213e-04
6.613178e+01	-8.215290e-04
6.651375e+01	-8.310458e-04
6.689793e+01	-8.406727e-04
6.728433e+01	-8.504112e-04
6.767297e+01	-8.602625e-04
6.806384e+01	-8.702279e-04
6.845698e+01	-8.803087e-04
6.885238e+01	-8.905062e-04
6.925007e+01	-9.008219e-04
6.965005e+01	-9.112571e-04
7.005235e+01	-9.218131e-04
7.045697e+01	-9.324915e-04
7.086393e+01	-9.432934e-04
7.127323e+01	-9.542206e-04
7.168490e+01	-9.652742e-04
7.209895e+01	-9.764559e-04
7.251539e+01	-9.877672e-04
7.293424e+01	-9.992094e-04
7.335551e+01	-1.010784e-03
7.377920e+01	-1.022493e-03
7.420535e+01	-1.034337e-03
7.463396e+01	-1.046319e-03
7.506504e+01	-1.058440e-03
7.549861e+01	-1.070700e-03
7.593469e+01	-1.083103e-03
7.637328e+01	-1.095650e-03
7.681441e+01	-1.108341e-03
7.725809e+01	-1.121180e-03
7.770433e+01	-1.134168e-03
7.815315e+01	-1.147306e-03
7.860456e+01	-1.160596e-03
7.905857e+01	-1.174040e-03
7.951521e+01	-1.187639e-03
7.997449e+01	-1.201397e-03
8.043642e+01	-1.215313e-03
8.090102e+01	-1.229391e-03
8.136830e+01	-1.243632e-03
8.183828e+01	-1.258037e-03
8.231097e+01	-1.272610e-03
8.278640e+01	-1.287351e-03
8.326457e+01	-1.302263e-03
8.374550e+01	-1.317348e-03
8.422921e+01	-1.332608e-03
8.471572e+01	-1.348044e-03
8.520503e+01	-1.363659e-03
8.569717e+01	-1.379455e-03
8.619215e+01	-1.395433e-03
8.669000e+01	-1.411597e-03
8.719071e+01	-1.427948e-03
8.769432e+01	-1.444489e-03
8.820084e+01	-1.461221e-03
8.871029e+01	-1.478146e-03
8.922267e+01	-1.495268e-03
8.973802e+01	-1.512588e-03
9.025634e+01	-1.530109e-03
9.077766e+01	-1.547833e-03
9.130199e+01	-1.565761e-03
9.182935e+01	-1.583898e-03
9.235975e+01	-1.602244e-03
9.289321e+01	-1.620803e-03
9.342976e+01	-1.639577e-03
9.396941e+01	-1.658569e-03
9.451217e+01	-1.677780e-03
9.505807e+01	-1.697214e-03
9.560712e+01	-1.716872e-03
9.615934e+01	-1.736759e-03
9.671476e+01	-1.756875e-03
9.727338e+01	-1.777225e-03
9.783522e+01	-1.797811e-03
9.840032e+01	-1.818634e-03
9.896867e+01	-1.839699e-03
9.954031e+01	-1.861008e-03
1.001153e+02	-1.882564e-03
1.006935e+02	-1.904369e-03
1.012751e+02	-1.926427e-03
1.018601e+02	-1.948740e-03
1.024484e+02	-1.971311e-03
1.030402e+02	-1.994144e-03
1.036353e+02	-2.017242e-03
1.042339e+02	-2.040606e-03
1.048360e+02	-2.064242e-03
1.054415e+02	-2.088151e-03
1.060505e+02	-2.112337e-03
1.066631e+02	-2.136803e-03
1.072791e+02	-2.161552e-03
1.078988e+02	-2.186588e-03
1.085220e+02	-2.211913e-03
1.091488e+02	-2.237532e-03
1.097793e+02	-2.263448e-03
1.104133e+02	-2.289664e-03
1.110511e+02	-2.316183e-03
1.116925e+02	-2.343009e-03
1.123376e+02	-2.370146e-03
1.129865e+02	-2.397598e-03
1.136391e+02	-2.425367e-03
1.142955e+02	-2.453457e-03
1.149556e+02	-2.481873e-03
1.156196e+02	-2.510618e-03
1.162874e+02	-2.539696e-03
1.169591e+02	-2.569110e-03
1.176347e+02	-2.598865e-03
1.183141e+02	-2.628964e-03
1.189975e+02	-2.659412e-03
1.196848e+02	-2.690213e-03
1.203761e+02	-2.721370e-03
1.210714e+02	-2.752887e-03
1.217707e+02	-2.784770e-03
1.224740e+02	-2.817022e-03
1.231814e+02	-2.849647e-03
1.238929e+02	-2.882650e-03
1.246085e+02	-2.916035e-03
1.253283e+02	-2.949807e-03
1.260522e+02	-2.983969e-03
1.267802e+02	-3.018527e-03
1.275125e+02	-3.053485e-03
1.282490e+02	-3.088848e-03
1.289898e+02	-3.124621e-03
1.297348e+02	-3.160807e-03
1.304842e+02	-3.197412e-03
1.312378e+02	-3.234441e-03
1.319959e+02	-3.271899e-03
1.327583e+02	-3.309790e-03
1.335251e+02	-3.348120e-03
1.342963e+02	-3.386894e-03
1.350720e+02	-3.426117e-03
1.358522e+02	-3.465793e-03
1.366368e+02	-3.505929e-03
1.374260e+02	-3.546530e-03
1.382198e+02	-3.587600e-03
1.390182e+02	-3.629146e-03
1.398211e+02	-3.671173e-03
1.406287e+02	-3.713686e-03
1.414410e+02	-3.756691e-03
1.422579e+02	-3.800195e-03
1.430796e+02	-3.844201e-03
1.439060e+02	-3.888717e-03
1.447372e+02	-3.933749e-03
1.455732e+02	-3.979301e-03
1.464141e+02	-4.025381e-03
1.472597e+02	-4.071994e-03
1.481103e+02	-4.119147e-03
1.489658e+02	-4.166846e-03
1.498262e+02	-4.215096e-03
1.506916e+02	-4.263905e-03
1.515620e+02	-4.313279e-03
1.524374e+02	-4.363224e-03
1.533179e+02	-4.413748e-03
1.542034e+02	-4.464856e-03
1.550941e+02	-4.516555e-03
1.559899e+02	-4.568853e-03
1.568909e+02	-4.621756e-03
1.577971e+02	-4.675272e-03
1.587085e+02	-4.729406e-03
1.596252e+02	-4.784168e-03
1.605472e+02	-4.839563e-03
1.614745e+02	-4.895598e-03
1.624072e+02	-4.952283e-03
1.633453e+02	-5.009623e-03
1.642887e+02	-5.067627e-03
1.652377e+02	-5.126302e-03
1.661921e+02	-5.185656e-03
1.671520e+02	-5.245697e-03
1.681175e+02	-5.306432e-03
1.690885e+02	-5.367871e-03
1.700651e+02	-5.430020e-03
1.710474e+02	-5.492888e-03
1.720354e+02	-5.556484e-03
1.730291e+02	-5.620816e-03
1.740285e+02	-5.685892e-03
1.750337e+02	-5.751720e-03
1.760446e+02	-5.818311e-03
1.770615e+02	-5.885672e-03
1.780842e+02	-5.953812e-03
1.791128e+02	-6.022740e-03
1.801473e+02	-6.092466e-03
1.811878e+02	-6.162999e-03
1.822344e+02	-6.234347e-03
1.832870e+02	-6.306521e-03
1.843456e+02	-6.379530e-03
1.854104e+02	-6.453384e-03
1.864813e+02	-6.528092e-03
1.875584e+02	-6.603664e-03
1.886418e+02	-6.680110e-03
1.897313e+02	-6.757440e-03
1.908272e+02	-6.835665e-03
1.919294e+02	-6.914795e-03
1.930380e+02	-6.994840e-03
1.941530e+02	-7.075811e-03
1.952744e+02	-7.157718e-03
1.964023e+02	-7.240573e-03
1.975367e+02	-7.324386e-03
1.986777e+02	-7.409168e-03
1.998252e+02	-7.494931e-03
2.009794e+02	-7.581686e-03
2.021403e+02	-7.669444e-03
2.033078e+02	-7.758217e-03
2.044821e+02	-7.848016e-03
2.056632e+02	-7.938854e-03
2.068511e+02	-8.030742e-03
2.080459e+02	-8.123693e-03
2.092475e+02	-8.217719e-03
2.104561e+02	-8.312832e-03
2.116717e+02	-8.409045e-03
2.128943e+02	-8.506370e-03
2.141240e+02	-8.604821e-03
2.153608e+02	-8.704410e-03
2.166047e+02	-8.805150e-03
2.178558e+02	-8.907055e-03
2.191141e+02	-9.010138e-03
2.203797e+02	-9.114413e-03
2.216526e+02	-9.219894e-03
2.229329e+02	-9.326594e-03
2.242205e+02	-9.434527e-03
2.255156e+02	-9.543708e-03
2.268182e+02	-9.654151e-03
2.281283e+02	-9.765871e-03
2.294459e+02	-9.878882e-03
2.307712e+02	-9.993199e-03
2.321041e+02	-1.010884e-02
2.334447e+02	-1.022581e-02
2.347931e+02	-1.034414e-02
2.361493e+02	-1.046383e-02
2.375133e+02	-1.058491e-02
2.388851e+02	-1.070739e-02
2.402649e+02	-1.083128e-02
2.416527e+02	-1.095661e-02
2.430484e+02	-1.108338e-02
2.444523e+02	-1.121162e-02
2.458642e+02	-1.134134e-02
2.472843e+02	-1.147256e-02
2.487126e+02	-1.160529e-02
2.501492e+02	-1.173956e-02
2.515940e+02	-1.187538e-02
2.530472e+02	-1.201277e-02
2.545088e+02	-1.215174e-02
2.559789e+02	-1.229232e-02
2.574574e+02	-1.243453e-02
2.589444e+02	-1.257838e-02
2.604401e+02	-1.272388e-02
2.619444e+02	-1.287108e-02
2.634574e+02	-1.301997e-02
2.649791e+02	-1.317058e-02
2.665096e+02	-1.332293e-02
2.680489e+02	-1.347703e-02
2.695972e+02	-1.363292e-02
2.711544e+02	-1.379061e-02
2.727205e+02	-1.395012e-02
2.742958e+02	-1.411148e-02
2.758801e+02	-1.427469e-02
2.774736e+02	-1.443979e-02
2.790762e+02	-1.460680e-02
2.806882e+02	-1.477573e-02
2.823094e+02	-1.494662e-02
2.839400e+02	-1.511948e-02
2.855800e+02	-1.529433e-02
2.872295e+02	-1.547120e-02
2.888886e+02	-1.565012e-02
2.905572e+02	-1.583110e-02
2.922354e+02	-1.601416e-02
2.939234e+02	-1.619934e-02
2.956211e+02	-1.638666e-02
2.973286e+02	-1.657614e-02
2.990459e+02	-1.676781e-02
3.007732e+02	-1.696169e-02
3.025104e+02	-1.715781e-02
3.042577e+02	-1.735618e-02
3.060151e+02	-1.755685e-02
3.077826e+02	-1.775984e-02
3.095604e+02	-1.796516e-02
3.113484e+02	-1.817286e-02
3.131467e+02	-1.838295e-02
3.149554e+02	-1.859546e-02
3.167746e+02	-1.881042e-02
3.186043e+02	-1.902787e-02
3.204445e+02	-1.924782e-02
3.222954e+02	-1.947031e-02
3.241570e+02	-1.969537e-02
3.260293e+02	-1.992302e-02
3.279124e+02	-2.015329e-02
3.298064e+02	-2.038623e-02
3.317114e+02	-2.062184e-02
3.336273e+02	-2.086018e-02
3.355544e+02	-2.110126e-02
3.374925e+02	-2.134512e-02
3.394418e+02	-2.159179e-02
3.414024e+02	-2.184131e-02
3.433744e+02	-2.209370e-02
3.453577e+02	-2.234900e-02
3.473525e+02	-2.260724e-02
3.493588e+02	-2.286846e-02
3.513766e+02	-2.313269e-02
3.534062e+02	-2.339997e-02
3.554474e+02	-2.367032e-02
3.575005e+02	-2.394379e-02
3.595654e+02	-2.422041e-02
3.616422e+02	-2.450021e-02
3.637311e+02	-2.478324e-02
3.658320e+02	-2.506953e-02
3.679450e+02	-2.535912e-02
3.700702e+02	-2.565204e-02
3.722077e+02	-2.594834e-02
3.743576e+02	-2.624804e-02
3.765199e+02	-2.655120e-02
3.786946e+02	-2.685785e-02
3.808820e+02	-2.716803e-02
3.830819e+02	-2.748178e-02
3.852946e+02	-2.779914e-02
3.875200e+02	-2.812016e-02
3.897583e+02	-2.844486e-02
3.920096e+02	-2.877331e-02
3.942738e+02	-2.910554e-02
3.965511e+02	-2.944159e-02
3.988416e+02	-2.978150e-02
4.011452e+02	-3.012533e-02
4.034622e+02	-3.047311e-02
4.057926e+02	-3.082489e-02
4.081365e+02	-3.118072e-02
4.104938e+02	-3.154065e-02
4.128648e+02	-3.190471e-02
4.152495e+02	-3.227295e-02
4.176480e+02	-3.264544e-02
4.200603e+02	-3.302220e-02
4.224866e+02	-3.340330e-02
4.249268e+02	-3.378877e-02
4.273812e+02	-3.417868e-02
4.298497e+02	-3.457307e-02
4.323325e+02	-3.497199e-02
4.348297e+02	-3.537550e-02
4.373412e+02	-3.578364e-02
4.398673e+02	-3.619647e-02
4.424079e+02	-3.661404e-02
4.449633e+02	-3.703641e-02
4.475334e+02	-3.746364e-02
4.501183e+02	-3.789577e-02
4.527182e+02	-3.833286e-02
4.553330e+02	-3.877497e-02
4.579630e+02	-3.922215e-02
4.606082e+02	-3.967447e-02
4.632687e+02	-4.013198e-02
4.659445e+02	-4.059474e-02
4.686358e+02	-4.106282e-02
4.713426e+02	-4.153626e-02
4.740650e+02	-4.201514e-02
4.768032e+02	-4.249951e-02
4.795572e+02	-4.298943e-02
4.823271e+02	-4.348498e-02
4.851130e+02	-4.398621e-02
4.879150e+02	-4.449319e-02
4.907332e+02	-4.500598e-02
4.935676e+02	-4.552464e-02
4.964185e+02	-4.604926e-02
4.992858e+02	-4.657989e-02
5.021696e+02	-4.711659e-02
5.050701e+02	-4.765945e-02
5.079874e+02	-4.820853e-02
5.109215e+02	-4.876390e-02
5.138726e+02	-4.932563e-02
5.168407e+02	-4.989379e-02
5.198259e+02	-5.046846e-02
5.228284e+02	-5.104971e-02
5.258482e+02	-5.163762e-02
5.288855e+02	-5.223225e-02
5.319403e+02	-5.283369e-02
5.350128e+02	-5.344201e-02
5.381030e+02	-5.405729e-02
5.412111e+02	-5.467961e-02
5.443371e+02	-5.530905e-02
5.474812e+02	-5.594569e-02
5.506434e+02	-5.658961e-02
5.538239e+02	-5.724089e-02
5.570228e+02	-5.789962e-02
5.602401e+02	-5.856588e-02
5.634760e+02	-5.923975e-02
5.667306e+02	-5.992132e-02
5.700040e+02	-6.061068e-02
5.732964e+02	-6.130791e-02
5.766077e+02	-6.201310e-02
5.799382e+02	-6.272635e-02
5.832879e+02	-6.344774e-02
5.866569e+02	-6.417737e-02
5.900454e+02	-6.491532e-02
5.934535e+02	-6.566169e-02
5.968813e+02	-6.641658e-02
6.003288e+02	-6.718009e-02
6.037963e+02	-6.795230e-02
6.072838e+02	-6.873331e-02
6.107914e+02	-6.952323e-02
6.143194e+02	-7.032216e-02
6.178676e+02	-7.113019e-02
6.214364e+02	-7.194742e-02
6.250258e+02	-7.277397e-02
6.286359e+02	-7.360994e-02
6.322669e+02	-7.445542e-02
6.359189e+02	-7.531053e-02
6.395919e+02	-7.617537e-02
6.432862e+02	-7.705006e-02
6.470017e+02	-7.793470e-02
6.507388e+02	-7.882941e-02
6.544974e+02	-7.973429e-02
6.582778e+02	-8.064947e-02
6.620800e+02	-8.157504e-02
6.659041e+02	-8.251114e-02
6.697504e+02	-8.345788e-02
6.736188e+02	-8.441538e-02
6.775096e+02	-8.538375e-02
6.814229e+02	-8.636312e-02
6.853587e+02	-8.735361e-02
6.893173e+02	-8.835535e-02
6.932988e+02	-8.936845e-02
6.973033e+02	-9.039305e-02
7.013309e+02	-9.142927e-02
