Frequency(Hz)	Magnitude(dB)
1.000000e+01	-2.139815e+00
1.005776e+01	-2.159230e+00
1.011585e+01	-2.178729e+00
1.017428e+01	-2.198673e+00
1.023305e+01	-2.218650e+00
1.029215e+01	-2.238627e+00
1.035160e+01	-2.258781e+00
1.041139e+01	-2.279235e+00
1.047153e+01	-2.299805e+00
1.053201e+01	-2.320498e+00
1.059284e+01	-2.341009e+00
1.065403e+01	-2.362282e+00
1.071556e+01	-2.383182e+00
1.077746e+01	-2.404413e+00
1.083971e+01	-2.425634e+00
1.090232e+01	-2.447225e+00
1.096529e+01	-2.468657e+00
1.102862e+01	-2.490571e+00
1.109232e+01	-2.512572e+00
1.115639e+01	-2.534541e+00
1.122083e+01	-2.556713e+00
1.128564e+01	-2.579154e+00
1.135083e+01	-2.601517e+00
1.141639e+01	-2.624208e+00
1.148233e+01	-2.646744e+00
1.154865e+01	-2.669738e+00
1.161536e+01	-2.692865e+00
1.168245e+01	-2.715777e+00
1.174992e+01	-2.739238e+00
1.181779e+01	-2.762766e+00
1.188605e+01	-2.786255e+00
1.195470e+01	-2.810000e+00
1.202375e+01	-2.834263e+00
1.209320e+01	-2.858059e+00
1.216305e+01	-2.882387e+00
1.223330e+01	-2.906602e+00
1.230396e+01	-2.931192e+00
1.237503e+01	-2.955808e+00
1.244651e+01	-2.980550e+00
1.251840e+01	-3.005404e+00
1.259070e+01	-3.030391e+00
1.266343e+01	-3.055995e+00
1.273657e+01	-3.081056e+00
1.281014e+01	-3.106305e+00
1.288413e+01	-3.132155e+00
1.295855e+01	-3.157883e+00
1.303339e+01	-3.184008e+00
1.310867e+01	-3.210126e+00
1.318439e+01	-3.236109e+00
1.326054e+01	-3.262532e+00
1.333713e+01	-3.289168e+00
1.341417e+01	-3.315670e+00
1.349165e+01	-3.342427e+00
1.356958e+01	-3.369480e+00
1.364795e+01	-3.396206e+00
1.372678e+01	-3.423688e+00
1.380607e+01	-3.450986e+00
1.388581e+01	-3.478686e+00
1.396602e+01	-3.506057e+00
1.404668e+01	-3.533864e+00
1.412782e+01	-3.561755e+00
1.420942e+01	-3.590006e+00
1.429149e+01	-3.618211e+00
1.437404e+01	-3.646616e+00
1.445706e+01	-3.674947e+00
1.454057e+01	-3.703635e+00
1.462455e+01	-3.732473e+00
1.470902e+01	-3.761275e+00
1.479398e+01	-3.790172e+00
1.487943e+01	-3.819463e+00
1.496537e+01	-3.848875e+00
1.505181e+01	-3.878204e+00
1.513875e+01	-3.907883e+00
1.522619e+01	-3.937783e+00
1.531414e+01	-3.967500e+00
1.540259e+01	-3.997523e+00
1.549156e+01	-4.027648e+00
1.558103e+01	-4.058035e+00
1.567103e+01	-4.088639e+00
1.576155e+01	-4.119002e+00
1.585258e+01	-4.149656e+00
1.594415e+01	-4.180704e+00
1.603624e+01	-4.211872e+00
1.612886e+01	-4.242913e+00
1.622202e+01	-4.274233e+00
1.631572e+01	-4.305455e+00
1.640996e+01	-4.336997e+00
1.650474e+01	-4.368671e+00
1.660008e+01	-4.400605e+00
1.669596e+01	-4.432294e+00
1.679239e+01	-4.464484e+00
1.688938e+01	-4.497002e+00
1.698694e+01	-4.529036e+00
1.708505e+01	-4.561378e+00
1.718373e+01	-4.593764e+00
1.728299e+01	-4.626820e+00
1.738281e+01	-4.659356e+00
1.748322e+01	-4.692547e+00
1.758420e+01	-4.725627e+00
1.768576e+01	-4.759108e+00
1.778792e+01	-4.792046e+00
1.789066e+01	-4.825754e+00
1.799399e+01	-4.859572e+00
1.809793e+01	-4.892936e+00
1.820246e+01	-4.927074e+00
1.830760e+01	-4.960910e+00
1.841334e+01	-4.994899e+00
1.851969e+01	-5.029555e+00
1.862666e+01	-5.063534e+00
1.873425e+01	-5.098345e+00
1.884246e+01	-5.132932e+00
1.895129e+01	-5.167392e+00
1.906075e+01	-5.202454e+00
1.917085e+01	-5.237597e+00
1.928158e+01	-5.272663e+00
1.939295e+01	-5.307819e+00
1.950496e+01	-5.343396e+00
1.961762e+01	-5.378595e+00
1.973093e+01	-5.414403e+00
1.984490e+01	-5.449710e+00
1.995952e+01	-5.485732e+00
2.007480e+01	-5.521316e+00
2.019076e+01	-5.557703e+00
2.030738e+01	-5.593906e+00
2.042467e+01	-5.629948e+00
2.054264e+01	-5.666357e+00
2.066130e+01	-5.703101e+00
2.078064e+01	-5.739981e+00
2.090066e+01	-5.776333e+00
2.102139e+01	-5.813311e+00
2.114280e+01	-5.850233e+00
2.126492e+01	-5.887339e+00
2.138775e+01	-5.924368e+00
2.151128e+01	-5.961998e+00
2.163553e+01	-5.999242e+00
2.176050e+01	-6.036809e+00
2.188619e+01	-6.074539e+00
2.201260e+01	-6.112150e+00
2.213974e+01	-6.150201e+00
2.226762e+01	-6.187897e+00
2.239624e+01	-6.225743e+00
2.252560e+01	-6.263744e+00
2.265571e+01	-6.302499e+00
2.278656e+01	-6.340596e+00
2.291818e+01	-6.378985e+00
2.305055e+01	-6.417527e+00
2.318369e+01	-6.456537e+00
2.331760e+01	-6.495085e+00
2.345228e+01	-6.533871e+00
2.358774e+01	-6.572871e+00
2.372398e+01	-6.612084e+00
2.386101e+01	-6.651157e+00
2.399883e+01	-6.690433e+00
2.413745e+01	-6.729709e+00
2.427686e+01	-6.768750e+00
2.441709e+01	-6.809178e+00
2.455812e+01	-6.848243e+00
2.469997e+01	-6.887922e+00
2.484263e+01	-6.928206e+00
2.498612e+01	-6.967978e+00
2.513044e+01	-7.007901e+00
2.527559e+01	-7.047997e+00
2.542158e+01	-7.088541e+00
2.556842e+01	-7.128504e+00
2.571610e+01	-7.168486e+00
2.586463e+01	-7.209373e+00
2.601403e+01	-7.250021e+00
2.616428e+01	-7.290398e+00
2.631541e+01	-7.331622e+00
2.646740e+01	-7.372290e+00
2.662028e+01	-7.412891e+00
2.677404e+01	-7.454085e+00
2.692868e+01	-7.494633e+00
2.708422e+01	-7.536463e+00
2.724066e+01	-7.577652e+00
2.739800e+01	-7.618650e+00
2.755625e+01	-7.660268e+00
2.771541e+01	-7.702082e+00
2.787550e+01	-7.742988e+00
2.803650e+01	-7.784732e+00
2.819844e+01	-7.826812e+00
2.836131e+01	-7.868942e+00
2.852513e+01	-7.910225e+00
2.868989e+01	-7.952568e+00
2.885560e+01	-7.994454e+00
2.902227e+01	-8.036394e+00
2.918990e+01	-8.079058e+00
2.935850e+01	-8.121286e+00
2.952807e+01	-8.163323e+00
2.969863e+01	-8.205908e+00
2.987016e+01	-8.248144e+00
3.004269e+01	-8.291196e+00
3.021622e+01	-8.334035e+00
3.039075e+01	-8.376968e+00
3.056628e+01	-8.418959e+00
3.074283e+01	-8.461993e+00
3.092040e+01	-8.504787e+00
3.109900e+01	-8.547925e+00
3.127862e+01	-8.591342e+00
3.145929e+01	-8.633965e+00
3.164099e+01	-8.677062e+00
3.182375e+01	-8.720625e+00
3.200756e+01	-8.764464e+00
3.219244e+01	-8.807070e+00
3.237838e+01	-8.851103e+00
3.256540e+01	-8.894470e+00
3.275349e+01	-8.938090e+00
3.294268e+01	-8.981434e+00
3.313295e+01	-9.025010e+00
3.332433e+01	-9.069031e+00
3.351681e+01	-9.113188e+00
3.371040e+01	-9.156683e+00
3.390511e+01	-9.200962e+00
3.410094e+01	-9.244944e+00
3.429791e+01	-9.288927e+00
3.449601e+01	-9.333440e+00
3.469526e+01	-9.377716e+00
3.489566e+01	-9.421623e+00
3.509721e+01	-9.466184e+00
3.529993e+01	-9.510610e+00
3.550382e+01	-9.555374e+00
3.570889e+01	-9.599807e+00
3.591515e+01	-9.643825e+00
3.612259e+01	-9.688322e+00
3.633123e+01	-9.733285e+00
3.654108e+01	-9.777843e+00
3.675214e+01	-9.822966e+00
3.696442e+01	-9.867380e+00
3.717792e+01	-9.912349e+00
3.739266e+01	-9.957655e+00
3.760864e+01	-1.000198e+01
3.782587e+01	-1.004767e+01
3.804435e+01	-1.009272e+01
3.826409e+01	-1.013802e+01
3.848510e+01	-1.018246e+01
3.870739e+01	-1.022824e+01
3.893096e+01	-1.027380e+01
3.915583e+01	-1.031874e+01
3.938199e+01	-1.036414e+01
3.960946e+01	-1.040926e+01
3.983824e+01	-1.045529e+01
4.006834e+01	-1.050046e+01
4.029978e+01	-1.054649e+01
4.053255e+01	-1.059221e+01
4.076666e+01	-1.063760e+01
4.100213e+01	-1.068333e+01
4.123896e+01	-1.072942e+01
4.147715e+01	-1.077483e+01
4.171672e+01	-1.082111e+01
4.195767e+01	-1.086665e+01
4.220002e+01	-1.091278e+01
4.244377e+01	-1.095857e+01
4.268892e+01	-1.100440e+01
4.293549e+01	-1.105106e+01
4.318348e+01	-1.109689e+01
4.343291e+01	-1.114313e+01
4.368377e+01	-1.118959e+01
4.393609e+01	-1.123504e+01
4.418986e+01	-1.128176e+01
4.444510e+01	-1.132792e+01
4.470182e+01	-1.137451e+01
4.496001e+01	-1.142136e+01
4.521970e+01	-1.146761e+01
4.548089e+01	-1.151401e+01
4.574358e+01	-1.156018e+01
4.600779e+01	-1.160655e+01
4.627353e+01	-1.165344e+01
4.654081e+01	-1.170028e+01
4.680963e+01	-1.174686e+01
4.708000e+01	-1.179341e+01
4.735193e+01	-1.184029e+01
4.762543e+01	-1.188690e+01
4.790051e+01	-1.193371e+01
4.817719e+01	-1.198039e+01
4.845545e+01	-1.202764e+01
4.873533e+01	-1.207453e+01
4.901682e+01	-1.212111e+01
4.929994e+01	-1.216835e+01
4.958470e+01	-1.221546e+01
4.987110e+01	-1.226225e+01
5.015915e+01	-1.230989e+01
5.044887e+01	-1.235557e+01
5.074026e+01	-1.240378e+01
5.103333e+01	-1.245078e+01
5.132810e+01	-1.249858e+01
5.162457e+01	-1.254517e+01
5.192275e+01	-1.259252e+01
5.222265e+01	-1.264016e+01
5.252429e+01	-1.268740e+01
5.282767e+01	-1.273449e+01
5.313280e+01	-1.278162e+01
5.343969e+01	-1.282949e+01
5.374836e+01	-1.287708e+01
5.405880e+01	-1.292430e+01
5.437105e+01	-1.297130e+01
5.468509e+01	-1.301931e+01
5.500095e+01	-1.306711e+01
5.531863e+01	-1.311465e+01
5.563815e+01	-1.316191e+01
5.595951e+01	-1.321020e+01
5.628273e+01	-1.325765e+01
5.660782e+01	-1.330521e+01
5.693479e+01	-1.335206e+01
5.726364e+01	-1.340031e+01
5.759439e+01	-1.344786e+01
5.792705e+01	-1.349554e+01
5.826164e+01	-1.354389e+01
5.859815e+01	-1.359229e+01
5.893662e+01	-1.363945e+01
5.927703e+01	-1.368597e+01
5.961941e+01	-1.373517e+01
5.996377e+01	-1.378330e+01
6.031012e+01	-1.383015e+01
6.065847e+01	-1.387889e+01
6.100883e+01	-1.392782e+01
6.136121e+01	-1.397394e+01
6.171563e+01	-1.402254e+01
6.207210e+01	-1.407096e+01
6.243063e+01	-1.411809e+01
6.279122e+01	-1.416794e+01
6.315390e+01	-1.421553e+01
6.351868e+01	-1.426349e+01
6.388556e+01	-1.431119e+01
6.425456e+01	-1.435958e+01
6.462569e+01	-1.440837e+01
6.499897e+01	-1.445606e+01
6.537440e+01	-1.450461e+01
6.575200e+01	-1.455301e+01
6.613178e+01	-1.460053e+01
6.651375e+01	-1.464934e+01
6.689793e+01	-1.469796e+01
6.728433e+01	-1.474696e+01
6.767297e+01	-1.479426e+01
6.806384e+01	-1.484245e+01
6.845698e+01	-1.489096e+01
6.885238e+01	-1.494014e+01
6.925007e+01	-1.498732e+01
6.965005e+01	-1.503608e+01
7.005235e+01	-1.508615e+01
7.045697e+01	-1.513340e+01
7.086393e+01	-1.518162e+01
7.127323e+01	-1.522935e+01
7.168490e+01	-1.527924e+01
7.209895e+01	-1.532785e+01
7.251539e+01	-1.537664e+01
7.293424e+01	-1.542407e+01
7.335551e+01	-1.547322e+01
7.377920e+01	-1.552185e+01
7.420535e+01	-1.557082e+01
7.463396e+01	-1.561993e+01
7.506504e+01	-1.566738e+01
7.549861e+01	-1.571672e+01
7.593469e+01	-1.576423e+01
7.637328e+01	-1.581248e+01
7.681441e+01	-1.586286e+01
7.725809e+01	-1.591133e+01
7.770433e+01	-1.596060e+01
7.815315e+01	-1.600799e+01
7.860456e+01	-1.605738e+01
7.905857e+01	-1.610684e+01
7.951521e+01	-1.615545e+01
7.997449e+01	-1.620440e+01
8.043642e+01	-1.625317e+01
8.090102e+01	-1.630161e+01
8.136830e+01	-1.635078e+01
8.183828e+01	-1.639990e+01
8.231097e+01	-1.644762e+01
8.278640e+01	-1.649736e+01
8.326457e+01	-1.654583e+01
8.374550e+01	-1.659452e+01
8.422921e+01	-1.664362e+01
8.471572e+01	-1.669300e+01
8.520503e+01	-1.674111e+01
8.569717e+01	-1.679132e+01
8.619215e+01	-1.684018e+01
8.669000e+01	-1.688944e+01
8.719071e+01	-1.693820e+01
8.769432e+01	-1.698727e+01
8.820084e+01	-1.703684e+01
8.871029e+01	-1.708505e+01
8.922267e+01	-1.713510e+01
8.973802e+01	-1.718194e+01
9.025634e+01	-1.723298e+01
9.077766e+01	-1.728098e+01
9.130199e+01	-1.733109e+01
9.182935e+01	-1.737976e+01
9.235975e+01	-1.742836e+01
9.289321e+01	-1.747819e+01
9.342976e+01	-1.752736e+01
9.396941e+01	-1.757629e+01
9.451217e+01	-1.762489e+01
9.505807e+01	-1.767589e+01
9.560712e+01	-1.772417e+01
9.615934e+01	-1.777330e+01
9.671476e+01	-1.782153e+01
9.727338e+01	-1.787107e+01
9.783522e+01	-1.792037e+01
9.840032e+01	-1.796957e+01
9.896867e+01	-1.801899e+01
9.954031e+01	-1.806834e+01
1.001153e+02	-1.811814e+01
1.006935e+02	-1.816698e+01
1.012751e+02	-1.821676e+01
1.018601e+02	-1.826579e+01
1.024484e+02	-1.831615e+01
1.030402e+02	-1.836419e+01
1.036353e+02	-1.841156e+01
1.042339e+02	-1.846334e+01
1.048360e+02	-1.851193e+01
1.054415e+02	-1.856177e+01
1.060505e+02	-1.861120e+01
1.066631e+02	-1.866096e+01
1.072791e+02	-1.870904e+01
1.078988e+02	-1.875875e+01
1.085220e+02	-1.880734e+01
1.091488e+02	-1.885696e+01
1.097793e+02	-1.890725e+01
1.104133e+02	-1.895673e+01
1.110511e+02	-1.900399e+01
1.116925e+02	-1.905600e+01
1.123376e+02	-1.910364e+01
1.129865e+02	-1.915382e+01
1.136391e+02	-1.920250e+01
1.142955e+02	-1.925258e+01
1.149556e+02	-1.930242e+01
1.156196e+02	-1.935115e+01
1.162874e+02	-1.940200e+01
1.169591e+02	-1.945033e+01
1.176347e+02	-1.950107e+01
1.183141e+02	-1.954929e+01
1.189975e+02	-1.959855e+01
1.196848e+02	-1.964883e+01
1.203761e+02	-1.969756e+01
1.210714e+02	-1.974788e+01
1.217707e+02	-1.979716e+01
1.224740e+02	-1.984682e+01
1.231814e+02	-1.989485e+01
1.238929e+02	-1.994537e+01
1.246085e+02	-1.999329e+01
1.253283e+02	-2.004565e+01
1.260522e+02	-2.009430e+01
1.267802e+02	-2.014303e+01
1.275125e+02	-2.019415e+01
1.282490e+02	-2.024224e+01
1.289898e+02	-2.029337e+01
1.297348e+02	-2.033978e+01
1.304842e+02	-2.039044e+01
1.312378e+02	-2.044069e+01
1.319959e+02	-2.049000e+01
1.327583e+02	-2.053943e+01
1.335251e+02	-2.059131e+01
1.342963e+02	-2.063854e+01
1.350720e+02	-2.068748e+01
1.358522e+02	-2.073859e+01
1.366368e+02	-2.078728e+01
1.374260e+02	-2.083884e+01
1.382198e+02	-2.088740e+01
1.390182e+02	-2.093904e+01
1.398211e+02	-2.098878e+01
1.406287e+02	-2.103543e+01
1.414410e+02	-2.108591e+01
1.422579e+02	-2.113667e+01
1.430796e+02	-2.118692e+01
1.439060e+02	-2.123501e+01
1.447372e+02	-2.128557e+01
1.455732e+02	-2.133578e+01
1.464141e+02	-2.138476e+01
1.472597e+02	-2.143344e+01
1.481103e+02	-2.148202e+01
1.489658e+02	-2.153422e+01
1.498262e+02	-2.158171e+01
1.506916e+02	-2.163182e+01
1.515620e+02	-2.168128e+01
1.524374e+02	-2.172982e+01
1.533179e+02	-2.178388e+01
1.542034e+02	-2.183071e+01
1.550941e+02	-2.188124e+01
1.559899e+02	-2.193093e+01
1.568909e+02	-2.198019e+01
1.577971e+02	-2.203127e+01
1.587085e+02	-2.207870e+01
1.596252e+02	-2.212973e+01
1.605472e+02	-2.217885e+01
1.614745e+02	-2.222977e+01
1.624072e+02	-2.227924e+01
1.633453e+02	-2.232998e+01
1.642887e+02	-2.237808e+01
1.652377e+02	-2.242832e+01
1.661921e+02	-2.247875e+01
1.671520e+02	-2.252782e+01
1.681175e+02	-2.257942e+01
1.690885e+02	-2.262791e+01
1.700651e+02	-2.267615e+01
1.710474e+02	-2.272629e+01
1.720354e+02	-2.277845e+01
1.730291e+02	-2.282999e+01
1.740285e+02	-2.287444e+01
1.750337e+02	-2.292675e+01
1.760446e+02	-2.297581e+01
1.770615e+02	-2.302570e+01
1.780842e+02	-2.307574e+01
1.791128e+02	-2.312696e+01
1.801473e+02	-2.317585e+01
1.811878e+02	-2.322372e+01
1.822344e+02	-2.327227e+01
1.832870e+02	-2.332323e+01
1.843456e+02	-2.337478e+01
1.854104e+02	-2.342478e+01
1.864813e+02	-2.347258e+01
1.875584e+02	-2.352564e+01
1.886418e+02	-2.357326e+01
1.897313e+02	-2.362061e+01
1.908272e+02	-2.367116e+01
1.919294e+02	-2.372294e+01
1.930380e+02	-2.376970e+01
1.941530e+02	-2.382117e+01
1.952744e+02	-2.387079e+01
1.964023e+02	-2.392247e+01
1.975367e+02	-2.397313e+01
1.986777e+02	-2.402187e+01
1.998252e+02	-2.406994e+01
2.009794e+02	-2.412223e+01
2.021403e+02	-2.417299e+01
2.033078e+02	-2.422311e+01
2.044821e+02	-2.427295e+01
2.056632e+02	-2.432178e+01
2.068511e+02	-2.437128e+01
2.080459e+02	-2.442102e+01
2.092475e+02	-2.447092e+01
2.104561e+02	-2.452100e+01
2.116717e+02	-2.457005e+01
2.128943e+02	-2.461945e+01
2.141240e+02	-2.466992e+01
2.153608e+02	-2.471998e+01
2.166047e+02	-2.477129e+01
2.178558e+02	-2.482119e+01
2.191141e+02	-2.487295e+01
2.203797e+02	-2.492036e+01
2.216526e+02	-2.496893e+01
2.229329e+02	-2.501798e+01
2.242205e+02	-2.506690e+01
2.255156e+02	-2.511781e+01
2.268182e+02	-2.517247e+01
2.281283e+02	-2.522101e+01
2.294459e+02	-2.526749e+01
2.307712e+02	-2.531693e+01
2.321041e+02	-2.536770e+01
2.334447e+02	-2.541883e+01
2.347931e+02	-2.546563e+01
2.361493e+02	-2.551952e+01
2.375133e+02	-2.557287e+01
2.388851e+02	-2.562016e+01
2.402649e+02	-2.566694e+01
2.416527e+02	-2.571747e+01
2.430484e+02	-2.576775e+01
2.444523e+02	-2.581851e+01
2.458642e+02	-2.586951e+01
2.472843e+02	-2.591859e+01
2.487126e+02	-2.596551e+01
2.501492e+02	-2.601858e+01
2.515940e+02	-2.606952e+01
2.530472e+02	-2.611927e+01
2.545088e+02	-2.616688e+01
2.559789e+02	-2.621761e+01
2.574574e+02	-2.626775e+01
2.589444e+02	-2.631645e+01
2.604401e+02	-2.636818e+01
2.619444e+02	-2.641737e+01
2.634574e+02	-2.646507e+01
2.649791e+02	-2.651670e+01
2.665096e+02	-2.656414e+01
2.680489e+02	-2.661986e+01
2.695972e+02	-2.667102e+01
2.711544e+02	-2.671984e+01
2.727205e+02	-2.676787e+01
2.742958e+02	-2.682009e+01
2.758801e+02	-2.687123e+01
2.774736e+02	-2.691284e+01
2.790762e+02	-2.696784e+01
2.806882e+02	-2.701738e+01
2.823094e+02	-2.706850e+01
2.839400e+02	-2.711605e+01
2.855800e+02	-2.716813e+01
2.872295e+02	-2.721552e+01
2.888886e+02	-2.726651e+01
2.905572e+02	-2.731799e+01
2.922354e+02	-2.736820e+01
2.939234e+02	-2.741685e+01
2.956211e+02	-2.746638e+01
2.973286e+02	-2.751546e+01
2.990459e+02	-2.756730e+01
3.007732e+02	-2.762021e+01
3.025104e+02	-2.766876e+01
3.042577e+02	-2.771596e+01
3.060151e+02	-2.776827e+01
3.077826e+02	-2.781794e+01
3.095604e+02	-2.786780e+01
3.113484e+02	-2.792263e+01
3.131467e+02	-2.797089e+01
3.149554e+02	-2.801429e+01
3.167746e+02	-2.806900e+01
3.186043e+02	-2.812049e+01
3.204445e+02	-2.816959e+01
3.222954e+02	-2.821771e+01
3.241570e+02	-2.826515e+01
3.260293e+02	-2.831691e+01
3.279124e+02	-2.836919e+01
3.298064e+02	-2.841730e+01
3.317114e+02	-2.846889e+01
3.336273e+02	-2.851927e+01
3.355544e+02	-2.856720e+01
3.374925e+02	-2.861637e+01
3.394418e+02	-2.866718e+01
3.414024e+02	-2.871878e+01
3.433744e+02	-2.876383e+01
3.453577e+02	-2.881732e+01
3.473525e+02	-2.887001e+01
3.493588e+02	-2.891732e+01
3.513766e+02	-2.896810e+01
3.534062e+02	-2.901999e+01
3.554474e+02	-2.906836e+01
3.575005e+02	-2.911790e+01
3.595654e+02	-2.917019e+01
3.616422e+02	-2.921729e+01
3.637311e+02	-2.927105e+01
3.658320e+02	-2.932457e+01
3.679450e+02	-2.936861e+01
3.700702e+02	-2.941713e+01
3.722077e+02	-2.947297e+01
3.743576e+02	-2.952003e+01
3.765199e+02	-2.956603e+01
3.786946e+02	-2.962057e+01
3.808820e+02	-2.966564e+01
3.830819e+02	-2.971872e+01
3.852946e+02	-2.977277e+01
3.875200e+02	-2.981897e+01
3.897583e+02	-2.987156e+01
3.920096e+02	-2.991973e+01
3.942738e+02	-2.997056e+01
3.965511e+02	-3.001616e+01
3.988416e+02	-3.006929e+01
4.011452e+02	-3.011920e+01
4.034622e+02	-3.016981e+01
4.057926e+02	-3.022012e+01
4.081365e+02	-3.026491e+01
4.104938e+02	-3.031923e+01
4.128648e+02	-3.037151e+01
4.152495e+02	-3.042365e+01
4.176480e+02	-3.046998e+01
4.200603e+02	-3.052113e+01
4.224866e+02	-3.057597e+01
4.249268e+02	-3.062082e+01
4.273812e+02	-3.066911e+01
4.298497e+02	-3.071943e+01
4.323325e+02	-3.076796e+01
4.348297e+02	-3.082158e+01
4.373412e+02	-3.087041e+01
4.398673e+02	-3.092760e+01
4.424079e+02	-3.097168e+01
4.449633e+02	-3.101611e+01
4.475334e+02	-3.106920e+01
4.501183e+02	-3.111801e+01
4.527182e+02	-3.116828e+01
4.553330e+02	-3.122520e+01
4.579630e+02	-3.127037e+01
4.606082e+02	-3.132629e+01
4.632687e+02	-3.137152e+01
4.659445e+02	-3.142395e+01
4.686358e+02	-3.147291e+01
4.713426e+02	-3.152341e+01
4.740650e+02	-3.157877e+01
4.768032e+02	-3.162565e+01
4.795572e+02	-3.167452e+01
4.823271e+02	-3.171983e+01
4.851130e+02	-3.177546e+01
4.879150e+02	-3.182507e+01
4.907332e+02	-3.187775e+01
4.935676e+02	-3.192499e+01
4.964185e+02	-3.198043e+01
4.992858e+02	-3.202803e+01
5.021696e+02	-3.208007e+01
5.050701e+02	-3.212299e+01
5.079874e+02	-3.218237e+01
5.109215e+02	-3.222695e+01
5.138726e+02	-3.227607e+01
5.168407e+02	-3.232181e+01
5.198259e+02	-3.237639e+01
5.228284e+02	-3.243001e+01
5.258482e+02	-3.247993e+01
5.288855e+02	-3.252450e+01
5.319403e+02	-3.257874e+01
5.350128e+02	-3.262625e+01
5.381030e+02	-3.267254e+01
5.412111e+02	-3.272552e+01
5.443371e+02	-3.278093e+01
5.474812e+02	-3.283326e+01
5.506434e+02	-3.288757e+01
5.538239e+02	-3.293134e+01
5.570228e+02	-3.298017e+01
5.602401e+02	-3.303125e+01
5.634760e+02	-3.308681e+01
5.667306e+02	-3.312864e+01
5.700040e+02	-3.317986e+01
5.732964e+02	-3.323413e+01
5.766077e+02	-3.328041e+01
5.799382e+02	-3.332859e+01
5.832879e+02	-3.337895e+01
5.866569e+02	-3.343602e+01
5.900454e+02	-3.347771e+01
5.934535e+02	-3.353499e+01
5.968813e+02	-3.358119e+01
6.003288e+02	-3.363325e+01
6.037963e+02	-3.368658e+01
6.072838e+02	-3.373725e+01
6.107914e+02	-3.378244e+01
6.143194e+02	-3.383119e+01
6.178676e+02	-3.388721e+01
6.214364e+02	-3.393993e+01
6.250258e+02	-3.397828e+01
6.286359e+02	-3.403645e+01
6.322669e+02	-3.408079e+01
6.359189e+02	-3.413641e+01
6.395919e+02	-3.417853e+01
6.432862e+02	-3.423958e+01
6.470017e+02	-3.428815e+01
6.507388e+02	-3.433505e+01
6.544974e+02	-3.438804e+01
6.582778e+02	-3.443891e+01
6.620800e+02	-3.448644e+01
6.659041e+02	-3.453625e+01
6.697504e+02	-3.459063e+01
6.736188e+02	-3.463477e+01
6.775096e+02	-3.468391e+01
6.814229e+02	-3.474020e+01
6.853587e+02	-3.478524e+01
6.893173e+02	-3.484313e+01
6.932988e+02	-3.488260e+01
6.973033e+02	-3.493955e+01
7.013309e+02	-3.498184e+01
