Frequency(Hz)	Magnitude(dB)
1.000000e+01	-1.430687e-05
1.005776e+01	-1.447262e-05
1.011585e+01	-1.464029e-05
1.017428e+01	-1.480990e-05
1.023305e+01	-1.498148e-05
1.029215e+01	-1.515504e-05
1.035160e+01	-1.533061e-05
1.041139e+01	-1.550822e-05
1.047153e+01	-1.568789e-05
1.053201e+01	-1.586964e-05
1.059284e+01	-1.605349e-05
1.065403e+01	-1.623948e-05
1.071556e+01	-1.642761e-05
1.077746e+01	-1.661793e-05
1.083971e+01	-1.681046e-05
1.090232e+01	-1.700521e-05
1.096529e+01	-1.720222e-05
1.102862e+01	-1.740151e-05
1.109232e+01	-1.760311e-05
1.115639e+01	-1.780705e-05
1.122083e+01	-1.801335e-05
1.128564e+01	-1.822204e-05
1.135083e+01	-1.843314e-05
1.141639e+01	-1.864670e-05
1.148233e+01	-1.886272e-05
1.154865e+01	-1.908125e-05
1.161536e+01	-1.930231e-05
1.168245e+01	-1.952594e-05
1.174992e+01	-1.975215e-05
1.181779e+01	-1.998098e-05
1.188605e+01	-2.021247e-05
1.195470e+01	-2.044663e-05
1.202375e+01	-2.068351e-05
1.209320e+01	-2.092314e-05
1.216305e+01	-2.116554e-05
1.223330e+01	-2.141075e-05
1.230396e+01	-2.165879e-05
1.237503e+01	-2.190972e-05
1.244651e+01	-2.216355e-05
1.251840e+01	-2.242032e-05
1.259070e+01	-2.268006e-05
1.266343e+01	-2.294282e-05
1.273657e+01	-2.320861e-05
1.281014e+01	-2.347749e-05
1.288413e+01	-2.374948e-05
1.295855e+01	-2.402463e-05
1.303339e+01	-2.430296e-05
1.310867e+01	-2.458451e-05
1.318439e+01	-2.486933e-05
1.326054e+01	-2.515745e-05
1.333713e+01	-2.544890e-05
1.341417e+01	-2.574374e-05
1.349165e+01	-2.604198e-05
1.356958e+01	-2.634369e-05
1.364795e+01	-2.664889e-05
1.372678e+01	-2.695762e-05
1.380607e+01	-2.726993e-05
1.388581e+01	-2.758586e-05
1.396602e+01	-2.790545e-05
1.404668e+01	-2.822874e-05
1.412782e+01	-2.855578e-05
1.420942e+01	-2.888660e-05
1.429149e+01	-2.922126e-05
1.437404e+01	-2.955979e-05
1.445706e+01	-2.990225e-05
1.454057e+01	-3.024868e-05
1.462455e+01	-3.059911e-05
1.470902e+01	-3.095361e-05
1.479398e+01	-3.131222e-05
1.487943e+01	-3.167498e-05
1.496537e+01	-3.204194e-05
1.505181e+01	-3.241315e-05
1.513875e+01	-3.278867e-05
1.522619e+01	-3.316853e-05
1.531414e+01	-3.355280e-05
1.540259e+01	-3.394151e-05
1.549156e+01	-3.433473e-05
1.558103e+01	-3.473251e-05
1.567103e+01	-3.513489e-05
1.576155e+01	-3.554194e-05
1.585258e+01	-3.595370e-05
1.594415e+01	-3.637023e-05
1.603624e+01	-3.679159e-05
1.612886e+01	-3.721783e-05
1.622202e+01	-3.764901e-05
1.631572e+01	-3.808518e-05
1.640996e+01	-3.852641e-05
1.650474e+01	-3.897274e-05
1.660008e+01	-3.942425e-05
1.669596e+01	-3.988099e-05
1.679239e+01	-4.034302e-05
1.688938e+01	-4.081040e-05
1.698694e+01	-4.128320e-05
1.708505e+01	-4.176148e-05
1.718373e+01	-4.224529e-05
1.728299e+01	-4.273471e-05
1.738281e+01	-4.322980e-05
1.748322e+01	-4.373063e-05
1.758420e+01	-4.423726e-05
1.768576e+01	-4.474976e-05
1.778792e+01	-4.526819e-05
1.789066e+01	-4.579264e-05
1.799399e+01	-4.632315e-05
1.809793e+01	-4.685982e-05
1.820246e+01	-4.740270e-05
1.830760e+01	-4.795187e-05
1.841334e+01	-4.850740e-05
1.851969e+01	-4.906937e-05
1.862666e+01	-4.963785e-05
1.873425e+01	-5.021291e-05
1.884246e+01	-5.079464e-05
1.895129e+01	-5.138311e-05
1.906075e+01	-5.197839e-05
1.917085e+01	-5.258057e-05
1.928158e+01	-5.318973e-05
1.939295e+01	-5.380594e-05
1.950496e+01	-5.442930e-05
1.961762e+01	-5.505987e-05
1.973093e+01	-5.569775e-05
1.984490e+01	-5.634302e-05
1.995952e+01	-5.699577e-05
2.007480e+01	-5.765607e-05
2.019076e+01	-5.832403e-05
2.030738e+01	-5.899973e-05
2.042467e+01	-5.968325e-05
2.054264e+01	-6.037469e-05
2.066130e+01	-6.107415e-05
2.078064e+01	-6.178170e-05
2.090066e+01	-6.249745e-05
2.102139e+01	-6.322150e-05
2.114280e+01	-6.395393e-05
2.126492e+01	-6.469485e-05
2.138775e+01	-6.544435e-05
2.151128e+01	-6.620254e-05
2.163553e+01	-6.696951e-05
2.176050e+01	-6.774536e-05
2.188619e+01	-6.853021e-05
2.201260e+01	-6.932414e-05
2.213974e+01	-7.012727e-05
2.226762e+01	-7.093971e-05
2.239624e+01	-7.176156e-05
2.252560e+01	-7.259293e-05
2.265571e+01	-7.343393e-05
2.278656e+01	-7.428468e-05
2.291818e+01	-7.514528e-05
2.305055e+01	-7.601585e-05
2.318369e+01	-7.689651e-05
2.331760e+01	-7.778737e-05
2.345228e+01	-7.868855e-05
2.358774e+01	-7.960017e-05
2.372398e+01	-8.052235e-05
2.386101e+01	-8.145522e-05
2.399883e+01	-8.239889e-05
2.413745e+01	-8.335350e-05
2.427686e+01	-8.431916e-05
2.441709e+01	-8.529601e-05
2.455812e+01	-8.628418e-05
2.469997e+01	-8.728380e-05
2.484263e+01	-8.829499e-05
2.498612e+01	-8.931790e-05
2.513044e+01	-9.035267e-05
2.527559e+01	-9.139942e-05
2.542158e+01	-9.245829e-05
2.556842e+01	-9.352944e-05
2.571610e+01	-9.461299e-05
2.586463e+01	-9.570909e-05
2.601403e+01	-9.681790e-05
2.616428e+01	-9.793955e-05
2.631541e+01	-9.907419e-05
2.646740e+01	-1.002220e-04
2.662028e+01	-1.013831e-04
2.677404e+01	-1.025576e-04
2.692868e+01	-1.037457e-04
2.708422e+01	-1.049477e-04
2.724066e+01	-1.061635e-04
2.739800e+01	-1.073934e-04
2.755625e+01	-1.086376e-04
2.771541e+01	-1.098962e-04
2.787550e+01	-1.111693e-04
2.803650e+01	-1.124572e-04
2.819844e+01	-1.137601e-04
2.836131e+01	-1.150780e-04
2.852513e+01	-1.164112e-04
2.868989e+01	-1.177598e-04
2.885560e+01	-1.191241e-04
2.902227e+01	-1.205041e-04
2.918990e+01	-1.219002e-04
2.935850e+01	-1.233124e-04
2.952807e+01	-1.247410e-04
2.969863e+01	-1.261862e-04
2.987016e+01	-1.276480e-04
3.004269e+01	-1.291269e-04
3.021622e+01	-1.306228e-04
3.039075e+01	-1.321361e-04
3.056628e+01	-1.336669e-04
3.074283e+01	-1.352154e-04
3.092040e+01	-1.367819e-04
3.109900e+01	-1.383665e-04
3.127862e+01	-1.399695e-04
3.145929e+01	-1.415911e-04
3.164099e+01	-1.432314e-04
3.182375e+01	-1.448908e-04
3.200756e+01	-1.465694e-04
3.219244e+01	-1.482674e-04
3.237838e+01	-1.499851e-04
3.256540e+01	-1.517227e-04
3.275349e+01	-1.534804e-04
3.294268e+01	-1.552585e-04
3.313295e+01	-1.570571e-04
3.332433e+01	-1.588767e-04
3.351681e+01	-1.607173e-04
3.371040e+01	-1.625792e-04
3.390511e+01	-1.644627e-04
3.410094e+01	-1.663680e-04
3.429791e+01	-1.682953e-04
3.449601e+01	-1.702451e-04
3.469526e+01	-1.722174e-04
3.489566e+01	-1.742125e-04
3.509721e+01	-1.762308e-04
3.529993e+01	-1.782724e-04
3.550382e+01	-1.803377e-04
3.570889e+01	-1.824269e-04
3.591515e+01	-1.845403e-04
3.612259e+01	-1.866782e-04
3.633123e+01	-1.888409e-04
3.654108e+01	-1.910286e-04
3.675214e+01	-1.932417e-04
3.696442e+01	-1.954804e-04
3.717792e+01	-1.977451e-04
3.739266e+01	-2.000359e-04
3.760864e+01	-2.023534e-04
3.782587e+01	-2.046976e-04
3.804435e+01	-2.070690e-04
3.826409e+01	-2.094679e-04
3.848510e+01	-2.118946e-04
3.870739e+01	-2.143494e-04
3.893096e+01	-2.168327e-04
3.915583e+01	-2.193447e-04
3.938199e+01	-2.218858e-04
3.960946e+01	-2.244563e-04
3.983824e+01	-2.270566e-04
4.006834e+01	-2.296871e-04
4.029978e+01	-2.323480e-04
4.053255e+01	-2.350397e-04
4.076666e+01	-2.377627e-04
4.100213e+01	-2.405171e-04
4.123896e+01	-2.433035e-04
4.147715e+01	-2.461222e-04
4.171672e+01	-2.489735e-04
4.195767e+01	-2.518578e-04
4.220002e+01	-2.547756e-04
4.244377e+01	-2.577271e-04
4.268892e+01	-2.607129e-04
4.293549e+01	-2.637332e-04
4.318348e+01	-2.667886e-04
4.343291e+01	-2.698793e-04
4.368377e+01	-2.730058e-04
4.393609e+01	-2.761686e-04
4.418986e+01	-2.793680e-04
4.444510e+01	-2.826044e-04
4.470182e+01	-2.858783e-04
4.496001e+01	-2.891902e-04
4.521970e+01	-2.925404e-04
4.548089e+01	-2.959295e-04
4.574358e+01	-2.993578e-04
4.600779e+01	-3.028258e-04
4.627353e+01	-3.063340e-04
4.654081e+01	-3.098829e-04
4.680963e+01	-3.134728e-04
4.708000e+01	-3.171043e-04
4.735193e+01	-3.207780e-04
4.762543e+01	-3.244941e-04
4.790051e+01	-3.282533e-04
4.817719e+01	-3.320561e-04
4.845545e+01	-3.359029e-04
4.873533e+01	-3.397943e-04
4.901682e+01	-3.437307e-04
4.929994e+01	-3.477128e-04
4.958470e+01	-3.517410e-04
4.987110e+01	-3.558158e-04
5.015915e+01	-3.599379e-04
5.044887e+01	-3.641077e-04
5.074026e+01	-3.683258e-04
5.103333e+01	-3.725928e-04
5.132810e+01	-3.769092e-04
5.162457e+01	-3.812756e-04
5.192275e+01	-3.856926e-04
5.222265e+01	-3.901607e-04
5.252429e+01	-3.946806e-04
5.282767e+01	-3.992529e-04
5.313280e+01	-4.038781e-04
5.343969e+01	-4.085570e-04
5.374836e+01	-4.132900e-04
5.405880e+01	-4.180778e-04
5.437105e+01	-4.229211e-04
5.468509e+01	-4.278206e-04
5.500095e+01	-4.327767e-04
5.531863e+01	-4.377903e-04
5.563815e+01	-4.428620e-04
5.595951e+01	-4.479924e-04
5.628273e+01	-4.531822e-04
5.660782e+01	-4.584322e-04
5.693479e+01	-4.637430e-04
5.726364e+01	-4.691153e-04
5.759439e+01	-4.745498e-04
5.792705e+01	-4.800473e-04
5.826164e+01	-4.856085e-04
5.859815e+01	-4.912341e-04
5.893662e+01	-4.969248e-04
5.927703e+01	-5.026815e-04
5.961941e+01	-5.085049e-04
5.996377e+01	-5.143957e-04
6.031012e+01	-5.203547e-04
6.065847e+01	-5.263828e-04
6.100883e+01	-5.324808e-04
6.136121e+01	-5.386493e-04
6.171563e+01	-5.448893e-04
6.207210e+01	-5.512016e-04
6.243063e+01	-5.575870e-04
6.279122e+01	-5.640464e-04
6.315390e+01	-5.705806e-04
6.351868e+01	-5.771905e-04
6.388556e+01	-5.838770e-04
6.425456e+01	-5.906409e-04
6.462569e+01	-5.974831e-04
6.499897e+01	-6.044047e-04
6.537440e+01	-6.114064e-04
6.575200e+01	-6.184892e-04
6.613178e+01	-6.256540e-04
6.651375e+01	-6.329019e-04
6.689793e+01	-6.402337e-04
6.728433e+01	-6.476504e-04
6.767297e+01	-6.551530e-04
6.806384e+01	-6.627426e-04
6.845698e+01	-6.704201e-04
6.885238e+01	-6.781864e-04
6.925007e+01	-6.860428e-04
6.965005e+01	-6.939902e-04
7.005235e+01	-7.020296e-04
7.045697e+01	-7.101621e-04
7.086393e+01	-7.183889e-04
7.127323e+01	-7.267109e-04
7.168490e+01	-7.351293e-04
7.209895e+01	-7.436453e-04
7.251539e+01	-7.522599e-04
7.293424e+01	-7.609742e-04
7.335551e+01	-7.697895e-04
7.377920e+01	-7.787070e-04
7.420535e+01	-7.877277e-04
7.463396e+01	-7.968529e-04
7.506504e+01	-8.060838e-04
7.549861e+01	-8.154216e-04
7.593469e+01	-8.248676e-04
7.637328e+01	-8.344230e-04
7.681441e+01	-8.440891e-04
7.725809e+01	-8.538671e-04
7.770433e+01	-8.637584e-04
7.815315e+01	-8.737643e-04
7.860456e+01	-8.838861e-04
7.905857e+01	-8.941251e-04
7.951521e+01	-9.044827e-04
7.997449e+01	-9.149602e-04
8.043642e+01	-9.255592e-04
8.090102e+01	-9.362809e-04
8.136830e+01	-9.471268e-04
8.183828e+01	-9.580983e-04
8.231097e+01	-9.691969e-04
8.278640e+01	-9.804240e-04
8.326457e+01	-9.917812e-04
8.374550e+01	-1.003270e-03
8.422921e+01	-1.014892e-03
8.471572e+01	-1.026648e-03
8.520503e+01	-1.038541e-03
8.569717e+01	-1.050571e-03
8.619215e+01	-1.062741e-03
8.669000e+01	-1.075051e-03
8.719071e+01	-1.087504e-03
8.769432e+01	-1.100102e-03
8.820084e+01	-1.112845e-03
8.871029e+01	-1.125736e-03
8.922267e+01	-1.138776e-03
8.973802e+01	-1.151968e-03
9.025634e+01	-1.165312e-03
9.077766e+01	-1.178810e-03
9.130199e+01	-1.192465e-03
9.182935e+01	-1.206279e-03
9.235975e+01	-1.220252e-03
9.289321e+01	-1.234387e-03
9.342976e+01	-1.248685e-03
9.396941e+01	-1.263149e-03
9.451217e+01	-1.277781e-03
9.505807e+01	-1.292582e-03
9.560712e+01	-1.307555e-03
9.615934e+01	-1.322701e-03
9.671476e+01	-1.338023e-03
9.727338e+01	-1.353522e-03
9.783522e+01	-1.369200e-03
9.840032e+01	-1.385060e-03
9.896867e+01	-1.401104e-03
9.954031e+01	-1.417333e-03
1.001153e+02	-1.433751e-03
1.006935e+02	-1.450358e-03
1.012751e+02	-1.467158e-03
1.018601e+02	-1.484153e-03
1.024484e+02	-1.501344e-03
1.030402e+02	-1.518735e-03
1.036353e+02	-1.536326e-03
1.042339e+02	-1.554122e-03
1.048360e+02	-1.572124e-03
1.054415e+02	-1.590334e-03
1.060505e+02	-1.608755e-03
1.066631e+02	-1.627389e-03
1.072791e+02	-1.646239e-03
1.078988e+02	-1.665308e-03
1.085220e+02	-1.684597e-03
1.091488e+02	-1.704110e-03
1.097793e+02	-1.723848e-03
1.104133e+02	-1.743816e-03
1.110511e+02	-1.764014e-03
1.116925e+02	-1.784447e-03
1.123376e+02	-1.805115e-03
1.129865e+02	-1.826024e-03
1.136391e+02	-1.847174e-03
1.142955e+02	-1.868570e-03
1.149556e+02	-1.890213e-03
1.156196e+02	-1.912107e-03
1.162874e+02	-1.934254e-03
1.169591e+02	-1.956658e-03
1.176347e+02	-1.979321e-03
1.183141e+02	-2.002247e-03
1.189975e+02	-2.025438e-03
1.196848e+02	-2.048898e-03
1.203761e+02	-2.072629e-03
1.210714e+02	-2.096635e-03
1.217707e+02	-2.120919e-03
1.224740e+02	-2.145485e-03
1.231814e+02	-2.170334e-03
1.238929e+02	-2.195472e-03
1.246085e+02	-2.220900e-03
1.253283e+02	-2.246623e-03
1.260522e+02	-2.272644e-03
1.267802e+02	-2.298967e-03
1.275125e+02	-2.325594e-03
1.282490e+02	-2.352529e-03
1.289898e+02	-2.379776e-03
1.297348e+02	-2.407339e-03
1.304842e+02	-2.435221e-03
1.312378e+02	-2.463425e-03
1.319959e+02	-2.491957e-03
1.327583e+02	-2.520818e-03
1.335251e+02	-2.550014e-03
1.342963e+02	-2.579548e-03
1.350720e+02	-2.609423e-03
1.358522e+02	-2.639645e-03
1.366368e+02	-2.670217e-03
1.374260e+02	-2.701142e-03
1.382198e+02	-2.732426e-03
1.390182e+02	-2.764072e-03
1.398211e+02	-2.796084e-03
1.406287e+02	-2.828466e-03
1.414410e+02	-2.861224e-03
1.422579e+02	-2.894361e-03
1.430796e+02	-2.927882e-03
1.439060e+02	-2.961790e-03
1.447372e+02	-2.996092e-03
1.455732e+02	-3.030790e-03
1.464141e+02	-3.065890e-03
1.472597e+02	-3.101397e-03
1.481103e+02	-3.137314e-03
1.489658e+02	-3.173647e-03
1.498262e+02	-3.210401e-03
1.506916e+02	-3.247581e-03
1.515620e+02	-3.285191e-03
1.524374e+02	-3.323236e-03
1.533179e+02	-3.361721e-03
1.542034e+02	-3.400653e-03
1.550941e+02	-3.440034e-03
1.559899e+02	-3.479872e-03
1.568909e+02	-3.520171e-03
1.577971e+02	-3.560936e-03
1.587085e+02	-3.602173e-03
1.596252e+02	-3.643888e-03
1.605472e+02	-3.686085e-03
1.614745e+02	-3.728771e-03
1.624072e+02	-3.771951e-03
1.633453e+02	-3.815631e-03
1.642887e+02	-3.859817e-03
1.652377e+02	-3.904513e-03
1.661921e+02	-3.949728e-03
1.671520e+02	-3.995465e-03
1.681175e+02	-4.041732e-03
1.690885e+02	-4.088534e-03
1.700651e+02	-4.135878e-03
1.710474e+02	-4.183771e-03
1.720354e+02	-4.232217e-03
1.730291e+02	-4.281224e-03
1.740285e+02	-4.330798e-03
1.750337e+02	-4.380946e-03
1.760446e+02	-4.431675e-03
1.770615e+02	-4.482990e-03
1.780842e+02	-4.534900e-03
1.791128e+02	-4.587410e-03
1.801473e+02	-4.640528e-03
1.811878e+02	-4.694260e-03
1.822344e+02	-4.748615e-03
1.832870e+02	-4.803598e-03
1.843456e+02	-4.859218e-03
1.854104e+02	-4.915481e-03
1.864813e+02	-4.972396e-03
1.875584e+02	-5.029969e-03
1.886418e+02	-5.088208e-03
1.897313e+02	-5.147121e-03
1.908272e+02	-5.206716e-03
1.919294e+02	-5.267001e-03
1.930380e+02	-5.327983e-03
1.941530e+02	-5.389670e-03
1.952744e+02	-5.452072e-03
1.964023e+02	-5.515195e-03
1.975367e+02	-5.579049e-03
1.986777e+02	-5.643641e-03
1.998252e+02	-5.708981e-03
2.009794e+02	-5.775077e-03
2.021403e+02	-5.841938e-03
2.033078e+02	-5.909572e-03
2.044821e+02	-5.977989e-03
2.056632e+02	-6.047197e-03
2.068511e+02	-6.117206e-03
2.080459e+02	-6.188024e-03
2.092475e+02	-6.259662e-03
2.104561e+02	-6.332129e-03
2.116717e+02	-6.405434e-03
2.128943e+02	-6.479587e-03
2.141240e+02	-6.554598e-03
2.153608e+02	-6.630477e-03
2.166047e+02	-6.707233e-03
2.178558e+02	-6.784877e-03
2.191141e+02	-6.863419e-03
2.203797e+02	-6.942870e-03
2.216526e+02	-7.023240e-03
2.229329e+02	-7.104539e-03
2.242205e+02	-7.186778e-03
2.255156e+02	-7.269969e-03
2.268182e+02	-7.354122e-03
2.281283e+02	-7.439248e-03
2.294459e+02	-7.525359e-03
2.307712e+02	-7.612465e-03
2.321041e+02	-7.700579e-03
2.334447e+02	-7.789712e-03
2.347931e+02	-7.879876e-03
2.361493e+02	-7.971082e-03
2.375133e+02	-8.063343e-03
2.388851e+02	-8.156671e-03
2.402649e+02	-8.251078e-03
2.416527e+02	-8.346577e-03
2.430484e+02	-8.443179e-03
2.444523e+02	-8.540899e-03
2.458642e+02	-8.639749e-03
2.472843e+02	-8.739742e-03
2.487126e+02	-8.840890e-03
2.501492e+02	-8.943208e-03
2.515940e+02	-9.046710e-03
2.530472e+02	-9.151407e-03
2.545088e+02	-9.257315e-03
2.559789e+02	-9.364447e-03
2.574574e+02	-9.472818e-03
2.589444e+02	-9.582442e-03
2.604401e+02	-9.693332e-03
2.619444e+02	-9.805505e-03
2.634574e+02	-9.918974e-03
2.649791e+02	-1.003375e-02
2.665096e+02	-1.014986e-02
2.680489e+02	-1.026731e-02
2.695972e+02	-1.038612e-02
2.711544e+02	-1.050630e-02
2.727205e+02	-1.062787e-02
2.742958e+02	-1.075084e-02
2.758801e+02	-1.087523e-02
2.774736e+02	-1.100107e-02
2.790762e+02	-1.112835e-02
2.806882e+02	-1.125711e-02
2.823094e+02	-1.138735e-02
2.839400e+02	-1.151910e-02
2.855800e+02	-1.165238e-02
2.872295e+02	-1.178719e-02
2.888886e+02	-1.192356e-02
2.905572e+02	-1.206150e-02
2.922354e+02	-1.220104e-02
2.939234e+02	-1.234219e-02
2.956211e+02	-1.248497e-02
2.973286e+02	-1.262940e-02
2.990459e+02	-1.277550e-02
3.007732e+02	-1.292329e-02
3.025104e+02	-1.307278e-02
3.042577e+02	-1.322400e-02
3.060151e+02	-1.337697e-02
3.077826e+02	-1.353170e-02
3.095604e+02	-1.368822e-02
3.113484e+02	-1.384655e-02
3.131467e+02	-1.400670e-02
3.149554e+02	-1.416871e-02
3.167746e+02	-1.433259e-02
3.186043e+02	-1.449835e-02
3.204445e+02	-1.466604e-02
3.222954e+02	-1.483565e-02
3.241570e+02	-1.500723e-02
3.260293e+02	-1.518079e-02
3.279124e+02	-1.535635e-02
3.298064e+02	-1.553394e-02
3.317114e+02	-1.571358e-02
3.336273e+02	-1.589529e-02
3.355544e+02	-1.607910e-02
3.374925e+02	-1.626503e-02
3.394418e+02	-1.645310e-02
3.414024e+02	-1.664335e-02
3.433744e+02	-1.683579e-02
3.453577e+02	-1.703045e-02
3.473525e+02	-1.722736e-02
3.493588e+02	-1.742654e-02
3.513766e+02	-1.762802e-02
3.534062e+02	-1.783183e-02
3.554474e+02	-1.803798e-02
3.575005e+02	-1.824652e-02
3.595654e+02	-1.845746e-02
3.616422e+02	-1.867083e-02
3.637311e+02	-1.888666e-02
3.658320e+02	-1.910499e-02
3.679450e+02	-1.932583e-02
3.700702e+02	-1.954922e-02
3.722077e+02	-1.977518e-02
3.743576e+02	-2.000375e-02
3.765199e+02	-2.023496e-02
3.786946e+02	-2.046883e-02
3.808820e+02	-2.070540e-02
3.830819e+02	-2.094470e-02
3.852946e+02	-2.118675e-02
3.875200e+02	-2.143160e-02
3.897583e+02	-2.167927e-02
3.920096e+02	-2.192979e-02
3.942738e+02	-2.218320e-02
3.965511e+02	-2.243953e-02
3.988416e+02	-2.269882e-02
4.011452e+02	-2.296109e-02
4.034622e+02	-2.322639e-02
4.057926e+02	-2.349474e-02
4.081365e+02	-2.376619e-02
4.104938e+02	-2.404076e-02
4.128648e+02	-2.431849e-02
4.152495e+02	-2.459943e-02
4.176480e+02	-2.488360e-02
4.200603e+02	-2.517104e-02
4.224866e+02	-2.546180e-02
4.249268e+02	-2.575590e-02
4.273812e+02	-2.605339e-02
4.298497e+02	-2.635431e-02
4.323325e+02	-2.665869e-02
4.348297e+02	-2.696657e-02
4.373412e+02	-2.727800e-02
4.398673e+02	-2.759302e-02
4.424079e+02	-2.791166e-02
4.449633e+02	-2.823397e-02
4.475334e+02	-2.855999e-02
4.501183e+02	-2.888976e-02
4.527182e+02	-2.922332e-02
4.553330e+02	-2.956072e-02
4.579630e+02	-2.990201e-02
4.606082e+02	-3.024722e-02
4.632687e+02	-3.059640e-02
4.659445e+02	-3.094960e-02
4.686358e+02	-3.130687e-02
4.713426e+02	-3.166824e-02
4.740650e+02	-3.203376e-02
4.768032e+02	-3.240349e-02
4.795572e+02	-3.277748e-02
4.823271e+02	-3.315576e-02
4.851130e+02	-3.353839e-02
4.879150e+02	-3.392541e-02
4.907332e+02	-3.431689e-02
4.935676e+02	-3.471287e-02
4.964185e+02	-3.511339e-02
4.992858e+02	-3.551852e-02
5.021696e+02	-3.592830e-02
5.050701e+02	-3.634280e-02
5.079874e+02	-3.676205e-02
5.109215e+02	-3.718612e-02
5.138726e+02	-3.761506e-02
5.168407e+02	-3.804892e-02
5.198259e+02	-3.848777e-02
5.228284e+02	-3.893165e-02
5.258482e+02	-3.938064e-02
5.288855e+02	-3.983477e-02
5.319403e+02	-4.029412e-02
5.350128e+02	-4.075874e-02
5.381030e+02	-4.122869e-02
5.412111e+02	-4.170404e-02
5.443371e+02	-4.218484e-02
5.474812e+02	-4.267115e-02
5.506434e+02	-4.316304e-02
5.538239e+02	-4.366058e-02
5.570228e+02	-4.416382e-02
5.602401e+02	-4.467283e-02
5.634760e+02	-4.518768e-02
5.667306e+02	-4.570842e-02
5.700040e+02	-4.623514e-02
5.732964e+02	-4.676790e-02
5.766077e+02	-4.730676e-02
5.799382e+02	-4.785179e-02
5.832879e+02	-4.840307e-02
5.866569e+02	-4.896066e-02
5.900454e+02	-4.952464e-02
5.934535e+02	-5.009508e-02
5.968813e+02	-5.067205e-02
6.003288e+02	-5.125563e-02
6.037963e+02	-5.184588e-02
6.072838e+02	-5.244290e-02
6.107914e+02	-5.304674e-02
6.143194e+02	-5.365750e-02
6.178676e+02	-5.427524e-02
6.214364e+02	-5.490005e-02
6.250258e+02	-5.553201e-02
6.286359e+02	-5.617119e-02
6.322669e+02	-5.681769e-02
6.359189e+02	-5.747157e-02
6.395919e+02	-5.813293e-02
6.432862e+02	-5.880185e-02
6.470017e+02	-5.947841e-02
6.507388e+02	-6.016270e-02
6.544974e+02	-6.085481e-02
6.582778e+02	-6.155482e-02
6.620800e+02	-6.226283e-02
6.659041e+02	-6.297893e-02
6.697504e+02	-6.370319e-02
6.736188e+02	-6.443573e-02
6.775096e+02	-6.517662e-02
6.814229e+02	-6.592597e-02
6.853587e+02	-6.668387e-02
6.893173e+02	-6.745042e-02
6.932988e+02	-6.822570e-02
6.973033e+02	-6.900983e-02
7.013309e+02	-6.980289e-02
