Frequency(Hz)	Magnitude(dB)
1.000000e+01	-2.110914e+00
1.005776e+01	-2.130146e+00
1.011585e+01	-2.149850e+00
1.017428e+01	-2.169285e+00
1.023305e+01	-2.189182e+00
1.029215e+01	-2.208988e+00
1.035160e+01	-2.228953e+00
1.041139e+01	-2.249052e+00
1.047153e+01	-2.269207e+00
1.053201e+01	-2.290076e+00
1.059284e+01	-2.310573e+00
1.065403e+01	-2.331066e+00
1.071556e+01	-2.351825e+00
1.077746e+01	-2.372990e+00
1.083971e+01	-2.394151e+00
1.090232e+01	-2.415146e+00
1.096529e+01	-2.436754e+00
1.102862e+01	-2.458177e+00
1.109232e+01	-2.480260e+00
1.115639e+01	-2.501914e+00
1.122083e+01	-2.523754e+00
1.128564e+01	-2.545798e+00
1.135083e+01	-2.568422e+00
1.141639e+01	-2.590621e+00
1.148233e+01	-2.612972e+00
1.154865e+01	-2.635781e+00
1.161536e+01	-2.658533e+00
1.168245e+01	-2.681652e+00
1.174992e+01	-2.704836e+00
1.181779e+01	-2.727861e+00
1.188605e+01	-2.751402e+00
1.195470e+01	-2.774957e+00
1.202375e+01	-2.798647e+00
1.209320e+01	-2.822396e+00
1.216305e+01	-2.846457e+00
1.223330e+01	-2.870483e+00
1.230396e+01	-2.894681e+00
1.237503e+01	-2.919359e+00
1.244651e+01	-2.943810e+00
1.251840e+01	-2.968483e+00
1.259070e+01	-2.993328e+00
1.266343e+01	-3.018508e+00
1.273657e+01	-3.043407e+00
1.281014e+01	-3.068971e+00
1.288413e+01	-3.094281e+00
1.295855e+01	-3.119646e+00
1.303339e+01	-3.145339e+00
1.310867e+01	-3.171216e+00
1.318439e+01	-3.197139e+00
1.326054e+01	-3.223325e+00
1.333713e+01	-3.249735e+00
1.341417e+01	-3.276162e+00
1.349165e+01	-3.302725e+00
1.356958e+01	-3.329634e+00
1.364795e+01	-3.356211e+00
1.372678e+01	-3.383150e+00
1.380607e+01	-3.410376e+00
1.388581e+01	-3.437800e+00
1.396602e+01	-3.464944e+00
1.404668e+01	-3.492606e+00
1.412782e+01	-3.520673e+00
1.420942e+01	-3.548043e+00
1.429149e+01	-3.575974e+00
1.437404e+01	-3.604090e+00
1.445706e+01	-3.632695e+00
1.454057e+01	-3.660915e+00
1.462455e+01	-3.689770e+00
1.470902e+01	-3.718246e+00
1.479398e+01	-3.747436e+00
1.487943e+01	-3.776125e+00
1.496537e+01	-3.804998e+00
1.505181e+01	-3.834803e+00
1.513875e+01	-3.863910e+00
1.522619e+01	-3.893441e+00
1.531414e+01	-3.923440e+00
1.540259e+01	-3.952927e+00
1.549156e+01	-3.982935e+00
1.558103e+01	-4.013293e+00
1.567103e+01	-4.043170e+00
1.576155e+01	-4.073657e+00
1.585258e+01	-4.104052e+00
1.594415e+01	-4.134882e+00
1.603624e+01	-4.165503e+00
1.612886e+01	-4.196542e+00
1.622202e+01	-4.227558e+00
1.631572e+01	-4.258862e+00
1.640996e+01	-4.290377e+00
1.650474e+01	-4.321510e+00
1.660008e+01	-4.353099e+00
1.669596e+01	-4.385254e+00
1.679239e+01	-4.416757e+00
1.688938e+01	-4.448749e+00
1.698694e+01	-4.480876e+00
1.708505e+01	-4.513353e+00
1.718373e+01	-4.545628e+00
1.728299e+01	-4.578283e+00
1.738281e+01	-4.610555e+00
1.748322e+01	-4.643510e+00
1.758420e+01	-4.676708e+00
1.768576e+01	-4.709561e+00
1.778792e+01	-4.742913e+00
1.789066e+01	-4.776228e+00
1.799399e+01	-4.809759e+00
1.809793e+01	-4.842851e+00
1.820246e+01	-4.876595e+00
1.830760e+01	-4.910730e+00
1.841334e+01	-4.944390e+00
1.851969e+01	-4.978340e+00
1.862666e+01	-5.012574e+00
1.873425e+01	-5.047080e+00
1.884246e+01	-5.081313e+00
1.895129e+01	-5.116069e+00
1.906075e+01	-5.151061e+00
1.917085e+01	-5.185614e+00
1.928158e+01	-5.220394e+00
1.939295e+01	-5.255690e+00
1.950496e+01	-5.290524e+00
1.961762e+01	-5.326025e+00
1.973093e+01	-5.361294e+00
1.984490e+01	-5.396826e+00
1.995952e+01	-5.432533e+00
2.007480e+01	-5.468179e+00
2.019076e+01	-5.504058e+00
2.030738e+01	-5.540305e+00
2.042467e+01	-5.576378e+00
2.054264e+01	-5.612272e+00
2.066130e+01	-5.648779e+00
2.078064e+01	-5.685558e+00
2.090066e+01	-5.722135e+00
2.102139e+01	-5.758818e+00
2.114280e+01	-5.795316e+00
2.126492e+01	-5.832554e+00
2.138775e+01	-5.869554e+00
2.151128e+01	-5.906664e+00
2.163553e+01	-5.943737e+00
2.176050e+01	-5.981056e+00
2.188619e+01	-6.018744e+00
2.201260e+01	-6.056010e+00
2.213974e+01	-6.094140e+00
2.226762e+01	-6.131645e+00
2.239624e+01	-6.169508e+00
2.252560e+01	-6.207317e+00
2.265571e+01	-6.245311e+00
2.278656e+01	-6.283643e+00
2.291818e+01	-6.322293e+00
2.305055e+01	-6.360323e+00
2.318369e+01	-6.399003e+00
2.331760e+01	-6.437690e+00
2.345228e+01	-6.475973e+00
2.358774e+01	-6.514941e+00
2.372398e+01	-6.553732e+00
2.386101e+01	-6.592628e+00
2.399883e+01	-6.632382e+00
2.413745e+01	-6.671314e+00
2.427686e+01	-6.710809e+00
2.441709e+01	-6.750308e+00
2.455812e+01	-6.789453e+00
2.469997e+01	-6.829256e+00
2.484263e+01	-6.868531e+00
2.498612e+01	-6.908847e+00
2.513044e+01	-6.948772e+00
2.527559e+01	-6.988162e+00
2.542158e+01	-7.028510e+00
2.556842e+01	-7.068783e+00
2.571610e+01	-7.108728e+00
2.586463e+01	-7.149562e+00
2.601403e+01	-7.189948e+00
2.616428e+01	-7.230254e+00
2.631541e+01	-7.271124e+00
2.646740e+01	-7.311463e+00
2.662028e+01	-7.352300e+00
2.677404e+01	-7.393333e+00
2.692868e+01	-7.434268e+00
2.708422e+01	-7.475251e+00
2.724066e+01	-7.516148e+00
2.739800e+01	-7.557230e+00
2.755625e+01	-7.598751e+00
2.771541e+01	-7.640102e+00
2.787550e+01	-7.681766e+00
2.803650e+01	-7.723253e+00
2.819844e+01	-7.764764e+00
2.836131e+01	-7.806701e+00
2.852513e+01	-7.848232e+00
2.868989e+01	-7.890321e+00
2.885560e+01	-7.931840e+00
2.902227e+01	-7.973712e+00
2.918990e+01	-8.016189e+00
2.935850e+01	-8.058129e+00
2.952807e+01	-8.100647e+00
2.969863e+01	-8.142456e+00
2.987016e+01	-8.185283e+00
3.004269e+01	-8.227834e+00
3.021622e+01	-8.270064e+00
3.039075e+01	-8.312688e+00
3.056628e+01	-8.355378e+00
3.074283e+01	-8.398855e+00
3.092040e+01	-8.440884e+00
3.109900e+01	-8.484067e+00
3.127862e+01	-8.526934e+00
3.145929e+01	-8.570215e+00
3.164099e+01	-8.613080e+00
3.182375e+01	-8.656467e+00
3.200756e+01	-8.699893e+00
3.219244e+01	-8.742826e+00
3.237838e+01	-8.786467e+00
3.256540e+01	-8.829845e+00
3.275349e+01	-8.873216e+00
3.294268e+01	-8.916708e+00
3.313295e+01	-8.960156e+00
3.332433e+01	-9.004359e+00
3.351681e+01	-9.047574e+00
3.371040e+01	-9.091308e+00
3.390511e+01	-9.135255e+00
3.410094e+01	-9.179282e+00
3.429791e+01	-9.223126e+00
3.449601e+01	-9.267596e+00
3.469526e+01	-9.312619e+00
3.489566e+01	-9.356178e+00
3.509721e+01	-9.400382e+00
3.529993e+01	-9.444544e+00
3.550382e+01	-9.488558e+00
3.570889e+01	-9.533126e+00
3.591515e+01	-9.577956e+00
3.612259e+01	-9.622120e+00
3.633123e+01	-9.666903e+00
3.654108e+01	-9.712234e+00
3.675214e+01	-9.755733e+00
3.696442e+01	-9.800760e+00
3.717792e+01	-9.845748e+00
3.739266e+01	-9.890410e+00
3.760864e+01	-9.936048e+00
3.782587e+01	-9.980663e+00
3.804435e+01	-1.002559e+01
3.826409e+01	-1.007006e+01
3.848510e+01	-1.011598e+01
3.870739e+01	-1.016130e+01
3.893096e+01	-1.020607e+01
3.915583e+01	-1.025186e+01
3.938199e+01	-1.029697e+01
3.960946e+01	-1.034275e+01
3.983824e+01	-1.038741e+01
4.006834e+01	-1.043349e+01
4.029978e+01	-1.047895e+01
4.053255e+01	-1.052385e+01
4.076666e+01	-1.056966e+01
4.100213e+01	-1.061544e+01
4.123896e+01	-1.066135e+01
4.147715e+01	-1.070626e+01
4.171672e+01	-1.075246e+01
4.195767e+01	-1.079903e+01
4.220002e+01	-1.084388e+01
4.244377e+01	-1.089105e+01
4.268892e+01	-1.093685e+01
4.293549e+01	-1.098229e+01
4.318348e+01	-1.102848e+01
4.343291e+01	-1.107451e+01
4.368377e+01	-1.112049e+01
4.393609e+01	-1.116700e+01
4.418986e+01	-1.121313e+01
4.444510e+01	-1.125966e+01
4.470182e+01	-1.130484e+01
4.496001e+01	-1.135250e+01
4.521970e+01	-1.139807e+01
4.548089e+01	-1.144489e+01
4.574358e+01	-1.149111e+01
4.600779e+01	-1.153793e+01
4.627353e+01	-1.158388e+01
4.654081e+01	-1.163126e+01
4.680963e+01	-1.167754e+01
4.708000e+01	-1.172407e+01
4.735193e+01	-1.177090e+01
4.762543e+01	-1.181797e+01
4.790051e+01	-1.186450e+01
4.817719e+01	-1.191117e+01
4.845545e+01	-1.195784e+01
4.873533e+01	-1.200497e+01
4.901682e+01	-1.205124e+01
4.929994e+01	-1.209841e+01
4.958470e+01	-1.214511e+01
4.987110e+01	-1.219295e+01
5.015915e+01	-1.223910e+01
5.044887e+01	-1.228708e+01
5.074026e+01	-1.233357e+01
5.103333e+01	-1.238080e+01
5.132810e+01	-1.242808e+01
5.162457e+01	-1.247467e+01
5.192275e+01	-1.252279e+01
5.222265e+01	-1.256924e+01
5.252429e+01	-1.261740e+01
5.282767e+01	-1.266364e+01
5.313280e+01	-1.271163e+01
5.343969e+01	-1.275918e+01
5.374836e+01	-1.280582e+01
5.405880e+01	-1.285364e+01
5.437105e+01	-1.290149e+01
5.468509e+01	-1.294960e+01
5.500095e+01	-1.299603e+01
5.531863e+01	-1.304309e+01
5.563815e+01	-1.309136e+01
5.595951e+01	-1.313883e+01
5.628273e+01	-1.318634e+01
5.660782e+01	-1.323395e+01
5.693479e+01	-1.328214e+01
5.726364e+01	-1.332924e+01
5.759439e+01	-1.337691e+01
5.792705e+01	-1.342454e+01
5.826164e+01	-1.347355e+01
5.859815e+01	-1.351971e+01
5.893662e+01	-1.356795e+01
5.927703e+01	-1.361586e+01
5.961941e+01	-1.366402e+01
5.996377e+01	-1.371192e+01
6.031012e+01	-1.376015e+01
6.065847e+01	-1.380766e+01
6.100883e+01	-1.385546e+01
6.136121e+01	-1.390412e+01
6.171563e+01	-1.395189e+01
6.207210e+01	-1.399922e+01
6.243063e+01	-1.404765e+01
6.279122e+01	-1.409562e+01
6.315390e+01	-1.414395e+01
6.351868e+01	-1.419210e+01
6.388556e+01	-1.424052e+01
6.425456e+01	-1.428811e+01
6.462569e+01	-1.433627e+01
6.499897e+01	-1.438487e+01
6.537440e+01	-1.443186e+01
6.575200e+01	-1.448086e+01
6.613178e+01	-1.452902e+01
6.651375e+01	-1.457835e+01
6.689793e+01	-1.462579e+01
6.728433e+01	-1.467391e+01
6.767297e+01	-1.472287e+01
6.806384e+01	-1.477037e+01
6.845698e+01	-1.481952e+01
6.885238e+01	-1.486726e+01
6.925007e+01	-1.491655e+01
6.965005e+01	-1.496448e+01
7.005235e+01	-1.501277e+01
7.045697e+01	-1.506094e+01
7.086393e+01	-1.510996e+01
7.127323e+01	-1.515856e+01
7.168490e+01	-1.520677e+01
7.209895e+01	-1.525590e+01
7.251539e+01	-1.530400e+01
7.293424e+01	-1.535209e+01
7.335551e+01	-1.540053e+01
7.377920e+01	-1.544925e+01
7.420535e+01	-1.549906e+01
7.463396e+01	-1.554608e+01
7.506504e+01	-1.559549e+01
7.549861e+01	-1.564367e+01
7.593469e+01	-1.569234e+01
7.637328e+01	-1.574186e+01
7.681441e+01	-1.578953e+01
7.725809e+01	-1.583921e+01
7.770433e+01	-1.588781e+01
7.815315e+01	-1.593632e+01
7.860456e+01	-1.598576e+01
7.905857e+01	-1.603396e+01
7.951521e+01	-1.608245e+01
7.997449e+01	-1.613123e+01
8.043642e+01	-1.617972e+01
8.090102e+01	-1.623005e+01
8.136830e+01	-1.627829e+01
8.183828e+01	-1.632788e+01
8.231097e+01	-1.637534e+01
8.278640e+01	-1.642420e+01
8.326457e+01	-1.647377e+01
8.374550e+01	-1.652330e+01
8.422921e+01	-1.657119e+01
8.471572e+01	-1.661954e+01
8.520503e+01	-1.666947e+01
8.569717e+01	-1.671835e+01
8.619215e+01	-1.676722e+01
8.669000e+01	-1.681726e+01
8.719071e+01	-1.686593e+01
8.769432e+01	-1.691401e+01
8.820084e+01	-1.696352e+01
8.871029e+01	-1.701201e+01
8.922267e+01	-1.706252e+01
8.973802e+01	-1.711040e+01
9.025634e+01	-1.715943e+01
9.077766e+01	-1.720811e+01
9.130199e+01	-1.725708e+01
9.182935e+01	-1.730609e+01
9.235975e+01	-1.735616e+01
9.289321e+01	-1.740501e+01
9.342976e+01	-1.745451e+01
9.396941e+01	-1.750302e+01
9.451217e+01	-1.755273e+01
9.505807e+01	-1.760236e+01
9.560712e+01	-1.764955e+01
9.615934e+01	-1.769988e+01
9.671476e+01	-1.775015e+01
9.727338e+01	-1.779814e+01
9.783522e+01	-1.784775e+01
9.840032e+01	-1.789618e+01
9.896867e+01	-1.794595e+01
9.954031e+01	-1.799709e+01
1.001153e+02	-1.804350e+01
1.006935e+02	-1.809289e+01
1.012751e+02	-1.814317e+01
1.018601e+02	-1.819181e+01
1.024484e+02	-1.824252e+01
1.030402e+02	-1.829042e+01
1.036353e+02	-1.834037e+01
1.042339e+02	-1.838931e+01
1.048360e+02	-1.843917e+01
1.054415e+02	-1.848799e+01
1.060505e+02	-1.853773e+01
1.066631e+02	-1.858710e+01
1.072791e+02	-1.863543e+01
1.078988e+02	-1.868475e+01
1.085220e+02	-1.873358e+01
1.091488e+02	-1.878487e+01
1.097793e+02	-1.883199e+01
1.104133e+02	-1.888273e+01
1.110511e+02	-1.893169e+01
1.116925e+02	-1.898373e+01
1.123376e+02	-1.903170e+01
1.129865e+02	-1.908068e+01
1.136391e+02	-1.913020e+01
1.142955e+02	-1.917913e+01
1.149556e+02	-1.922831e+01
1.156196e+02	-1.927870e+01
1.162874e+02	-1.932749e+01
1.169591e+02	-1.937628e+01
1.176347e+02	-1.942726e+01
1.183141e+02	-1.947563e+01
1.189975e+02	-1.952502e+01
1.196848e+02	-1.957381e+01
1.203761e+02	-1.962389e+01
1.210714e+02	-1.967398e+01
1.217707e+02	-1.972549e+01
1.224740e+02	-1.977351e+01
1.231814e+02	-1.982194e+01
1.238929e+02	-1.987149e+01
1.246085e+02	-1.992279e+01
1.253283e+02	-1.997139e+01
1.260522e+02	-2.002069e+01
1.267802e+02	-2.007078e+01
1.275125e+02	-2.012014e+01
1.282490e+02	-2.016965e+01
1.289898e+02	-2.021891e+01
1.297348e+02	-2.026890e+01
1.304842e+02	-2.031928e+01
1.312378e+02	-2.036737e+01
1.319959e+02	-2.041621e+01
1.327583e+02	-2.046555e+01
1.335251e+02	-2.051738e+01
1.342963e+02	-2.056626e+01
1.350720e+02	-2.061654e+01
1.358522e+02	-2.066546e+01
1.366368e+02	-2.071478e+01
1.374260e+02	-2.076605e+01
1.382198e+02	-2.081321e+01
1.390182e+02	-2.086422e+01
1.398211e+02	-2.091161e+01
1.406287e+02	-2.096151e+01
1.414410e+02	-2.101169e+01
1.422579e+02	-2.106218e+01
1.430796e+02	-2.111020e+01
1.439060e+02	-2.116011e+01
1.447372e+02	-2.121033e+01
1.455732e+02	-2.126139e+01
1.464141e+02	-2.131147e+01
1.472597e+02	-2.135961e+01
1.481103e+02	-2.141146e+01
1.489658e+02	-2.145886e+01
1.498262e+02	-2.151063e+01
1.506916e+02	-2.155816e+01
1.515620e+02	-2.160783e+01
1.524374e+02	-2.165889e+01
1.533179e+02	-2.171001e+01
1.542034e+02	-2.175555e+01
1.550941e+02	-2.180821e+01
1.559899e+02	-2.185717e+01
1.568909e+02	-2.190686e+01
1.577971e+02	-2.195740e+01
1.587085e+02	-2.200558e+01
1.596252e+02	-2.205678e+01
1.605472e+02	-2.210608e+01
1.614745e+02	-2.215578e+01
1.624072e+02	-2.220547e+01
1.633453e+02	-2.225228e+01
1.642887e+02	-2.230570e+01
1.652377e+02	-2.235591e+01
1.661921e+02	-2.240445e+01
1.671520e+02	-2.245505e+01
1.681175e+02	-2.250309e+01
1.690885e+02	-2.255491e+01
1.700651e+02	-2.260333e+01
1.710474e+02	-2.265162e+01
1.720354e+02	-2.270096e+01
1.730291e+02	-2.275292e+01
1.740285e+02	-2.280449e+01
1.750337e+02	-2.285195e+01
1.760446e+02	-2.290116e+01
1.770615e+02	-2.295088e+01
1.780842e+02	-2.300120e+01
1.791128e+02	-2.304972e+01
1.801473e+02	-2.309969e+01
1.811878e+02	-2.315086e+01
1.822344e+02	-2.320112e+01
1.832870e+02	-2.325241e+01
1.843456e+02	-2.330041e+01
1.854104e+02	-2.334924e+01
1.864813e+02	-2.339878e+01
1.875584e+02	-2.345024e+01
1.886418e+02	-2.349707e+01
1.897313e+02	-2.354993e+01
1.908272e+02	-2.359770e+01
1.919294e+02	-2.364600e+01
1.930380e+02	-2.369822e+01
1.941530e+02	-2.375007e+01
1.952744e+02	-2.379842e+01
1.964023e+02	-2.384838e+01
1.975367e+02	-2.389768e+01
1.986777e+02	-2.395019e+01
1.998252e+02	-2.399677e+01
2.009794e+02	-2.404772e+01
2.021403e+02	-2.409564e+01
2.033078e+02	-2.414829e+01
2.044821e+02	-2.419995e+01
2.056632e+02	-2.424856e+01
2.068511e+02	-2.429659e+01
2.080459e+02	-2.434657e+01
2.092475e+02	-2.439776e+01
2.104561e+02	-2.444694e+01
2.116717e+02	-2.449698e+01
2.128943e+02	-2.454485e+01
2.141240e+02	-2.459842e+01
2.153608e+02	-2.464757e+01
2.166047e+02	-2.469621e+01
2.178558e+02	-2.474895e+01
2.191141e+02	-2.479278e+01
2.203797e+02	-2.484571e+01
2.216526e+02	-2.489492e+01
2.229329e+02	-2.494720e+01
2.242205e+02	-2.499315e+01
2.255156e+02	-2.504449e+01
2.268182e+02	-2.509599e+01
2.281283e+02	-2.514700e+01
2.294459e+02	-2.519470e+01
2.307712e+02	-2.524399e+01
2.321041e+02	-2.529606e+01
2.334447e+02	-2.534558e+01
2.347931e+02	-2.539576e+01
2.361493e+02	-2.544525e+01
2.375133e+02	-2.549703e+01
2.388851e+02	-2.554834e+01
2.402649e+02	-2.559873e+01
2.416527e+02	-2.564661e+01
2.430484e+02	-2.569576e+01
2.444523e+02	-2.574589e+01
2.458642e+02	-2.579347e+01
2.472843e+02	-2.584219e+01
2.487126e+02	-2.589478e+01
2.501492e+02	-2.594348e+01
2.515940e+02	-2.599415e+01
2.530472e+02	-2.604586e+01
2.545088e+02	-2.609334e+01
2.559789e+02	-2.614325e+01
2.574574e+02	-2.619590e+01
2.589444e+02	-2.624366e+01
2.604401e+02	-2.629482e+01
2.619444e+02	-2.634861e+01
2.634574e+02	-2.639292e+01
2.649791e+02	-2.644411e+01
2.665096e+02	-2.649575e+01
2.680489e+02	-2.654111e+01
2.695972e+02	-2.659336e+01
2.711544e+02	-2.664322e+01
2.727205e+02	-2.669563e+01
2.742958e+02	-2.674272e+01
2.758801e+02	-2.679362e+01
2.774736e+02	-2.684631e+01
2.790762e+02	-2.689406e+01
2.806882e+02	-2.694424e+01
2.823094e+02	-2.699676e+01
2.839400e+02	-2.704737e+01
2.855800e+02	-2.709349e+01
2.872295e+02	-2.714401e+01
2.888886e+02	-2.719396e+01
2.905572e+02	-2.724666e+01
2.922354e+02	-2.729612e+01
2.939234e+02	-2.734331e+01
2.956211e+02	-2.739530e+01
2.973286e+02	-2.744102e+01
2.990459e+02	-2.749170e+01
3.007732e+02	-2.754405e+01
3.025104e+02	-2.759341e+01
3.042577e+02	-2.764394e+01
3.060151e+02	-2.770055e+01
3.077826e+02	-2.774212e+01
3.095604e+02	-2.779459e+01
3.113484e+02	-2.784091e+01
3.131467e+02	-2.789182e+01
3.149554e+02	-2.794424e+01
3.167746e+02	-2.799508e+01
3.186043e+02	-2.804150e+01
3.204445e+02	-2.809245e+01
3.222954e+02	-2.813951e+01
3.241570e+02	-2.819699e+01
3.260293e+02	-2.824468e+01
3.279124e+02	-2.829420e+01
3.298064e+02	-2.834400e+01
3.317114e+02	-2.839213e+01
3.336273e+02	-2.843998e+01
3.355544e+02	-2.849110e+01
3.374925e+02	-2.854365e+01
3.394418e+02	-2.859423e+01
3.414024e+02	-2.864538e+01
3.433744e+02	-2.869039e+01
3.453577e+02	-2.874835e+01
3.473525e+02	-2.879582e+01
3.493588e+02	-2.884627e+01
3.513766e+02	-2.889481e+01
3.534062e+02	-2.894834e+01
3.554474e+02	-2.899313e+01
3.575005e+02	-2.904790e+01
3.595654e+02	-2.909734e+01
3.616422e+02	-2.914701e+01
3.637311e+02	-2.920065e+01
3.658320e+02	-2.924515e+01
3.679450e+02	-2.929447e+01
3.700702e+02	-2.934271e+01
3.722077e+02	-2.939657e+01
3.743576e+02	-2.944434e+01
3.765199e+02	-2.949496e+01
3.786946e+02	-2.954687e+01
3.808820e+02	-2.959757e+01
3.830819e+02	-2.964666e+01
3.852946e+02	-2.970173e+01
3.875200e+02	-2.974932e+01
3.897583e+02	-2.979258e+01
3.920096e+02	-2.984555e+01
3.942738e+02	-2.989459e+01
3.965511e+02	-2.994897e+01
3.988416e+02	-2.999748e+01
4.011452e+02	-3.004518e+01
4.034622e+02	-3.009415e+01
4.057926e+02	-3.015119e+01
4.081365e+02	-3.019452e+01
4.104938e+02	-3.024806e+01
4.128648e+02	-3.029469e+01
4.152495e+02	-3.034865e+01
4.176480e+02	-3.039849e+01
4.200603e+02	-3.044883e+01
4.224866e+02	-3.049830e+01
4.249268e+02	-3.054538e+01
4.273812e+02	-3.059937e+01
4.298497e+02	-3.064851e+01
4.323325e+02	-3.069937e+01
4.348297e+02	-3.074651e+01
4.373412e+02	-3.079731e+01
4.398673e+02	-3.085297e+01
4.424079e+02	-3.090156e+01
4.449633e+02	-3.094811e+01
4.475334e+02	-3.100194e+01
4.501183e+02	-3.105229e+01
4.527182e+02	-3.110205e+01
4.553330e+02	-3.114699e+01
4.579630e+02	-3.120494e+01
4.606082e+02	-3.124875e+01
4.632687e+02	-3.130379e+01
4.659445e+02	-3.135451e+01
4.686358e+02	-3.139749e+01
4.713426e+02	-3.144602e+01
4.740650e+02	-3.149794e+01
4.768032e+02	-3.155198e+01
4.795572e+02	-3.160410e+01
4.823271e+02	-3.165220e+01
4.851130e+02	-3.170021e+01
4.879150e+02	-3.175013e+01
4.907332e+02	-3.180704e+01
4.935676e+02	-3.185203e+01
4.964185e+02	-3.189823e+01
4.992858e+02	-3.194982e+01
5.021696e+02	-3.200262e+01
5.050701e+02	-3.204824e+01
5.079874e+02	-3.210738e+01
5.109215e+02	-3.215542e+01
5.138726e+02	-3.220331e+01
5.168407e+02	-3.225483e+01
5.198259e+02	-3.230264e+01
5.228284e+02	-3.235868e+01
5.258482e+02	-3.240459e+01
5.288855e+02	-3.244867e+01
5.319403e+02	-3.250788e+01
5.350128e+02	-3.255272e+01
5.381030e+02	-3.260480e+01
5.412111e+02	-3.265187e+01
5.443371e+02	-3.270335e+01
5.474812e+02	-3.275588e+01
5.506434e+02	-3.280196e+01
5.538239e+02	-3.285591e+01
5.570228e+02	-3.290400e+01
5.602401e+02	-3.295503e+01
5.634760e+02	-3.299806e+01
5.667306e+02	-3.305699e+01
5.700040e+02	-3.310388e+01
5.732964e+02	-3.315933e+01
5.766077e+02	-3.321013e+01
5.799382e+02	-3.325450e+01
5.832879e+02	-3.331635e+01
5.866569e+02	-3.335884e+01
5.900454e+02	-3.341666e+01
5.934535e+02	-3.346113e+01
5.968813e+02	-3.350539e+01
6.003288e+02	-3.356261e+01
6.037963e+02	-3.361114e+01
6.072838e+02	-3.366292e+01
6.107914e+02	-3.371432e+01
6.143194e+02	-3.376030e+01
6.178676e+02	-3.381052e+01
6.214364e+02	-3.385626e+01
6.250258e+02	-3.390365e+01
6.286359e+02	-3.396923e+01
6.322669e+02	-3.401111e+01
6.359189e+02	-3.406517e+01
6.395919e+02	-3.411452e+01
6.432862e+02	-3.415512e+01
6.470017e+02	-3.421916e+01
6.507388e+02	-3.426749e+01
6.544974e+02	-3.432087e+01
6.582778e+02	-3.436907e+01
6.620800e+02	-3.442154e+01
6.659041e+02	-3.446737e+01
6.697504e+02	-3.451473e+01
6.736188e+02	-3.457374e+01
6.775096e+02	-3.461503e+01
6.814229e+02	-3.466634e+01
6.853587e+02	-3.471434e+01
6.893173e+02	-3.477031e+01
6.932988e+02	-3.481591e+01
6.973033e+02	-3.486372e+01
7.013309e+02	-3.492189e+01
