Frequency(Hz)	Magnitude(dB)
1.000000e+01	-1.685811e-05
1.005776e+01	-1.705341e-05
1.011585e+01	-1.725098e-05
1.017428e+01	-1.745084e-05
1.023305e+01	-1.765301e-05
1.029215e+01	-1.785752e-05
1.035160e+01	-1.806441e-05
1.041139e+01	-1.827369e-05
1.047153e+01	-1.848539e-05
1.053201e+01	-1.869955e-05
1.059284e+01	-1.891619e-05
1.065403e+01	-1.913534e-05
1.071556e+01	-1.935703e-05
1.077746e+01	-1.958128e-05
1.083971e+01	-1.980814e-05
1.090232e+01	-2.003762e-05
1.096529e+01	-2.026976e-05
1.102862e+01	-2.050459e-05
1.109232e+01	-2.074214e-05
1.115639e+01	-2.098245e-05
1.122083e+01	-2.122553e-05
1.128564e+01	-2.147144e-05
1.135083e+01	-2.172019e-05
1.141639e+01	-2.197182e-05
1.148233e+01	-2.222637e-05
1.154865e+01	-2.248387e-05
1.161536e+01	-2.274435e-05
1.168245e+01	-2.300785e-05
1.174992e+01	-2.327440e-05
1.181779e+01	-2.354404e-05
1.188605e+01	-2.381680e-05
1.195470e+01	-2.409273e-05
1.202375e+01	-2.437185e-05
1.209320e+01	-2.465420e-05
1.216305e+01	-2.493983e-05
1.223330e+01	-2.522876e-05
1.230396e+01	-2.552104e-05
1.237503e+01	-2.581671e-05
1.244651e+01	-2.611580e-05
1.251840e+01	-2.641836e-05
1.259070e+01	-2.672442e-05
1.266343e+01	-2.703403e-05
1.273657e+01	-2.734723e-05
1.281014e+01	-2.766405e-05
1.288413e+01	-2.798455e-05
1.295855e+01	-2.830875e-05
1.303339e+01	-2.863672e-05
1.310867e+01	-2.896848e-05
1.318439e+01	-2.930409e-05
1.326054e+01	-2.964358e-05
1.333713e+01	-2.998701e-05
1.341417e+01	-3.033442e-05
1.349165e+01	-3.068585e-05
1.356958e+01	-3.104135e-05
1.364795e+01	-3.140097e-05
1.372678e+01	-3.176476e-05
1.380607e+01	-3.213276e-05
1.388581e+01	-3.250503e-05
1.396602e+01	-3.288161e-05
1.404668e+01	-3.326255e-05
1.412782e+01	-3.364790e-05
1.420942e+01	-3.403772e-05
1.429149e+01	-3.443206e-05
1.437404e+01	-3.483096e-05
1.445706e+01	-3.523449e-05
1.454057e+01	-3.564269e-05
1.462455e+01	-3.605561e-05
1.470902e+01	-3.647333e-05
1.479398e+01	-3.689588e-05
1.487943e+01	-3.732333e-05
1.496537e+01	-3.775573e-05
1.505181e+01	-3.819313e-05
1.513875e+01	-3.863561e-05
1.522619e+01	-3.908321e-05
1.531414e+01	-3.953600e-05
1.540259e+01	-3.999403e-05
1.549156e+01	-4.045737e-05
1.558103e+01	-4.092608e-05
1.567103e+01	-4.140022e-05
1.576155e+01	-4.187985e-05
1.585258e+01	-4.236504e-05
1.594415e+01	-4.285585e-05
1.603624e+01	-4.335234e-05
1.612886e+01	-4.385459e-05
1.622202e+01	-4.436265e-05
1.631572e+01	-4.487660e-05
1.640996e+01	-4.539651e-05
1.650474e+01	-4.592244e-05
1.660008e+01	-4.645446e-05
1.669596e+01	-4.699264e-05
1.679239e+01	-4.753706e-05
1.688938e+01	-4.808779e-05
1.698694e+01	-4.864490e-05
1.708505e+01	-4.920846e-05
1.718373e+01	-4.977855e-05
1.728299e+01	-5.035525e-05
1.738281e+01	-5.093862e-05
1.748322e+01	-5.152876e-05
1.758420e+01	-5.212573e-05
1.768576e+01	-5.272962e-05
1.778792e+01	-5.334050e-05
1.789066e+01	-5.395846e-05
1.799399e+01	-5.458358e-05
1.809793e+01	-5.521594e-05
1.820246e+01	-5.585563e-05
1.830760e+01	-5.650273e-05
1.841334e+01	-5.715732e-05
1.851969e+01	-5.781950e-05
1.862666e+01	-5.848935e-05
1.873425e+01	-5.916697e-05
1.884246e+01	-5.985243e-05
1.895129e+01	-6.054583e-05
1.906075e+01	-6.124726e-05
1.917085e+01	-6.195683e-05
1.928158e+01	-6.267461e-05
1.939295e+01	-6.340071e-05
1.950496e+01	-6.413521e-05
1.961762e+01	-6.487823e-05
1.973093e+01	-6.562986e-05
1.984490e+01	-6.639019e-05
1.995952e+01	-6.715934e-05
2.007480e+01	-6.793739e-05
2.019076e+01	-6.872446e-05
2.030738e+01	-6.952064e-05
2.042467e+01	-7.032605e-05
2.054264e+01	-7.114079e-05
2.066130e+01	-7.196497e-05
2.078064e+01	-7.279870e-05
2.090066e+01	-7.364209e-05
2.102139e+01	-7.449524e-05
2.114280e+01	-7.535829e-05
2.126492e+01	-7.623132e-05
2.138775e+01	-7.711448e-05
2.151128e+01	-7.800786e-05
2.163553e+01	-7.891160e-05
2.176050e+01	-7.982580e-05
2.188619e+01	-8.075060e-05
2.201260e+01	-8.168611e-05
2.213974e+01	-8.263245e-05
2.226762e+01	-8.358976e-05
2.239624e+01	-8.455817e-05
2.252560e+01	-8.553779e-05
2.265571e+01	-8.652876e-05
2.278656e+01	-8.753121e-05
2.291818e+01	-8.854527e-05
2.305055e+01	-8.957108e-05
2.318369e+01	-9.060878e-05
2.331760e+01	-9.165849e-05
2.345228e+01	-9.272037e-05
2.358774e+01	-9.379455e-05
2.372398e+01	-9.488117e-05
2.386101e+01	-9.598039e-05
2.399883e+01	-9.709233e-05
2.413745e+01	-9.821716e-05
2.427686e+01	-9.935502e-05
2.441709e+01	-1.005061e-04
2.455812e+01	-1.016704e-04
2.469997e+01	-1.028483e-04
2.484263e+01	-1.040398e-04
2.498612e+01	-1.052451e-04
2.513044e+01	-1.064644e-04
2.527559e+01	-1.076978e-04
2.542158e+01	-1.089455e-04
2.556842e+01	-1.102077e-04
2.571610e+01	-1.114844e-04
2.586463e+01	-1.127760e-04
2.601403e+01	-1.140825e-04
2.616428e+01	-1.154042e-04
2.631541e+01	-1.167412e-04
2.646740e+01	-1.180936e-04
2.662028e+01	-1.194617e-04
2.677404e+01	-1.208457e-04
2.692868e+01	-1.222457e-04
2.708422e+01	-1.236620e-04
2.724066e+01	-1.250946e-04
2.739800e+01	-1.265438e-04
2.755625e+01	-1.280099e-04
2.771541e+01	-1.294929e-04
2.787550e+01	-1.309931e-04
2.803650e+01	-1.325106e-04
2.819844e+01	-1.340458e-04
2.836131e+01	-1.355987e-04
2.852513e+01	-1.371696e-04
2.868989e+01	-1.387588e-04
2.885560e+01	-1.403663e-04
2.902227e+01	-1.419924e-04
2.918990e+01	-1.436374e-04
2.935850e+01	-1.453015e-04
2.952807e+01	-1.469848e-04
2.969863e+01	-1.486876e-04
2.987016e+01	-1.504102e-04
3.004269e+01	-1.521527e-04
3.021622e+01	-1.539154e-04
3.039075e+01	-1.556985e-04
3.056628e+01	-1.575023e-04
3.074283e+01	-1.593270e-04
3.092040e+01	-1.611728e-04
3.109900e+01	-1.630400e-04
3.127862e+01	-1.649288e-04
3.145929e+01	-1.668395e-04
3.164099e+01	-1.687724e-04
3.182375e+01	-1.707276e-04
3.200756e+01	-1.727055e-04
3.219244e+01	-1.747063e-04
3.237838e+01	-1.767303e-04
3.256540e+01	-1.787777e-04
3.275349e+01	-1.808489e-04
3.294268e+01	-1.829440e-04
3.313295e+01	-1.850634e-04
3.332433e+01	-1.872074e-04
3.351681e+01	-1.893762e-04
3.371040e+01	-1.915701e-04
3.390511e+01	-1.937895e-04
3.410094e+01	-1.960345e-04
3.429791e+01	-1.983056e-04
3.449601e+01	-2.006030e-04
3.469526e+01	-2.029269e-04
3.489566e+01	-2.052778e-04
3.509721e+01	-2.076560e-04
3.529993e+01	-2.100617e-04
3.550382e+01	-2.124952e-04
3.570889e+01	-2.149570e-04
3.591515e+01	-2.174473e-04
3.612259e+01	-2.199664e-04
3.633123e+01	-2.225147e-04
3.654108e+01	-2.250925e-04
3.675214e+01	-2.277002e-04
3.696442e+01	-2.303381e-04
3.717792e+01	-2.330066e-04
3.739266e+01	-2.357060e-04
3.760864e+01	-2.384366e-04
3.782587e+01	-2.411989e-04
3.804435e+01	-2.439932e-04
3.826409e+01	-2.468198e-04
3.848510e+01	-2.496792e-04
3.870739e+01	-2.525717e-04
3.893096e+01	-2.554978e-04
3.915583e+01	-2.584577e-04
3.938199e+01	-2.614519e-04
3.960946e+01	-2.644808e-04
3.983824e+01	-2.675448e-04
4.006834e+01	-2.706443e-04
4.029978e+01	-2.737797e-04
4.053255e+01	-2.769514e-04
4.076666e+01	-2.801598e-04
4.100213e+01	-2.834054e-04
4.123896e+01	-2.866887e-04
4.147715e+01	-2.900099e-04
4.171672e+01	-2.933697e-04
4.195767e+01	-2.967683e-04
4.220002e+01	-3.002063e-04
4.244377e+01	-3.036842e-04
4.268892e+01	-3.072023e-04
4.293549e+01	-3.107612e-04
4.318348e+01	-3.143614e-04
4.343291e+01	-3.180032e-04
4.368377e+01	-3.216872e-04
4.393609e+01	-3.254139e-04
4.418986e+01	-3.291838e-04
4.444510e+01	-3.329973e-04
4.470182e+01	-3.368550e-04
4.496001e+01	-3.407574e-04
4.521970e+01	-3.447050e-04
4.548089e+01	-3.486984e-04
4.574358e+01	-3.527380e-04
4.600779e+01	-3.568244e-04
4.627353e+01	-3.609581e-04
4.654081e+01	-3.651397e-04
4.680963e+01	-3.693698e-04
4.708000e+01	-3.736489e-04
4.735193e+01	-3.779775e-04
4.762543e+01	-3.823563e-04
4.790051e+01	-3.867858e-04
4.817719e+01	-3.912666e-04
4.845545e+01	-3.957994e-04
4.873533e+01	-4.003846e-04
4.901682e+01	-4.050229e-04
4.929994e+01	-4.097150e-04
4.958470e+01	-4.144615e-04
4.987110e+01	-4.192629e-04
5.015915e+01	-4.241199e-04
5.044887e+01	-4.290332e-04
5.074026e+01	-4.340034e-04
5.103333e+01	-4.390312e-04
5.132810e+01	-4.441173e-04
5.162457e+01	-4.492622e-04
5.192275e+01	-4.544668e-04
5.222265e+01	-4.597316e-04
5.252429e+01	-4.650575e-04
5.282767e+01	-4.704450e-04
5.313280e+01	-4.758949e-04
5.343969e+01	-4.814080e-04
5.374836e+01	-4.869849e-04
5.405880e+01	-4.926265e-04
5.437105e+01	-4.983333e-04
5.468509e+01	-5.041063e-04
5.500095e+01	-5.099462e-04
5.531863e+01	-5.158537e-04
5.563815e+01	-5.218297e-04
5.595951e+01	-5.278748e-04
5.628273e+01	-5.339900e-04
5.660782e+01	-5.401761e-04
5.693479e+01	-5.464338e-04
5.726364e+01	-5.527640e-04
5.759439e+01	-5.591675e-04
5.792705e+01	-5.656452e-04
5.826164e+01	-5.721979e-04
5.859815e+01	-5.788265e-04
5.893662e+01	-5.855319e-04
5.927703e+01	-5.923150e-04
5.961941e+01	-5.991767e-04
5.996377e+01	-6.061178e-04
6.031012e+01	-6.131394e-04
6.065847e+01	-6.202422e-04
6.100883e+01	-6.274274e-04
6.136121e+01	-6.346958e-04
6.171563e+01	-6.420484e-04
6.207210e+01	-6.494861e-04
6.243063e+01	-6.570100e-04
6.279122e+01	-6.646211e-04
6.315390e+01	-6.723203e-04
6.351868e+01	-6.801087e-04
6.388556e+01	-6.879873e-04
6.425456e+01	-6.959572e-04
6.462569e+01	-7.040194e-04
6.499897e+01	-7.121750e-04
6.537440e+01	-7.204251e-04
6.575200e+01	-7.287707e-04
6.613178e+01	-7.372130e-04
6.651375e+01	-7.457531e-04
6.689793e+01	-7.543921e-04
6.728433e+01	-7.631312e-04
6.767297e+01	-7.719714e-04
6.806384e+01	-7.809141e-04
6.845698e+01	-7.899604e-04
6.885238e+01	-7.991115e-04
6.925007e+01	-8.083686e-04
6.965005e+01	-8.177328e-04
7.005235e+01	-8.272056e-04
7.045697e+01	-8.367881e-04
7.086393e+01	-8.464816e-04
7.127323e+01	-8.562873e-04
7.168490e+01	-8.662066e-04
7.209895e+01	-8.762409e-04
7.251539e+01	-8.863913e-04
7.293424e+01	-8.966594e-04
7.335551e+01	-9.070463e-04
7.377920e+01	-9.175536e-04
7.420535e+01	-9.281826e-04
7.463396e+01	-9.389346e-04
7.506504e+01	-9.498113e-04
7.549861e+01	-9.608139e-04
7.593469e+01	-9.719439e-04
7.637328e+01	-9.832029e-04
7.681441e+01	-9.945923e-04
7.725809e+01	-1.006114e-03
7.770433e+01	-1.017768e-03
7.815315e+01	-1.029558e-03
7.860456e+01	-1.041484e-03
7.905857e+01	-1.053549e-03
7.951521e+01	-1.065753e-03
7.997449e+01	-1.078098e-03
8.043642e+01	-1.090587e-03
8.090102e+01	-1.103220e-03
8.136830e+01	-1.115999e-03
8.183828e+01	-1.128927e-03
8.231097e+01	-1.142004e-03
8.278640e+01	-1.155233e-03
8.326457e+01	-1.168615e-03
8.374550e+01	-1.182152e-03
8.422921e+01	-1.195845e-03
8.471572e+01	-1.209697e-03
8.520503e+01	-1.223710e-03
8.569717e+01	-1.237885e-03
8.619215e+01	-1.252224e-03
8.669000e+01	-1.266730e-03
8.719071e+01	-1.281403e-03
8.769432e+01	-1.296246e-03
8.820084e+01	-1.311261e-03
8.871029e+01	-1.326450e-03
8.922267e+01	-1.341815e-03
8.973802e+01	-1.357358e-03
9.025634e+01	-1.373081e-03
9.077766e+01	-1.388986e-03
9.130199e+01	-1.405075e-03
9.182935e+01	-1.421350e-03
9.235975e+01	-1.437814e-03
9.289321e+01	-1.454469e-03
9.342976e+01	-1.471317e-03
9.396941e+01	-1.488359e-03
9.451217e+01	-1.505599e-03
9.505807e+01	-1.523039e-03
9.560712e+01	-1.540681e-03
9.615934e+01	-1.558527e-03
9.671476e+01	-1.576579e-03
9.727338e+01	-1.594841e-03
9.783522e+01	-1.613314e-03
9.840032e+01	-1.632002e-03
9.896867e+01	-1.650905e-03
9.954031e+01	-1.670028e-03
1.001153e+02	-1.689372e-03
1.006935e+02	-1.708940e-03
1.012751e+02	-1.728734e-03
1.018601e+02	-1.748758e-03
1.024484e+02	-1.769014e-03
1.030402e+02	-1.789504e-03
1.036353e+02	-1.810232e-03
1.042339e+02	-1.831199e-03
1.048360e+02	-1.852410e-03
1.054415e+02	-1.873866e-03
1.060505e+02	-1.895570e-03
1.066631e+02	-1.917526e-03
1.072791e+02	-1.939736e-03
1.078988e+02	-1.962203e-03
1.085220e+02	-1.984931e-03
1.091488e+02	-2.007921e-03
1.097793e+02	-2.031178e-03
1.104133e+02	-2.054704e-03
1.110511e+02	-2.078503e-03
1.116925e+02	-2.102577e-03
1.123376e+02	-2.126930e-03
1.129865e+02	-2.151565e-03
1.136391e+02	-2.176485e-03
1.142955e+02	-2.201694e-03
1.149556e+02	-2.227195e-03
1.156196e+02	-2.252991e-03
1.162874e+02	-2.279085e-03
1.169591e+02	-2.305482e-03
1.176347e+02	-2.332185e-03
1.183141e+02	-2.359196e-03
1.189975e+02	-2.386521e-03
1.196848e+02	-2.414161e-03
1.203761e+02	-2.442122e-03
1.210714e+02	-2.470407e-03
1.217707e+02	-2.499019e-03
1.224740e+02	-2.527962e-03
1.231814e+02	-2.557241e-03
1.238929e+02	-2.586858e-03
1.246085e+02	-2.616819e-03
1.253283e+02	-2.647126e-03
1.260522e+02	-2.677784e-03
1.267802e+02	-2.708797e-03
1.275125e+02	-2.740169e-03
1.282490e+02	-2.771905e-03
1.289898e+02	-2.804008e-03
1.297348e+02	-2.836482e-03
1.304842e+02	-2.869333e-03
1.312378e+02	-2.902564e-03
1.319959e+02	-2.936179e-03
1.327583e+02	-2.970184e-03
1.335251e+02	-3.004583e-03
1.342963e+02	-3.039379e-03
1.350720e+02	-3.074579e-03
1.358522e+02	-3.110186e-03
1.366368e+02	-3.146205e-03
1.374260e+02	-3.182641e-03
1.382198e+02	-3.219499e-03
1.390182e+02	-3.256784e-03
1.398211e+02	-3.294500e-03
1.406287e+02	-3.332653e-03
1.414410e+02	-3.371248e-03
1.422579e+02	-3.410290e-03
1.430796e+02	-3.449783e-03
1.439060e+02	-3.489733e-03
1.447372e+02	-3.530147e-03
1.455732e+02	-3.571027e-03
1.464141e+02	-3.612381e-03
1.472597e+02	-3.654214e-03
1.481103e+02	-3.696531e-03
1.489658e+02	-3.739338e-03
1.498262e+02	-3.782640e-03
1.506916e+02	-3.826444e-03
1.515620e+02	-3.870754e-03
1.524374e+02	-3.915578e-03
1.533179e+02	-3.960920e-03
1.542034e+02	-4.006787e-03
1.550941e+02	-4.053185e-03
1.559899e+02	-4.100120e-03
1.568909e+02	-4.147598e-03
1.577971e+02	-4.195626e-03
1.587085e+02	-4.244210e-03
1.596252e+02	-4.293356e-03
1.605472e+02	-4.343070e-03
1.614745e+02	-4.393361e-03
1.624072e+02	-4.444233e-03
1.633453e+02	-4.495694e-03
1.642887e+02	-4.547750e-03
1.652377e+02	-4.600409e-03
1.661921e+02	-4.653677e-03
1.671520e+02	-4.707562e-03
1.681175e+02	-4.762071e-03
1.690885e+02	-4.817210e-03
1.700651e+02	-4.872987e-03
1.710474e+02	-4.929410e-03
1.720354e+02	-4.986485e-03
1.730291e+02	-5.044221e-03
1.740285e+02	-5.102626e-03
1.750337e+02	-5.161706e-03
1.760446e+02	-5.221469e-03
1.770615e+02	-5.281925e-03
1.780842e+02	-5.343079e-03
1.791128e+02	-5.404942e-03
1.801473e+02	-5.467520e-03
1.811878e+02	-5.530822e-03
1.822344e+02	-5.594857e-03
1.832870e+02	-5.659632e-03
1.843456e+02	-5.725157e-03
1.854104e+02	-5.791440e-03
1.864813e+02	-5.858490e-03
1.875584e+02	-5.926316e-03
1.886418e+02	-5.994926e-03
1.897313e+02	-6.064331e-03
1.908272e+02	-6.134538e-03
1.919294e+02	-6.205557e-03
1.930380e+02	-6.277398e-03
1.941530e+02	-6.350070e-03
1.952744e+02	-6.423583e-03
1.964023e+02	-6.497946e-03
1.975367e+02	-6.573169e-03
1.986777e+02	-6.649262e-03
1.998252e+02	-6.726236e-03
2.009794e+02	-6.804100e-03
2.021403e+02	-6.882864e-03
2.033078e+02	-6.962540e-03
2.044821e+02	-7.043137e-03
2.056632e+02	-7.124667e-03
2.068511e+02	-7.207139e-03
2.080459e+02	-7.290566e-03
2.092475e+02	-7.374957e-03
2.104561e+02	-7.460324e-03
2.116717e+02	-7.546678e-03
2.128943e+02	-7.634032e-03
2.141240e+02	-7.722395e-03
2.153608e+02	-7.811780e-03
2.166047e+02	-7.902199e-03
2.178558e+02	-7.993664e-03
2.191141e+02	-8.086186e-03
2.203797e+02	-8.179778e-03
2.216526e+02	-8.274452e-03
2.229329e+02	-8.370221e-03
2.242205e+02	-8.467098e-03
2.255156e+02	-8.565094e-03
2.268182e+02	-8.664224e-03
2.281283e+02	-8.764500e-03
2.294459e+02	-8.865935e-03
2.307712e+02	-8.968542e-03
2.321041e+02	-9.072336e-03
2.334447e+02	-9.177330e-03
2.347931e+02	-9.283538e-03
2.361493e+02	-9.390974e-03
2.375133e+02	-9.499651e-03
2.388851e+02	-9.609585e-03
2.402649e+02	-9.720790e-03
2.416527e+02	-9.833279e-03
2.430484e+02	-9.947070e-03
2.444523e+02	-1.006218e-02
2.458642e+02	-1.017861e-02
2.472843e+02	-1.029639e-02
2.487126e+02	-1.041554e-02
2.501492e+02	-1.053606e-02
2.515940e+02	-1.065797e-02
2.530472e+02	-1.078129e-02
2.545088e+02	-1.090604e-02
2.559789e+02	-1.103222e-02
2.574574e+02	-1.115987e-02
2.589444e+02	-1.128899e-02
2.604401e+02	-1.141961e-02
2.619444e+02	-1.155173e-02
2.634574e+02	-1.168538e-02
2.649791e+02	-1.182057e-02
2.665096e+02	-1.195733e-02
2.680489e+02	-1.209566e-02
2.695972e+02	-1.223559e-02
2.711544e+02	-1.237714e-02
2.727205e+02	-1.252033e-02
2.742958e+02	-1.266517e-02
2.758801e+02	-1.281168e-02
2.774736e+02	-1.295989e-02
2.790762e+02	-1.310980e-02
2.806882e+02	-1.326145e-02
2.823094e+02	-1.341485e-02
2.839400e+02	-1.357002e-02
2.855800e+02	-1.372698e-02
2.872295e+02	-1.388576e-02
2.888886e+02	-1.404637e-02
2.905572e+02	-1.420883e-02
2.922354e+02	-1.437317e-02
2.939234e+02	-1.453941e-02
2.956211e+02	-1.470756e-02
2.973286e+02	-1.487766e-02
2.990459e+02	-1.504972e-02
3.007732e+02	-1.522377e-02
3.025104e+02	-1.539983e-02
3.042577e+02	-1.557792e-02
3.060151e+02	-1.575807e-02
3.077826e+02	-1.594029e-02
3.095604e+02	-1.612462e-02
3.113484e+02	-1.631108e-02
3.131467e+02	-1.649968e-02
3.149554e+02	-1.669047e-02
3.167746e+02	-1.688345e-02
3.186043e+02	-1.707867e-02
3.204445e+02	-1.727613e-02
3.222954e+02	-1.747588e-02
3.241570e+02	-1.767793e-02
3.260293e+02	-1.788231e-02
3.279124e+02	-1.808905e-02
3.298064e+02	-1.829817e-02
3.317114e+02	-1.850971e-02
3.336273e+02	-1.872368e-02
3.355544e+02	-1.894013e-02
3.374925e+02	-1.915907e-02
3.394418e+02	-1.938053e-02
3.414024e+02	-1.960455e-02
3.433744e+02	-1.983116e-02
3.453577e+02	-2.006037e-02
3.473525e+02	-2.029223e-02
3.493588e+02	-2.052677e-02
3.513766e+02	-2.076400e-02
3.534062e+02	-2.100398e-02
3.554474e+02	-2.124672e-02
3.575005e+02	-2.149225e-02
3.595654e+02	-2.174062e-02
3.616422e+02	-2.199185e-02
3.637311e+02	-2.224598e-02
3.658320e+02	-2.250304e-02
3.679450e+02	-2.276305e-02
3.700702e+02	-2.302607e-02
3.722077e+02	-2.329211e-02
3.743576e+02	-2.356123e-02
3.765199e+02	-2.383344e-02
3.786946e+02	-2.410879e-02
3.808820e+02	-2.438731e-02
3.830819e+02	-2.466903e-02
3.852946e+02	-2.495401e-02
3.875200e+02	-2.524226e-02
3.897583e+02	-2.553384e-02
3.920096e+02	-2.582877e-02
3.942738e+02	-2.612710e-02
3.965511e+02	-2.642887e-02
3.988416e+02	-2.673411e-02
4.011452e+02	-2.704286e-02
4.034622e+02	-2.735517e-02
4.057926e+02	-2.767108e-02
4.081365e+02	-2.799062e-02
4.104938e+02	-2.831384e-02
4.128648e+02	-2.864078e-02
4.152495e+02	-2.897148e-02
4.176480e+02	-2.930598e-02
4.200603e+02	-2.964434e-02
4.224866e+02	-2.998659e-02
4.249268e+02	-3.033277e-02
4.273812e+02	-3.068294e-02
4.298497e+02	-3.103714e-02
4.323325e+02	-3.139541e-02
4.348297e+02	-3.175780e-02
4.373412e+02	-3.212436e-02
4.398673e+02	-3.249513e-02
4.424079e+02	-3.287017e-02
4.449633e+02	-3.324952e-02
4.475334e+02	-3.363322e-02
4.501183e+02	-3.402134e-02
4.527182e+02	-3.441392e-02
4.553330e+02	-3.481102e-02
4.579630e+02	-3.521267e-02
4.606082e+02	-3.561894e-02
4.632687e+02	-3.602988e-02
4.659445e+02	-3.644554e-02
4.686358e+02	-3.686598e-02
4.713426e+02	-3.729124e-02
4.740650e+02	-3.772139e-02
4.768032e+02	-3.815648e-02
4.795572e+02	-3.859656e-02
4.823271e+02	-3.904170e-02
4.851130e+02	-3.949195e-02
4.879150e+02	-3.994736e-02
4.907332e+02	-4.040801e-02
4.935676e+02	-4.087394e-02
4.964185e+02	-4.134521e-02
4.992858e+02	-4.182190e-02
5.021696e+02	-4.230405e-02
5.050701e+02	-4.279174e-02
5.079874e+02	-4.328502e-02
5.109215e+02	-4.378395e-02
5.138726e+02	-4.428861e-02
5.168407e+02	-4.479905e-02
5.198259e+02	-4.531535e-02
5.228284e+02	-4.583756e-02
5.258482e+02	-4.636576e-02
5.288855e+02	-4.690002e-02
5.319403e+02	-4.744040e-02
5.350128e+02	-4.798696e-02
5.381030e+02	-4.853979e-02
5.412111e+02	-4.909896e-02
5.443371e+02	-4.966452e-02
5.474812e+02	-5.023657e-02
5.506434e+02	-5.081516e-02
5.538239e+02	-5.140038e-02
5.570228e+02	-5.199230e-02
5.602401e+02	-5.259099e-02
5.634760e+02	-5.319654e-02
5.667306e+02	-5.380901e-02
5.700040e+02	-5.442849e-02
5.732964e+02	-5.505506e-02
5.766077e+02	-5.568879e-02
5.799382e+02	-5.632978e-02
5.832879e+02	-5.697809e-02
5.866569e+02	-5.763381e-02
5.900454e+02	-5.829703e-02
5.934535e+02	-5.896782e-02
5.968813e+02	-5.964629e-02
6.003288e+02	-6.033250e-02
6.037963e+02	-6.102656e-02
6.072838e+02	-6.172854e-02
6.107914e+02	-6.243854e-02
6.143194e+02	-6.315664e-02
6.178676e+02	-6.388294e-02
6.214364e+02	-6.461754e-02
6.250258e+02	-6.536051e-02
6.286359e+02	-6.611197e-02
6.322669e+02	-6.687199e-02
6.359189e+02	-6.764069e-02
6.395919e+02	-6.841815e-02
6.432862e+02	-6.920448e-02
6.470017e+02	-6.999977e-02
6.507388e+02	-7.080412e-02
6.544974e+02	-7.161765e-02
6.582778e+02	-7.244044e-02
6.620800e+02	-7.327260e-02
6.659041e+02	-7.411424e-02
6.697504e+02	-7.496547e-02
6.736188e+02	-7.582638e-02
6.775096e+02	-7.669710e-02
6.814229e+02	-7.757773e-02
6.853587e+02	-7.846837e-02
6.893173e+02	-7.936915e-02
6.932988e+02	-8.028017e-02
6.973033e+02	-8.120155e-02
7.013309e+02	-8.213340e-02
