Frequency(Hz)	Magnitude(dB)
1.000000e+01	-2.250526e+00
1.005776e+01	-2.270928e+00
1.011585e+01	-2.291169e+00
1.017428e+01	-2.311664e+00
1.023305e+01	-2.332329e+00
1.029215e+01	-2.353275e+00
1.035160e+01	-2.374276e+00
1.041139e+01	-2.395559e+00
1.047153e+01	-2.416696e+00
1.053201e+01	-2.438346e+00
1.059284e+01	-2.459907e+00
1.065403e+01	-2.481395e+00
1.071556e+01	-2.503526e+00
1.077746e+01	-2.525201e+00
1.083971e+01	-2.547270e+00
1.090232e+01	-2.569472e+00
1.096529e+01	-2.592115e+00
1.102862e+01	-2.614577e+00
1.109232e+01	-2.637313e+00
1.115639e+01	-2.660137e+00
1.122083e+01	-2.683077e+00
1.128564e+01	-2.706265e+00
1.135083e+01	-2.729289e+00
1.141639e+01	-2.753002e+00
1.148233e+01	-2.776520e+00
1.154865e+01	-2.800251e+00
1.161536e+01	-2.824063e+00
1.168245e+01	-2.847890e+00
1.174992e+01	-2.872285e+00
1.181779e+01	-2.896648e+00
1.188605e+01	-2.920706e+00
1.195470e+01	-2.945572e+00
1.202375e+01	-2.970125e+00
1.209320e+01	-2.995092e+00
1.216305e+01	-3.020078e+00
1.223330e+01	-3.045077e+00
1.230396e+01	-3.070495e+00
1.237503e+01	-3.095719e+00
1.244651e+01	-3.121442e+00
1.251840e+01	-3.147107e+00
1.259070e+01	-3.172816e+00
1.266343e+01	-3.198894e+00
1.273657e+01	-3.225207e+00
1.281014e+01	-3.251321e+00
1.288413e+01	-3.277746e+00
1.295855e+01	-3.304401e+00
1.303339e+01	-3.331212e+00
1.310867e+01	-3.357887e+00
1.318439e+01	-3.385104e+00
1.326054e+01	-3.412258e+00
1.333713e+01	-3.439776e+00
1.341417e+01	-3.466851e+00
1.349165e+01	-3.494511e+00
1.356958e+01	-3.522241e+00
1.364795e+01	-3.550207e+00
1.372678e+01	-3.577945e+00
1.380607e+01	-3.605972e+00
1.388581e+01	-3.634929e+00
1.396602e+01	-3.663021e+00
1.404668e+01	-3.691475e+00
1.412782e+01	-3.720325e+00
1.420942e+01	-3.749195e+00
1.429149e+01	-3.778073e+00
1.437404e+01	-3.807022e+00
1.445706e+01	-3.836570e+00
1.454057e+01	-3.865775e+00
1.462455e+01	-3.895582e+00
1.470902e+01	-3.925100e+00
1.479398e+01	-3.954866e+00
1.487943e+01	-3.984978e+00
1.496537e+01	-4.014989e+00
1.505181e+01	-4.045370e+00
1.513875e+01	-4.075754e+00
1.522619e+01	-4.106014e+00
1.531414e+01	-4.137015e+00
1.540259e+01	-4.167682e+00
1.549156e+01	-4.198694e+00
1.558103e+01	-4.229605e+00
1.567103e+01	-4.261007e+00
1.576155e+01	-4.292407e+00
1.585258e+01	-4.323557e+00
1.594415e+01	-4.355596e+00
1.603624e+01	-4.387066e+00
1.612886e+01	-4.419010e+00
1.622202e+01	-4.451007e+00
1.631572e+01	-4.483029e+00
1.640996e+01	-4.515405e+00
1.650474e+01	-4.547482e+00
1.660008e+01	-4.580242e+00
1.669596e+01	-4.612946e+00
1.679239e+01	-4.645924e+00
1.688938e+01	-4.678760e+00
1.698694e+01	-4.711992e+00
1.708505e+01	-4.744836e+00
1.718373e+01	-4.778176e+00
1.728299e+01	-4.811820e+00
1.738281e+01	-4.845441e+00
1.748322e+01	-4.878985e+00
1.758420e+01	-4.912759e+00
1.768576e+01	-4.946760e+00
1.778792e+01	-4.980550e+00
1.789066e+01	-5.014878e+00
1.799399e+01	-5.049254e+00
1.809793e+01	-5.083735e+00
1.820246e+01	-5.118611e+00
1.830760e+01	-5.153139e+00
1.841334e+01	-5.187668e+00
1.851969e+01	-5.222694e+00
1.862666e+01	-5.257544e+00
1.873425e+01	-5.292829e+00
1.884246e+01	-5.328192e+00
1.895129e+01	-5.363886e+00
1.906075e+01	-5.399524e+00
1.917085e+01	-5.435005e+00
1.928158e+01	-5.470608e+00
1.939295e+01	-5.506758e+00
1.950496e+01	-5.542648e+00
1.961762e+01	-5.578965e+00
1.973093e+01	-5.614972e+00
1.984490e+01	-5.651276e+00
1.995952e+01	-5.687610e+00
2.007480e+01	-5.724053e+00
2.019076e+01	-5.760931e+00
2.030738e+01	-5.797713e+00
2.042467e+01	-5.834722e+00
2.054264e+01	-5.872012e+00
2.066130e+01	-5.909027e+00
2.078064e+01	-5.946289e+00
2.090066e+01	-5.983614e+00
2.102139e+01	-6.021182e+00
2.114280e+01	-6.058662e+00
2.126492e+01	-6.095825e+00
2.138775e+01	-6.134353e+00
2.151128e+01	-6.171662e+00
2.163553e+01	-6.209718e+00
2.176050e+01	-6.248294e+00
2.188619e+01	-6.286586e+00
2.201260e+01	-6.324673e+00
2.213974e+01	-6.363083e+00
2.226762e+01	-6.401855e+00
2.239624e+01	-6.440233e+00
2.252560e+01	-6.479057e+00
2.265571e+01	-6.517787e+00
2.278656e+01	-6.556646e+00
2.291818e+01	-6.595732e+00
2.305055e+01	-6.634657e+00
2.318369e+01	-6.673802e+00
2.331760e+01	-6.713187e+00
2.345228e+01	-6.752838e+00
2.358774e+01	-6.792014e+00
2.372398e+01	-6.831887e+00
2.386101e+01	-6.871431e+00
2.399883e+01	-6.910802e+00
2.413745e+01	-6.951509e+00
2.427686e+01	-6.991128e+00
2.441709e+01	-7.031274e+00
2.455812e+01	-7.071276e+00
2.469997e+01	-7.111842e+00
2.484263e+01	-7.151859e+00
2.498612e+01	-7.192462e+00
2.513044e+01	-7.233109e+00
2.527559e+01	-7.273654e+00
2.542158e+01	-7.314514e+00
2.556842e+01	-7.355221e+00
2.571610e+01	-7.395599e+00
2.586463e+01	-7.437057e+00
2.601403e+01	-7.478047e+00
2.616428e+01	-7.519079e+00
2.631541e+01	-7.560323e+00
2.646740e+01	-7.601664e+00
2.662028e+01	-7.642961e+00
2.677404e+01	-7.684031e+00
2.692868e+01	-7.726069e+00
2.708422e+01	-7.767576e+00
2.724066e+01	-7.809285e+00
2.739800e+01	-7.850832e+00
2.755625e+01	-7.892984e+00
2.771541e+01	-7.934965e+00
2.787550e+01	-7.976309e+00
2.803650e+01	-8.019142e+00
2.819844e+01	-8.060791e+00
2.836131e+01	-8.103202e+00
2.852513e+01	-8.145680e+00
2.868989e+01	-8.187987e+00
2.885560e+01	-8.230520e+00
2.902227e+01	-8.272951e+00
2.918990e+01	-8.315527e+00
2.935850e+01	-8.358291e+00
2.952807e+01	-8.400847e+00
2.969863e+01	-8.443916e+00
2.987016e+01	-8.486514e+00
3.004269e+01	-8.529544e+00
3.021622e+01	-8.572873e+00
3.039075e+01	-8.616061e+00
3.056628e+01	-8.659111e+00
3.074283e+01	-8.702572e+00
3.092040e+01	-8.745392e+00
3.109900e+01	-8.789114e+00
3.127862e+01	-8.832713e+00
3.145929e+01	-8.875998e+00
3.164099e+01	-8.919622e+00
3.182375e+01	-8.963187e+00
3.200756e+01	-9.006639e+00
3.219244e+01	-9.051099e+00
3.237838e+01	-9.094345e+00
3.256540e+01	-9.138482e+00
3.275349e+01	-9.182125e+00
3.294268e+01	-9.225883e+00
3.313295e+01	-9.271133e+00
3.332433e+01	-9.314641e+00
3.351681e+01	-9.358984e+00
3.371040e+01	-9.403046e+00
3.390511e+01	-9.447046e+00
3.410094e+01	-9.491500e+00
3.429791e+01	-9.535662e+00
3.449601e+01	-9.580490e+00
3.469526e+01	-9.625219e+00
3.489566e+01	-9.670134e+00
3.509721e+01	-9.714455e+00
3.529993e+01	-9.759330e+00
3.550382e+01	-9.803954e+00
3.570889e+01	-9.848818e+00
3.591515e+01	-9.893732e+00
3.612259e+01	-9.938457e+00
3.633123e+01	-9.983109e+00
3.654108e+01	-1.002830e+01
3.675214e+01	-1.007389e+01
3.696442e+01	-1.011889e+01
3.717792e+01	-1.016374e+01
3.739266e+01	-1.020948e+01
3.760864e+01	-1.025415e+01
3.782587e+01	-1.030010e+01
3.804435e+01	-1.034540e+01
3.826409e+01	-1.039089e+01
3.848510e+01	-1.043604e+01
3.870739e+01	-1.048170e+01
3.893096e+01	-1.052731e+01
3.915583e+01	-1.057344e+01
3.938199e+01	-1.061883e+01
3.960946e+01	-1.066426e+01
3.983824e+01	-1.071009e+01
4.006834e+01	-1.075542e+01
4.029978e+01	-1.080159e+01
4.053255e+01	-1.084746e+01
4.076666e+01	-1.089304e+01
4.100213e+01	-1.093964e+01
4.123896e+01	-1.098519e+01
4.147715e+01	-1.103165e+01
4.171672e+01	-1.107764e+01
4.195767e+01	-1.112321e+01
4.220002e+01	-1.116982e+01
4.244377e+01	-1.121591e+01
4.268892e+01	-1.126238e+01
4.293549e+01	-1.130877e+01
4.318348e+01	-1.135564e+01
4.343291e+01	-1.140112e+01
4.368377e+01	-1.144763e+01
4.393609e+01	-1.149480e+01
4.418986e+01	-1.154093e+01
4.444510e+01	-1.158742e+01
4.470182e+01	-1.163345e+01
4.496001e+01	-1.168097e+01
4.521970e+01	-1.172780e+01
4.548089e+01	-1.177406e+01
4.574358e+01	-1.182023e+01
4.600779e+01	-1.186733e+01
4.627353e+01	-1.191416e+01
4.654081e+01	-1.196124e+01
4.680963e+01	-1.200786e+01
4.708000e+01	-1.205438e+01
4.735193e+01	-1.210152e+01
4.762543e+01	-1.214913e+01
4.790051e+01	-1.219560e+01
4.817719e+01	-1.224232e+01
4.845545e+01	-1.229008e+01
4.873533e+01	-1.233681e+01
4.901682e+01	-1.238461e+01
4.929994e+01	-1.243080e+01
4.958470e+01	-1.247765e+01
4.987110e+01	-1.252534e+01
5.015915e+01	-1.257317e+01
5.044887e+01	-1.262012e+01
5.074026e+01	-1.266731e+01
5.103333e+01	-1.271471e+01
5.132810e+01	-1.276205e+01
5.162457e+01	-1.281021e+01
5.192275e+01	-1.285733e+01
5.222265e+01	-1.290424e+01
5.252429e+01	-1.295131e+01
5.282767e+01	-1.299902e+01
5.313280e+01	-1.304660e+01
5.343969e+01	-1.309473e+01
5.374836e+01	-1.314242e+01
5.405880e+01	-1.318977e+01
5.437105e+01	-1.323683e+01
5.468509e+01	-1.328523e+01
5.500095e+01	-1.333296e+01
5.531863e+01	-1.338055e+01
5.563815e+01	-1.342772e+01
5.595951e+01	-1.347535e+01
5.628273e+01	-1.352372e+01
5.660782e+01	-1.357116e+01
5.693479e+01	-1.361925e+01
5.726364e+01	-1.366654e+01
5.759439e+01	-1.371499e+01
5.792705e+01	-1.376294e+01
5.826164e+01	-1.381165e+01
5.859815e+01	-1.385936e+01
5.893662e+01	-1.390712e+01
5.927703e+01	-1.395486e+01
5.961941e+01	-1.400302e+01
5.996377e+01	-1.405138e+01
6.031012e+01	-1.409893e+01
6.065847e+01	-1.414712e+01
6.100883e+01	-1.419506e+01
6.136121e+01	-1.424385e+01
6.171563e+01	-1.429100e+01
6.207210e+01	-1.434020e+01
6.243063e+01	-1.438698e+01
6.279122e+01	-1.443555e+01
6.315390e+01	-1.448469e+01
6.351868e+01	-1.453254e+01
6.388556e+01	-1.458114e+01
6.425456e+01	-1.462875e+01
6.462569e+01	-1.467700e+01
6.499897e+01	-1.472632e+01
6.537440e+01	-1.477450e+01
6.575200e+01	-1.482219e+01
6.613178e+01	-1.487096e+01
6.651375e+01	-1.491954e+01
6.689793e+01	-1.496712e+01
6.728433e+01	-1.501615e+01
6.767297e+01	-1.506485e+01
6.806384e+01	-1.511186e+01
6.845698e+01	-1.516195e+01
6.885238e+01	-1.521021e+01
6.925007e+01	-1.525906e+01
6.965005e+01	-1.530791e+01
7.005235e+01	-1.535601e+01
7.045697e+01	-1.540438e+01
7.086393e+01	-1.545264e+01
7.127323e+01	-1.550130e+01
7.168490e+01	-1.554898e+01
7.209895e+01	-1.559857e+01
7.251539e+01	-1.564778e+01
7.293424e+01	-1.569567e+01
7.335551e+01	-1.574548e+01
7.377920e+01	-1.579348e+01
7.420535e+01	-1.584180e+01
7.463396e+01	-1.589066e+01
7.506504e+01	-1.594092e+01
7.549861e+01	-1.598833e+01
7.593469e+01	-1.603742e+01
7.637328e+01	-1.608681e+01
7.681441e+01	-1.613440e+01
7.725809e+01	-1.618368e+01
7.770433e+01	-1.623351e+01
7.815315e+01	-1.628046e+01
7.860456e+01	-1.633030e+01
7.905857e+01	-1.637864e+01
7.951521e+01	-1.642906e+01
7.997449e+01	-1.647749e+01
8.043642e+01	-1.652600e+01
8.090102e+01	-1.657523e+01
8.136830e+01	-1.662407e+01
8.183828e+01	-1.667179e+01
8.231097e+01	-1.672079e+01
8.278640e+01	-1.677163e+01
8.326457e+01	-1.682008e+01
8.374550e+01	-1.686813e+01
8.422921e+01	-1.691697e+01
8.471572e+01	-1.696699e+01
8.520503e+01	-1.701514e+01
8.569717e+01	-1.706424e+01
8.619215e+01	-1.711403e+01
8.669000e+01	-1.716355e+01
8.719071e+01	-1.721122e+01
8.769432e+01	-1.726104e+01
8.820084e+01	-1.730964e+01
8.871029e+01	-1.735810e+01
8.922267e+01	-1.740831e+01
8.973802e+01	-1.745692e+01
9.025634e+01	-1.750776e+01
9.077766e+01	-1.755422e+01
9.130199e+01	-1.760357e+01
9.182935e+01	-1.765373e+01
9.235975e+01	-1.770322e+01
9.289321e+01	-1.775128e+01
9.342976e+01	-1.780146e+01
9.396941e+01	-1.785062e+01
9.451217e+01	-1.790113e+01
9.505807e+01	-1.794940e+01
9.560712e+01	-1.799738e+01
9.615934e+01	-1.804678e+01
9.671476e+01	-1.809602e+01
9.727338e+01	-1.814459e+01
9.783522e+01	-1.819501e+01
9.840032e+01	-1.824399e+01
9.896867e+01	-1.829400e+01
9.954031e+01	-1.834405e+01
1.001153e+02	-1.839201e+01
1.006935e+02	-1.844069e+01
1.012751e+02	-1.849142e+01
1.018601e+02	-1.854048e+01
1.024484e+02	-1.859072e+01
1.030402e+02	-1.863793e+01
1.036353e+02	-1.868881e+01
1.042339e+02	-1.873870e+01
1.048360e+02	-1.878676e+01
1.054415e+02	-1.883709e+01
1.060505e+02	-1.888576e+01
1.066631e+02	-1.893558e+01
1.072791e+02	-1.898527e+01
1.078988e+02	-1.903351e+01
1.085220e+02	-1.908454e+01
1.091488e+02	-1.913331e+01
1.097793e+02	-1.918197e+01
1.104133e+02	-1.923242e+01
1.110511e+02	-1.928153e+01
1.116925e+02	-1.933150e+01
1.123376e+02	-1.938005e+01
1.129865e+02	-1.942975e+01
1.136391e+02	-1.947804e+01
1.142955e+02	-1.952762e+01
1.149556e+02	-1.957775e+01
1.156196e+02	-1.962777e+01
1.162874e+02	-1.967672e+01
1.169591e+02	-1.972723e+01
1.176347e+02	-1.977680e+01
1.183141e+02	-1.982447e+01
1.189975e+02	-1.987422e+01
1.196848e+02	-1.992475e+01
1.203761e+02	-1.997415e+01
1.210714e+02	-2.002282e+01
1.217707e+02	-2.007324e+01
1.224740e+02	-2.012245e+01
1.231814e+02	-2.017129e+01
1.238929e+02	-2.022116e+01
1.246085e+02	-2.027055e+01
1.253283e+02	-2.032003e+01
1.260522e+02	-2.037189e+01
1.267802e+02	-2.042019e+01
1.275125e+02	-2.046991e+01
1.282490e+02	-2.051977e+01
1.289898e+02	-2.056949e+01
1.297348e+02	-2.061842e+01
1.304842e+02	-2.066835e+01
1.312378e+02	-2.071754e+01
1.319959e+02	-2.076749e+01
1.327583e+02	-2.081714e+01
1.335251e+02	-2.086697e+01
1.342963e+02	-2.091849e+01
1.350720e+02	-2.096667e+01
1.358522e+02	-2.101675e+01
1.366368e+02	-2.106464e+01
1.374260e+02	-2.111555e+01
1.382198e+02	-2.116409e+01
1.390182e+02	-2.121427e+01
1.398211e+02	-2.126485e+01
1.406287e+02	-2.131165e+01
1.414410e+02	-2.136262e+01
1.422579e+02	-2.141446e+01
1.430796e+02	-2.146145e+01
1.439060e+02	-2.151297e+01
1.447372e+02	-2.156209e+01
1.455732e+02	-2.161190e+01
1.464141e+02	-2.166248e+01
1.472597e+02	-2.171100e+01
1.481103e+02	-2.176179e+01
1.489658e+02	-2.181034e+01
1.498262e+02	-2.185968e+01
1.506916e+02	-2.191017e+01
1.515620e+02	-2.195960e+01
1.524374e+02	-2.201015e+01
1.533179e+02	-2.205683e+01
1.542034e+02	-2.210811e+01
1.550941e+02	-2.215801e+01
1.559899e+02	-2.220702e+01
1.568909e+02	-2.225700e+01
1.577971e+02	-2.230688e+01
1.587085e+02	-2.235760e+01
1.596252e+02	-2.240782e+01
1.605472e+02	-2.245436e+01
1.614745e+02	-2.250436e+01
1.624072e+02	-2.255525e+01
1.633453e+02	-2.260630e+01
1.642887e+02	-2.265504e+01
1.652377e+02	-2.270582e+01
1.661921e+02	-2.275621e+01
1.671520e+02	-2.280594e+01
1.681175e+02	-2.285646e+01
1.690885e+02	-2.290401e+01
1.700651e+02	-2.295421e+01
1.710474e+02	-2.300503e+01
1.720354e+02	-2.305430e+01
1.730291e+02	-2.310509e+01
1.740285e+02	-2.315693e+01
1.750337e+02	-2.320513e+01
1.760446e+02	-2.325360e+01
1.770615e+02	-2.330255e+01
1.780842e+02	-2.335228e+01
1.791128e+02	-2.340357e+01
1.801473e+02	-2.345303e+01
1.811878e+02	-2.350102e+01
1.822344e+02	-2.355271e+01
1.832870e+02	-2.360006e+01
1.843456e+02	-2.365239e+01
1.854104e+02	-2.370140e+01
1.864813e+02	-2.375124e+01
1.875584e+02	-2.380103e+01
1.886418e+02	-2.385213e+01
1.897313e+02	-2.390072e+01
1.908272e+02	-2.395170e+01
1.919294e+02	-2.399983e+01
1.930380e+02	-2.405133e+01
1.941530e+02	-2.410157e+01
1.952744e+02	-2.415156e+01
1.964023e+02	-2.420061e+01
1.975367e+02	-2.425123e+01
1.986777e+02	-2.429998e+01
1.998252e+02	-2.435112e+01
2.009794e+02	-2.440017e+01
2.021403e+02	-2.445050e+01
2.033078e+02	-2.450009e+01
2.044821e+02	-2.455116e+01
2.056632e+02	-2.459957e+01
2.068511e+02	-2.465069e+01
2.080459e+02	-2.470039e+01
2.092475e+02	-2.474801e+01
2.104561e+02	-2.479962e+01
2.116717e+02	-2.485242e+01
2.128943e+02	-2.489590e+01
2.141240e+02	-2.495080e+01
2.153608e+02	-2.499886e+01
2.166047e+02	-2.505167e+01
2.178558e+02	-2.510082e+01
2.191141e+02	-2.514840e+01
2.203797e+02	-2.519636e+01
2.216526e+02	-2.524748e+01
2.229329e+02	-2.529569e+01
2.242205e+02	-2.534780e+01
2.255156e+02	-2.539772e+01
2.268182e+02	-2.545117e+01
2.281283e+02	-2.549970e+01
2.294459e+02	-2.554638e+01
2.307712e+02	-2.559487e+01
2.321041e+02	-2.564626e+01
2.334447e+02	-2.569684e+01
2.347931e+02	-2.574711e+01
2.361493e+02	-2.579676e+01
2.375133e+02	-2.584839e+01
2.388851e+02	-2.589878e+01
2.402649e+02	-2.594575e+01
2.416527e+02	-2.599938e+01
2.430484e+02	-2.604718e+01
2.444523e+02	-2.610112e+01
2.458642e+02	-2.614624e+01
2.472843e+02	-2.619840e+01
2.487126e+02	-2.624636e+01
2.501492e+02	-2.629634e+01
2.515940e+02	-2.634228e+01
2.530472e+02	-2.639512e+01
2.545088e+02	-2.644514e+01
2.559789e+02	-2.649708e+01
2.574574e+02	-2.654551e+01
2.589444e+02	-2.659643e+01
2.604401e+02	-2.665041e+01
2.619444e+02	-2.669682e+01
2.634574e+02	-2.674521e+01
2.649791e+02	-2.679614e+01
2.665096e+02	-2.684704e+01
2.680489e+02	-2.689584e+01
2.695972e+02	-2.694775e+01
2.711544e+02	-2.699674e+01
2.727205e+02	-2.704704e+01
2.742958e+02	-2.709645e+01
2.758801e+02	-2.714965e+01
2.774736e+02	-2.719744e+01
2.790762e+02	-2.724470e+01
2.806882e+02	-2.729556e+01
2.823094e+02	-2.734477e+01
2.839400e+02	-2.739762e+01
2.855800e+02	-2.744648e+01
2.872295e+02	-2.749628e+01
2.888886e+02	-2.754891e+01
2.905572e+02	-2.759484e+01
2.922354e+02	-2.764664e+01
2.939234e+02	-2.769446e+01
2.956211e+02	-2.774488e+01
2.973286e+02	-2.779522e+01
2.990459e+02	-2.784279e+01
3.007732e+02	-2.789619e+01
3.025104e+02	-2.794747e+01
3.042577e+02	-2.799870e+01
3.060151e+02	-2.805005e+01
3.077826e+02	-2.809614e+01
3.095604e+02	-2.814804e+01
3.113484e+02	-2.819926e+01
3.131467e+02	-2.824480e+01
3.149554e+02	-2.829881e+01
3.167746e+02	-2.834720e+01
3.186043e+02	-2.840031e+01
3.204445e+02	-2.844875e+01
3.222954e+02	-2.849613e+01
3.241570e+02	-2.855168e+01
3.260293e+02	-2.859634e+01
3.279124e+02	-2.864998e+01
3.298064e+02	-2.869880e+01
3.317114e+02	-2.874493e+01
3.336273e+02	-2.879840e+01
3.355544e+02	-2.884736e+01
3.374925e+02	-2.889638e+01
3.394418e+02	-2.894737e+01
3.414024e+02	-2.899484e+01
3.433744e+02	-2.904609e+01
3.453577e+02	-2.909638e+01
3.473525e+02	-2.914997e+01
3.493588e+02	-2.920091e+01
3.513766e+02	-2.924687e+01
3.534062e+02	-2.930096e+01
3.554474e+02	-2.934474e+01
3.575005e+02	-2.939432e+01
3.595654e+02	-2.945101e+01
3.616422e+02	-2.949502e+01
3.637311e+02	-2.955102e+01
3.658320e+02	-2.959548e+01
3.679450e+02	-2.964795e+01
3.700702e+02	-2.969892e+01
3.722077e+02	-2.974809e+01
3.743576e+02	-2.979738e+01
3.765199e+02	-2.985440e+01
3.786946e+02	-2.989352e+01
3.808820e+02	-2.994921e+01
3.830819e+02	-2.999834e+01
3.852946e+02	-3.005126e+01
3.875200e+02	-3.009695e+01
3.897583e+02	-3.015618e+01
3.920096e+02	-3.020403e+01
3.942738e+02	-3.024717e+01
3.965511e+02	-3.030125e+01
3.988416e+02	-3.035367e+01
4.011452e+02	-3.040024e+01
4.034622e+02	-3.045066e+01
4.057926e+02	-3.049884e+01
4.081365e+02	-3.054965e+01
4.104938e+02	-3.060434e+01
4.128648e+02	-3.065180e+01
4.152495e+02	-3.069627e+01
4.176480e+02	-3.074723e+01
4.200603e+02	-3.079732e+01
4.224866e+02	-3.085147e+01
4.249268e+02	-3.089614e+01
4.273812e+02	-3.095399e+01
4.298497e+02	-3.099422e+01
4.323325e+02	-3.105405e+01
4.348297e+02	-3.109956e+01
4.373412e+02	-3.115501e+01
4.398673e+02	-3.120839e+01
4.424079e+02	-3.125629e+01
4.449633e+02	-3.129755e+01
4.475334e+02	-3.134969e+01
4.501183e+02	-3.139934e+01
4.527182e+02	-3.145209e+01
4.553330e+02	-3.150556e+01
4.579630e+02	-3.155552e+01
4.606082e+02	-3.160638e+01
4.632687e+02	-3.164741e+01
4.659445e+02	-3.170522e+01
4.686358e+02	-3.175766e+01
4.713426e+02	-3.180350e+01
4.740650e+02	-3.185548e+01
4.768032e+02	-3.190623e+01
4.795572e+02	-3.195201e+01
4.823271e+02	-3.200459e+01
4.851130e+02	-3.205218e+01
4.879150e+02	-3.210716e+01
4.907332e+02	-3.215435e+01
4.935676e+02	-3.220597e+01
4.964185e+02	-3.225512e+01
4.992858e+02	-3.230890e+01
5.021696e+02	-3.235404e+01
5.050701e+02	-3.240171e+01
5.079874e+02	-3.245397e+01
5.109215e+02	-3.251062e+01
5.138726e+02	-3.255709e+01
5.168407e+02	-3.260303e+01
5.198259e+02	-3.265712e+01
5.228284e+02	-3.270498e+01
5.258482e+02	-3.276059e+01
5.288855e+02	-3.280343e+01
5.319403e+02	-3.285637e+01
5.350128e+02	-3.291046e+01
5.381030e+02	-3.295279e+01
5.412111e+02	-3.300858e+01
5.443371e+02	-3.306136e+01
5.474812e+02	-3.310874e+01
5.506434e+02	-3.315851e+01
5.538239e+02	-3.321217e+01
5.570228e+02	-3.326433e+01
5.602401e+02	-3.331391e+01
5.634760e+02	-3.336162e+01
5.667306e+02	-3.341097e+01
5.700040e+02	-3.345592e+01
5.732964e+02	-3.351258e+01
5.766077e+02	-3.356648e+01
5.799382e+02	-3.360998e+01
5.832879e+02	-3.366126e+01
5.866569e+02	-3.371572e+01
5.900454e+02	-3.376979e+01
5.934535e+02	-3.381517e+01
5.968813e+02	-3.386186e+01
6.003288e+02	-3.391270e+01
6.037963e+02	-3.396298e+01
6.072838e+02	-3.400781e+01
6.107914e+02	-3.406975e+01
6.143194e+02	-3.410949e+01
6.178676e+02	-3.416342e+01
6.214364e+02	-3.422191e+01
6.250258e+02	-3.426559e+01
6.286359e+02	-3.431715e+01
6.322669e+02	-3.437483e+01
6.359189e+02	-3.441103e+01
6.395919e+02	-3.446630e+01
6.432862e+02	-3.452166e+01
6.470017e+02	-3.456306e+01
6.507388e+02	-3.461660e+01
6.544974e+02	-3.467559e+01
6.582778e+02	-3.471314e+01
6.620800e+02	-3.477108e+01
6.659041e+02	-3.481928e+01
6.697504e+02	-3.486974e+01
6.736188e+02	-3.491890e+01
6.775096e+02	-3.496592e+01
6.814229e+02	-3.502425e+01
6.853587e+02	-3.506675e+01
6.893173e+02	-3.511820e+01
6.932988e+02	-3.518166e+01
6.973033e+02	-3.522252e+01
7.013309e+02	-3.526744e+01
