Frequency(Hz)	Magnitude(dB)
1.000000e+01	-1.792665e-05
1.005776e+01	-1.813433e-05
1.011585e+01	-1.834442e-05
1.017428e+01	-1.855695e-05
1.023305e+01	-1.877193e-05
1.029215e+01	-1.898941e-05
1.035160e+01	-1.920941e-05
1.041139e+01	-1.943195e-05
1.047153e+01	-1.965708e-05
1.053201e+01	-1.988481e-05
1.059284e+01	-2.011518e-05
1.065403e+01	-2.034822e-05
1.071556e+01	-2.058396e-05
1.077746e+01	-2.082243e-05
1.083971e+01	-2.106366e-05
1.090232e+01	-2.130769e-05
1.096529e+01	-2.155455e-05
1.102862e+01	-2.180426e-05
1.109232e+01	-2.205687e-05
1.115639e+01	-2.231240e-05
1.122083e+01	-2.257090e-05
1.128564e+01	-2.283239e-05
1.135083e+01	-2.309691e-05
1.141639e+01	-2.336449e-05
1.148233e+01	-2.363517e-05
1.154865e+01	-2.390899e-05
1.161536e+01	-2.418598e-05
1.168245e+01	-2.446618e-05
1.174992e+01	-2.474963e-05
1.181779e+01	-2.503636e-05
1.188605e+01	-2.532641e-05
1.195470e+01	-2.561983e-05
1.202375e+01	-2.591664e-05
1.209320e+01	-2.621689e-05
1.216305e+01	-2.652062e-05
1.223330e+01	-2.682787e-05
1.230396e+01	-2.713867e-05
1.237503e+01	-2.745308e-05
1.244651e+01	-2.777113e-05
1.251840e+01	-2.809287e-05
1.259070e+01	-2.841833e-05
1.266343e+01	-2.874756e-05
1.273657e+01	-2.908061e-05
1.281014e+01	-2.941752e-05
1.288413e+01	-2.975833e-05
1.295855e+01	-3.010308e-05
1.303339e+01	-3.045183e-05
1.310867e+01	-3.080463e-05
1.318439e+01	-3.116150e-05
1.326054e+01	-3.152252e-05
1.333713e+01	-3.188771e-05
1.341417e+01	-3.225714e-05
1.349165e+01	-3.263085e-05
1.356958e+01	-3.300888e-05
1.364795e+01	-3.339130e-05
1.372678e+01	-3.377815e-05
1.380607e+01	-3.416947e-05
1.388581e+01	-3.456533e-05
1.396602e+01	-3.496578e-05
1.404668e+01	-3.537087e-05
1.412782e+01	-3.578065e-05
1.420942e+01	-3.619518e-05
1.429149e+01	-3.661450e-05
1.437404e+01	-3.703869e-05
1.445706e+01	-3.746779e-05
1.454057e+01	-3.790187e-05
1.462455e+01	-3.834097e-05
1.470902e+01	-3.878516e-05
1.479398e+01	-3.923449e-05
1.487943e+01	-3.968903e-05
1.496537e+01	-4.014884e-05
1.505181e+01	-4.061397e-05
1.513875e+01	-4.108449e-05
1.522619e+01	-4.156047e-05
1.531414e+01	-4.204196e-05
1.540259e+01	-4.252902e-05
1.549156e+01	-4.302173e-05
1.558103e+01	-4.352015e-05
1.567103e+01	-4.402434e-05
1.576155e+01	-4.453437e-05
1.585258e+01	-4.505031e-05
1.594415e+01	-4.557223e-05
1.603624e+01	-4.610019e-05
1.612886e+01	-4.663427e-05
1.622202e+01	-4.717454e-05
1.631572e+01	-4.772107e-05
1.640996e+01	-4.827392e-05
1.650474e+01	-4.883319e-05
1.660008e+01	-4.939893e-05
1.669596e+01	-4.997123e-05
1.679239e+01	-5.055016e-05
1.688938e+01	-5.113579e-05
1.698694e+01	-5.172821e-05
1.708505e+01	-5.232749e-05
1.718373e+01	-5.293372e-05
1.728299e+01	-5.354696e-05
1.738281e+01	-5.416732e-05
1.748322e+01	-5.479486e-05
1.758420e+01	-5.542967e-05
1.768576e+01	-5.607183e-05
1.778792e+01	-5.672143e-05
1.789066e+01	-5.737856e-05
1.799399e+01	-5.804331e-05
1.809793e+01	-5.871575e-05
1.820246e+01	-5.939598e-05
1.830760e+01	-6.008410e-05
1.841334e+01	-6.078018e-05
1.851969e+01	-6.148433e-05
1.862666e+01	-6.219664e-05
1.873425e+01	-6.291720e-05
1.884246e+01	-6.364611e-05
1.895129e+01	-6.438346e-05
1.906075e+01	-6.512936e-05
1.917085e+01	-6.588389e-05
1.928158e+01	-6.664717e-05
1.939295e+01	-6.741929e-05
1.950496e+01	-6.820036e-05
1.961762e+01	-6.899047e-05
1.973093e+01	-6.978974e-05
1.984490e+01	-7.059826e-05
1.995952e+01	-7.141616e-05
2.007480e+01	-7.224353e-05
2.019076e+01	-7.308048e-05
2.030738e+01	-7.392713e-05
2.042467e+01	-7.478359e-05
2.054264e+01	-7.564997e-05
2.066130e+01	-7.652639e-05
2.078064e+01	-7.741296e-05
2.090066e+01	-7.830981e-05
2.102139e+01	-7.921704e-05
2.114280e+01	-8.013478e-05
2.126492e+01	-8.106316e-05
2.138775e+01	-8.200229e-05
2.151128e+01	-8.295230e-05
2.163553e+01	-8.391331e-05
2.176050e+01	-8.488546e-05
2.188619e+01	-8.586888e-05
2.201260e+01	-8.686368e-05
2.213974e+01	-8.787001e-05
2.226762e+01	-8.888800e-05
2.239624e+01	-8.991778e-05
2.252560e+01	-9.095949e-05
2.265571e+01	-9.201327e-05
2.278656e+01	-9.307926e-05
2.291818e+01	-9.415760e-05
2.305055e+01	-9.524843e-05
2.318369e+01	-9.635190e-05
2.331760e+01	-9.746815e-05
2.345228e+01	-9.859733e-05
2.358774e+01	-9.973960e-05
2.372398e+01	-1.008951e-04
2.386101e+01	-1.020640e-04
2.399883e+01	-1.032464e-04
2.413745e+01	-1.044425e-04
2.427686e+01	-1.056525e-04
2.441709e+01	-1.068765e-04
2.455812e+01	-1.081147e-04
2.469997e+01	-1.093672e-04
2.484263e+01	-1.106342e-04
2.498612e+01	-1.119160e-04
2.513044e+01	-1.132125e-04
2.527559e+01	-1.145241e-04
2.542158e+01	-1.158509e-04
2.556842e+01	-1.171930e-04
2.571610e+01	-1.185507e-04
2.586463e+01	-1.199241e-04
2.601403e+01	-1.213135e-04
2.616428e+01	-1.227189e-04
2.631541e+01	-1.241406e-04
2.646740e+01	-1.255788e-04
2.662028e+01	-1.270336e-04
2.677404e+01	-1.285053e-04
2.692868e+01	-1.299941e-04
2.708422e+01	-1.315001e-04
2.724066e+01	-1.330235e-04
2.739800e+01	-1.345646e-04
2.755625e+01	-1.361236e-04
2.771541e+01	-1.377006e-04
2.787550e+01	-1.392958e-04
2.803650e+01	-1.409096e-04
2.819844e+01	-1.425420e-04
2.836131e+01	-1.441934e-04
2.852513e+01	-1.458639e-04
2.868989e+01	-1.475537e-04
2.885560e+01	-1.492632e-04
2.902227e+01	-1.509924e-04
2.918990e+01	-1.527417e-04
2.935850e+01	-1.545112e-04
2.952807e+01	-1.563012e-04
2.969863e+01	-1.581120e-04
2.987016e+01	-1.599437e-04
3.004269e+01	-1.617967e-04
3.021622e+01	-1.636711e-04
3.039075e+01	-1.655672e-04
3.056628e+01	-1.674853e-04
3.074283e+01	-1.694256e-04
3.092040e+01	-1.713885e-04
3.109900e+01	-1.733740e-04
3.127862e+01	-1.753825e-04
3.145929e+01	-1.774144e-04
3.164099e+01	-1.794697e-04
3.182375e+01	-1.815489e-04
3.200756e+01	-1.836521e-04
3.219244e+01	-1.857797e-04
3.237838e+01	-1.879320e-04
3.256540e+01	-1.901092e-04
3.275349e+01	-1.923116e-04
3.294268e+01	-1.945395e-04
3.313295e+01	-1.967933e-04
3.332433e+01	-1.990731e-04
3.351681e+01	-2.013794e-04
3.371040e+01	-2.037124e-04
3.390511e+01	-2.060724e-04
3.410094e+01	-2.084597e-04
3.429791e+01	-2.108748e-04
3.449601e+01	-2.133177e-04
3.469526e+01	-2.157890e-04
3.489566e+01	-2.182889e-04
3.509721e+01	-2.208178e-04
3.529993e+01	-2.233760e-04
3.550382e+01	-2.259638e-04
3.570889e+01	-2.285816e-04
3.591515e+01	-2.312297e-04
3.612259e+01	-2.339085e-04
3.633123e+01	-2.366183e-04
3.654108e+01	-2.393595e-04
3.675214e+01	-2.421325e-04
3.696442e+01	-2.449376e-04
3.717792e+01	-2.477752e-04
3.739266e+01	-2.506456e-04
3.760864e+01	-2.535493e-04
3.782587e+01	-2.564867e-04
3.804435e+01	-2.594581e-04
3.826409e+01	-2.624639e-04
3.848510e+01	-2.655045e-04
3.870739e+01	-2.685803e-04
3.893096e+01	-2.716918e-04
3.915583e+01	-2.748393e-04
3.938199e+01	-2.780233e-04
3.960946e+01	-2.812442e-04
3.983824e+01	-2.845024e-04
4.006834e+01	-2.877983e-04
4.029978e+01	-2.911324e-04
4.053255e+01	-2.945052e-04
4.076666e+01	-2.979170e-04
4.100213e+01	-3.013683e-04
4.123896e+01	-3.048596e-04
4.147715e+01	-3.083914e-04
4.171672e+01	-3.119640e-04
4.195767e+01	-3.155781e-04
4.220002e+01	-3.192340e-04
4.244377e+01	-3.229323e-04
4.268892e+01	-3.266734e-04
4.293549e+01	-3.304579e-04
4.318348e+01	-3.342862e-04
4.343291e+01	-3.381588e-04
4.368377e+01	-3.420763e-04
4.393609e+01	-3.460392e-04
4.418986e+01	-3.500480e-04
4.444510e+01	-3.541033e-04
4.470182e+01	-3.582055e-04
4.496001e+01	-3.623552e-04
4.521970e+01	-3.665530e-04
4.548089e+01	-3.707995e-04
4.574358e+01	-3.750951e-04
4.600779e+01	-3.794405e-04
4.627353e+01	-3.838362e-04
4.654081e+01	-3.882829e-04
4.680963e+01	-3.927810e-04
4.708000e+01	-3.973313e-04
4.735193e+01	-4.019343e-04
4.762543e+01	-4.065906e-04
4.790051e+01	-4.113008e-04
4.817719e+01	-4.160656e-04
4.845545e+01	-4.208856e-04
4.873533e+01	-4.257615e-04
4.901682e+01	-4.306938e-04
4.929994e+01	-4.356832e-04
4.958470e+01	-4.407305e-04
4.987110e+01	-4.458362e-04
5.015915e+01	-4.510011e-04
5.044887e+01	-4.562258e-04
5.074026e+01	-4.615110e-04
5.103333e+01	-4.668575e-04
5.132810e+01	-4.722658e-04
5.162457e+01	-4.777369e-04
5.192275e+01	-4.832713e-04
5.222265e+01	-4.888698e-04
5.252429e+01	-4.945332e-04
5.282767e+01	-5.002621e-04
5.313280e+01	-5.060575e-04
5.343969e+01	-5.119199e-04
5.374836e+01	-5.178503e-04
5.405880e+01	-5.238494e-04
5.437105e+01	-5.299180e-04
5.468509e+01	-5.360568e-04
5.500095e+01	-5.422668e-04
5.531863e+01	-5.485487e-04
5.563815e+01	-5.549034e-04
5.595951e+01	-5.613317e-04
5.628273e+01	-5.678345e-04
5.660782e+01	-5.744125e-04
5.693479e+01	-5.810668e-04
5.726364e+01	-5.877982e-04
5.759439e+01	-5.946075e-04
5.792705e+01	-6.014957e-04
5.826164e+01	-6.084637e-04
5.859815e+01	-6.155125e-04
5.893662e+01	-6.226428e-04
5.927703e+01	-6.298558e-04
5.961941e+01	-6.371523e-04
5.996377e+01	-6.445334e-04
6.031012e+01	-6.519999e-04
6.065847e+01	-6.595529e-04
6.100883e+01	-6.671934e-04
6.136121e+01	-6.749225e-04
6.171563e+01	-6.827410e-04
6.207210e+01	-6.906501e-04
6.243063e+01	-6.986508e-04
6.279122e+01	-7.067442e-04
6.315390e+01	-7.149314e-04
6.351868e+01	-7.232134e-04
6.388556e+01	-7.315913e-04
6.425456e+01	-7.400663e-04
6.462569e+01	-7.486394e-04
6.499897e+01	-7.573118e-04
6.537440e+01	-7.660847e-04
6.575200e+01	-7.749592e-04
6.613178e+01	-7.839365e-04
6.651375e+01	-7.930178e-04
6.689793e+01	-8.022043e-04
6.728433e+01	-8.114972e-04
6.767297e+01	-8.208977e-04
6.806384e+01	-8.304071e-04
6.845698e+01	-8.400267e-04
6.885238e+01	-8.497577e-04
6.925007e+01	-8.596014e-04
6.965005e+01	-8.695591e-04
7.005235e+01	-8.796322e-04
7.045697e+01	-8.898219e-04
7.086393e+01	-9.001297e-04
7.127323e+01	-9.105568e-04
7.168490e+01	-9.211048e-04
7.209895e+01	-9.317749e-04
7.251539e+01	-9.425686e-04
7.293424e+01	-9.534873e-04
7.335551e+01	-9.645325e-04
7.377920e+01	-9.757056e-04
7.420535e+01	-9.870081e-04
7.463396e+01	-9.984416e-04
7.506504e+01	-1.010007e-03
7.549861e+01	-1.021707e-03
7.593469e+01	-1.033543e-03
7.637328e+01	-1.045515e-03
7.681441e+01	-1.057626e-03
7.725809e+01	-1.069878e-03
7.770433e+01	-1.082271e-03
7.815315e+01	-1.094808e-03
7.860456e+01	-1.107490e-03
7.905857e+01	-1.120319e-03
7.951521e+01	-1.133296e-03
7.997449e+01	-1.146424e-03
8.043642e+01	-1.159704e-03
8.090102e+01	-1.173137e-03
8.136830e+01	-1.186727e-03
8.183828e+01	-1.200473e-03
8.231097e+01	-1.214379e-03
8.278640e+01	-1.228446e-03
8.326457e+01	-1.242676e-03
8.374550e+01	-1.257071e-03
8.422921e+01	-1.271632e-03
8.471572e+01	-1.286362e-03
8.520503e+01	-1.301263e-03
8.569717e+01	-1.316336e-03
8.619215e+01	-1.331584e-03
8.669000e+01	-1.347008e-03
8.719071e+01	-1.362611e-03
8.769432e+01	-1.378395e-03
8.820084e+01	-1.394361e-03
8.871029e+01	-1.410513e-03
8.922267e+01	-1.426851e-03
8.973802e+01	-1.443379e-03
9.025634e+01	-1.460098e-03
9.077766e+01	-1.477011e-03
9.130199e+01	-1.494119e-03
9.182935e+01	-1.511426e-03
9.235975e+01	-1.528933e-03
9.289321e+01	-1.546643e-03
9.342976e+01	-1.564558e-03
9.396941e+01	-1.582681e-03
9.451217e+01	-1.601013e-03
9.505807e+01	-1.619558e-03
9.560712e+01	-1.638317e-03
9.615934e+01	-1.657294e-03
9.671476e+01	-1.676491e-03
9.727338e+01	-1.695909e-03
9.783522e+01	-1.715553e-03
9.840032e+01	-1.735424e-03
9.896867e+01	-1.755525e-03
9.954031e+01	-1.775860e-03
1.001153e+02	-1.796429e-03
1.006935e+02	-1.817237e-03
1.012751e+02	-1.838286e-03
1.018601e+02	-1.859578e-03
1.024484e+02	-1.881117e-03
1.030402e+02	-1.902906e-03
1.036353e+02	-1.924946e-03
1.042339e+02	-1.947242e-03
1.048360e+02	-1.969797e-03
1.054415e+02	-1.992612e-03
1.060505e+02	-2.015691e-03
1.066631e+02	-2.039038e-03
1.072791e+02	-2.062655e-03
1.078988e+02	-2.086546e-03
1.085220e+02	-2.110713e-03
1.091488e+02	-2.135161e-03
1.097793e+02	-2.159891e-03
1.104133e+02	-2.184907e-03
1.110511e+02	-2.210214e-03
1.116925e+02	-2.235813e-03
1.123376e+02	-2.261709e-03
1.129865e+02	-2.287904e-03
1.136391e+02	-2.314403e-03
1.142955e+02	-2.341209e-03
1.149556e+02	-2.368325e-03
1.156196e+02	-2.395755e-03
1.162874e+02	-2.423503e-03
1.169591e+02	-2.451572e-03
1.176347e+02	-2.479966e-03
1.183141e+02	-2.508689e-03
1.189975e+02	-2.537744e-03
1.196848e+02	-2.567136e-03
1.203761e+02	-2.596868e-03
1.210714e+02	-2.626944e-03
1.217707e+02	-2.657369e-03
1.224740e+02	-2.688145e-03
1.231814e+02	-2.719279e-03
1.238929e+02	-2.750772e-03
1.246085e+02	-2.782630e-03
1.253283e+02	-2.814857e-03
1.260522e+02	-2.847458e-03
1.267802e+02	-2.880435e-03
1.275125e+02	-2.913795e-03
1.282490e+02	-2.947540e-03
1.289898e+02	-2.981676e-03
1.297348e+02	-3.016208e-03
1.304842e+02	-3.051139e-03
1.312378e+02	-3.086475e-03
1.319959e+02	-3.122220e-03
1.327583e+02	-3.158378e-03
1.335251e+02	-3.194955e-03
1.342963e+02	-3.231956e-03
1.350720e+02	-3.269385e-03
1.358522e+02	-3.307247e-03
1.366368e+02	-3.345548e-03
1.374260e+02	-3.384292e-03
1.382198e+02	-3.423484e-03
1.390182e+02	-3.463130e-03
1.398211e+02	-3.503235e-03
1.406287e+02	-3.543804e-03
1.414410e+02	-3.584843e-03
1.422579e+02	-3.626357e-03
1.430796e+02	-3.668352e-03
1.439060e+02	-3.710833e-03
1.447372e+02	-3.753805e-03
1.455732e+02	-3.797275e-03
1.464141e+02	-3.841248e-03
1.472597e+02	-3.885729e-03
1.481103e+02	-3.930726e-03
1.489658e+02	-3.976244e-03
1.498262e+02	-4.022288e-03
1.506916e+02	-4.068866e-03
1.515620e+02	-4.115982e-03
1.524374e+02	-4.163644e-03
1.533179e+02	-4.211857e-03
1.542034e+02	-4.260629e-03
1.550941e+02	-4.309965e-03
1.559899e+02	-4.359872e-03
1.568909e+02	-4.410356e-03
1.577971e+02	-4.461425e-03
1.587085e+02	-4.513085e-03
1.596252e+02	-4.565343e-03
1.605472e+02	-4.618205e-03
1.614745e+02	-4.671680e-03
1.624072e+02	-4.725773e-03
1.633453e+02	-4.780492e-03
1.642887e+02	-4.835844e-03
1.652377e+02	-4.891837e-03
1.661921e+02	-4.948478e-03
1.671520e+02	-5.005774e-03
1.681175e+02	-5.063733e-03
1.690885e+02	-5.122363e-03
1.700651e+02	-5.181672e-03
1.710474e+02	-5.241667e-03
1.720354e+02	-5.302355e-03
1.730291e+02	-5.363747e-03
1.740285e+02	-5.425848e-03
1.750337e+02	-5.488668e-03
1.760446e+02	-5.552215e-03
1.770615e+02	-5.616497e-03
1.780842e+02	-5.681523e-03
1.791128e+02	-5.747301e-03
1.801473e+02	-5.813840e-03
1.811878e+02	-5.881150e-03
1.822344e+02	-5.949237e-03
1.832870e+02	-6.018113e-03
1.843456e+02	-6.087785e-03
1.854104e+02	-6.158264e-03
1.864813e+02	-6.229558e-03
1.875584e+02	-6.301676e-03
1.886418e+02	-6.374629e-03
1.897313e+02	-6.448426e-03
1.908272e+02	-6.523076e-03
1.919294e+02	-6.598590e-03
1.930380e+02	-6.674977e-03
1.941530e+02	-6.752249e-03
1.952744e+02	-6.830413e-03
1.964023e+02	-6.909482e-03
1.975367e+02	-6.989466e-03
1.986777e+02	-7.070375e-03
1.998252e+02	-7.152219e-03
2.009794e+02	-7.235010e-03
2.021403e+02	-7.318759e-03
2.033078e+02	-7.403476e-03
2.044821e+02	-7.489173e-03
2.056632e+02	-7.575861e-03
2.068511e+02	-7.663552e-03
2.080459e+02	-7.752256e-03
2.092475e+02	-7.841987e-03
2.104561e+02	-7.932755e-03
2.116717e+02	-8.024573e-03
2.128943e+02	-8.117452e-03
2.141240e+02	-8.211406e-03
2.153608e+02	-8.306446e-03
2.166047e+02	-8.402585e-03
2.178558e+02	-8.499836e-03
2.191141e+02	-8.598211e-03
2.203797e+02	-8.697723e-03
2.216526e+02	-8.798386e-03
2.229329e+02	-8.900213e-03
2.242205e+02	-9.003217e-03
2.255156e+02	-9.107412e-03
2.268182e+02	-9.212811e-03
2.281283e+02	-9.319429e-03
2.294459e+02	-9.427279e-03
2.307712e+02	-9.536376e-03
2.321041e+02	-9.646735e-03
2.334447e+02	-9.758369e-03
2.347931e+02	-9.871293e-03
2.361493e+02	-9.985522e-03
2.375133e+02	-1.010107e-02
2.388851e+02	-1.021796e-02
2.402649e+02	-1.033619e-02
2.416527e+02	-1.045580e-02
2.430484e+02	-1.057678e-02
2.444523e+02	-1.069917e-02
2.458642e+02	-1.082296e-02
2.472843e+02	-1.094819e-02
2.487126e+02	-1.107487e-02
2.501492e+02	-1.120301e-02
2.515940e+02	-1.133263e-02
2.530472e+02	-1.146374e-02
2.545088e+02	-1.159638e-02
2.559789e+02	-1.173054e-02
2.574574e+02	-1.186625e-02
2.589444e+02	-1.200354e-02
2.604401e+02	-1.214241e-02
2.619444e+02	-1.228288e-02
2.634574e+02	-1.242498e-02
2.649791e+02	-1.256871e-02
2.665096e+02	-1.271411e-02
2.680489e+02	-1.286119e-02
2.695972e+02	-1.300997e-02
2.711544e+02	-1.316046e-02
2.727205e+02	-1.331269e-02
2.742958e+02	-1.346668e-02
2.758801e+02	-1.362245e-02
2.774736e+02	-1.378002e-02
2.790762e+02	-1.393941e-02
2.806882e+02	-1.410064e-02
2.823094e+02	-1.426373e-02
2.839400e+02	-1.442870e-02
2.855800e+02	-1.459558e-02
2.872295e+02	-1.476438e-02
2.888886e+02	-1.493514e-02
2.905572e+02	-1.510786e-02
2.922354e+02	-1.528258e-02
2.939234e+02	-1.545932e-02
2.956211e+02	-1.563810e-02
2.973286e+02	-1.581894e-02
2.990459e+02	-1.600186e-02
3.007732e+02	-1.618690e-02
3.025104e+02	-1.637408e-02
3.042577e+02	-1.656341e-02
3.060151e+02	-1.675493e-02
3.077826e+02	-1.694866e-02
3.095604e+02	-1.714463e-02
3.113484e+02	-1.734286e-02
3.131467e+02	-1.754337e-02
3.149554e+02	-1.774620e-02
3.167746e+02	-1.795137e-02
3.186043e+02	-1.815890e-02
3.204445e+02	-1.836883e-02
3.222954e+02	-1.858118e-02
3.241570e+02	-1.879598e-02
3.260293e+02	-1.901326e-02
3.279124e+02	-1.923304e-02
3.298064e+02	-1.945536e-02
3.317114e+02	-1.968024e-02
3.336273e+02	-1.990772e-02
3.355544e+02	-2.013782e-02
3.374925e+02	-2.037057e-02
3.394418e+02	-2.060601e-02
3.414024e+02	-2.084416e-02
3.433744e+02	-2.108506e-02
3.453577e+02	-2.132873e-02
3.473525e+02	-2.157521e-02
3.493588e+02	-2.182454e-02
3.513766e+02	-2.207674e-02
3.534062e+02	-2.233184e-02
3.554474e+02	-2.258989e-02
3.575005e+02	-2.285090e-02
3.595654e+02	-2.311493e-02
3.616422e+02	-2.338200e-02
3.637311e+02	-2.365215e-02
3.658320e+02	-2.392540e-02
3.679450e+02	-2.420181e-02
3.700702e+02	-2.448140e-02
3.722077e+02	-2.476422e-02
3.743576e+02	-2.505029e-02
3.765199e+02	-2.533965e-02
3.786946e+02	-2.563235e-02
3.808820e+02	-2.592841e-02
3.830819e+02	-2.622789e-02
3.852946e+02	-2.653082e-02
3.875200e+02	-2.683723e-02
3.897583e+02	-2.714717e-02
3.920096e+02	-2.746068e-02
3.942738e+02	-2.777780e-02
3.965511e+02	-2.809857e-02
3.988416e+02	-2.842303e-02
4.011452e+02	-2.875122e-02
4.034622e+02	-2.908320e-02
4.057926e+02	-2.941899e-02
4.081365e+02	-2.975864e-02
4.104938e+02	-3.010221e-02
4.128648e+02	-3.044972e-02
4.152495e+02	-3.080123e-02
4.176480e+02	-3.115679e-02
4.200603e+02	-3.151644e-02
4.224866e+02	-3.188022e-02
4.249268e+02	-3.224818e-02
4.273812e+02	-3.262038e-02
4.298497e+02	-3.299686e-02
4.323325e+02	-3.337766e-02
4.348297e+02	-3.376284e-02
4.373412e+02	-3.415245e-02
4.398673e+02	-3.454654e-02
4.424079e+02	-3.494515e-02
4.449633e+02	-3.534835e-02
4.475334e+02	-3.575618e-02
4.501183e+02	-3.616869e-02
4.527182e+02	-3.658595e-02
4.553330e+02	-3.700799e-02
4.579630e+02	-3.743489e-02
4.606082e+02	-3.786669e-02
4.632687e+02	-3.830344e-02
4.659445e+02	-3.874521e-02
4.686358e+02	-3.919206e-02
4.713426e+02	-3.964403e-02
4.740650e+02	-4.010119e-02
4.768032e+02	-4.056360e-02
4.795572e+02	-4.103131e-02
4.823271e+02	-4.150439e-02
4.851130e+02	-4.198290e-02
4.879150e+02	-4.246690e-02
4.907332e+02	-4.295645e-02
4.935676e+02	-4.345162e-02
4.964185e+02	-4.395247e-02
4.992858e+02	-4.445905e-02
5.021696e+02	-4.497145e-02
5.050701e+02	-4.548972e-02
5.079874e+02	-4.601394e-02
5.109215e+02	-4.654416e-02
5.138726e+02	-4.708045e-02
5.168407e+02	-4.762290e-02
5.198259e+02	-4.817155e-02
5.228284e+02	-4.872650e-02
5.258482e+02	-4.928780e-02
5.288855e+02	-4.985553e-02
5.319403e+02	-5.042976e-02
5.350128e+02	-5.101056e-02
5.381030e+02	-5.159801e-02
5.412111e+02	-5.219219e-02
5.443371e+02	-5.279317e-02
5.474812e+02	-5.340103e-02
5.506434e+02	-5.401584e-02
5.538239e+02	-5.463769e-02
5.570228e+02	-5.526664e-02
5.602401e+02	-5.590280e-02
5.634760e+02	-5.654622e-02
5.667306e+02	-5.719701e-02
5.700040e+02	-5.785523e-02
5.732964e+02	-5.852097e-02
5.766077e+02	-5.919433e-02
5.799382e+02	-5.987538e-02
5.832879e+02	-6.056421e-02
5.866569e+02	-6.126091e-02
5.900454e+02	-6.196556e-02
5.934535e+02	-6.267826e-02
5.968813e+02	-6.339910e-02
6.003288e+02	-6.412817e-02
6.037963e+02	-6.486556e-02
6.072838e+02	-6.561137e-02
6.107914e+02	-6.636568e-02
6.143194e+02	-6.712860e-02
6.178676e+02	-6.790022e-02
6.214364e+02	-6.868063e-02
6.250258e+02	-6.946995e-02
6.286359e+02	-7.026826e-02
6.322669e+02	-7.107568e-02
6.359189e+02	-7.189229e-02
6.395919e+02	-7.271821e-02
6.432862e+02	-7.355353e-02
6.470017e+02	-7.439837e-02
6.507388e+02	-7.525283e-02
6.544974e+02	-7.611701e-02
6.582778e+02	-7.699103e-02
6.620800e+02	-7.787500e-02
6.659041e+02	-7.876902e-02
6.697504e+02	-7.967321e-02
6.736188e+02	-8.058768e-02
6.775096e+02	-8.151256e-02
6.814229e+02	-8.244794e-02
6.853587e+02	-8.339396e-02
6.893173e+02	-8.435072e-02
6.932988e+02	-8.531835e-02
6.973033e+02	-8.629698e-02
7.013309e+02	-8.728671e-02
