Frequency(Hz)	Magnitude(dB)
1.000000e+01	-2.293885e+00
1.005776e+01	-2.314480e+00
1.011585e+01	-2.335283e+00
1.017428e+01	-2.356135e+00
1.023305e+01	-2.377054e+00
1.029215e+01	-2.398072e+00
1.035160e+01	-2.419641e+00
1.041139e+01	-2.440702e+00
1.047153e+01	-2.462551e+00
1.053201e+01	-2.484204e+00
1.059284e+01	-2.506018e+00
1.065403e+01	-2.527980e+00
1.071556e+01	-2.550232e+00
1.077746e+01	-2.572576e+00
1.083971e+01	-2.595061e+00
1.090232e+01	-2.617685e+00
1.096529e+01	-2.640038e+00
1.102862e+01	-2.663232e+00
1.109232e+01	-2.686222e+00
1.115639e+01	-2.709323e+00
1.122083e+01	-2.732676e+00
1.128564e+01	-2.755918e+00
1.135083e+01	-2.779698e+00
1.141639e+01	-2.803338e+00
1.148233e+01	-2.826987e+00
1.154865e+01	-2.851285e+00
1.161536e+01	-2.875396e+00
1.168245e+01	-2.899698e+00
1.174992e+01	-2.924142e+00
1.181779e+01	-2.948509e+00
1.188605e+01	-2.973397e+00
1.195470e+01	-2.998151e+00
1.202375e+01	-3.023258e+00
1.209320e+01	-3.048390e+00
1.216305e+01	-3.073780e+00
1.223330e+01	-3.099472e+00
1.230396e+01	-3.124885e+00
1.237503e+01	-3.150583e+00
1.244651e+01	-3.176381e+00
1.251840e+01	-3.202543e+00
1.259070e+01	-3.228399e+00
1.266343e+01	-3.254722e+00
1.273657e+01	-3.281287e+00
1.281014e+01	-3.308032e+00
1.288413e+01	-3.334723e+00
1.295855e+01	-3.361975e+00
1.303339e+01	-3.388735e+00
1.310867e+01	-3.416042e+00
1.318439e+01	-3.443305e+00
1.326054e+01	-3.470437e+00
1.333713e+01	-3.498150e+00
1.341417e+01	-3.525861e+00
1.349165e+01	-3.553865e+00
1.356958e+01	-3.581857e+00
1.364795e+01	-3.610069e+00
1.372678e+01	-3.638311e+00
1.380607e+01	-3.666583e+00
1.388581e+01	-3.695265e+00
1.396602e+01	-3.724154e+00
1.404668e+01	-3.752754e+00
1.412782e+01	-3.781941e+00
1.420942e+01	-3.810906e+00
1.429149e+01	-3.840456e+00
1.437404e+01	-3.869735e+00
1.445706e+01	-3.899397e+00
1.454057e+01	-3.929081e+00
1.462455e+01	-3.958923e+00
1.470902e+01	-3.989040e+00
1.479398e+01	-4.019121e+00
1.487943e+01	-4.049286e+00
1.496537e+01	-4.079617e+00
1.505181e+01	-4.110331e+00
1.513875e+01	-4.141091e+00
1.522619e+01	-4.171681e+00
1.531414e+01	-4.202562e+00
1.540259e+01	-4.233873e+00
1.549156e+01	-4.265288e+00
1.558103e+01	-4.296530e+00
1.567103e+01	-4.327790e+00
1.576155e+01	-4.359465e+00
1.585258e+01	-4.391289e+00
1.594415e+01	-4.423042e+00
1.603624e+01	-4.455283e+00
1.612886e+01	-4.487474e+00
1.622202e+01	-4.519656e+00
1.631572e+01	-4.551847e+00
1.640996e+01	-4.584740e+00
1.650474e+01	-4.617254e+00
1.660008e+01	-4.650199e+00
1.669596e+01	-4.683044e+00
1.679239e+01	-4.715755e+00
1.688938e+01	-4.749471e+00
1.698694e+01	-4.782584e+00
1.708505e+01	-4.816005e+00
1.718373e+01	-4.849951e+00
1.728299e+01	-4.883224e+00
1.738281e+01	-4.917323e+00
1.748322e+01	-4.951335e+00
1.758420e+01	-4.984975e+00
1.768576e+01	-5.019538e+00
1.778792e+01	-5.053577e+00
1.789066e+01	-5.088213e+00
1.799399e+01	-5.122872e+00
1.809793e+01	-5.157623e+00
1.820246e+01	-5.192540e+00
1.830760e+01	-5.227498e+00
1.841334e+01	-5.262121e+00
1.851969e+01	-5.297875e+00
1.862666e+01	-5.332735e+00
1.873425e+01	-5.368642e+00
1.884246e+01	-5.403708e+00
1.895129e+01	-5.439777e+00
1.906075e+01	-5.475572e+00
1.917085e+01	-5.511261e+00
1.928158e+01	-5.547239e+00
1.939295e+01	-5.583402e+00
1.950496e+01	-5.619686e+00
1.961762e+01	-5.656173e+00
1.973093e+01	-5.692200e+00
1.984490e+01	-5.729026e+00
1.995952e+01	-5.765717e+00
2.007480e+01	-5.802376e+00
2.019076e+01	-5.839738e+00
2.030738e+01	-5.877022e+00
2.042467e+01	-5.913763e+00
2.054264e+01	-5.950953e+00
2.066130e+01	-5.988640e+00
2.078064e+01	-6.025884e+00
2.090066e+01	-6.063421e+00
2.102139e+01	-6.101194e+00
2.114280e+01	-6.139252e+00
2.126492e+01	-6.177139e+00
2.138775e+01	-6.214896e+00
2.151128e+01	-6.253298e+00
2.163553e+01	-6.290998e+00
2.176050e+01	-6.329687e+00
2.188619e+01	-6.367845e+00
2.201260e+01	-6.406395e+00
2.213974e+01	-6.445292e+00
2.226762e+01	-6.484020e+00
2.239624e+01	-6.522710e+00
2.252560e+01	-6.562118e+00
2.265571e+01	-6.600583e+00
2.278656e+01	-6.639800e+00
2.291818e+01	-6.679333e+00
2.305055e+01	-6.718252e+00
2.318369e+01	-6.757818e+00
2.331760e+01	-6.797265e+00
2.345228e+01	-6.836930e+00
2.358774e+01	-6.876773e+00
2.372398e+01	-6.916763e+00
2.386101e+01	-6.956061e+00
2.399883e+01	-6.996356e+00
2.413745e+01	-7.036577e+00
2.427686e+01	-7.076608e+00
2.441709e+01	-7.117094e+00
2.455812e+01	-7.157078e+00
2.469997e+01	-7.197747e+00
2.484263e+01	-7.238190e+00
2.498612e+01	-7.278787e+00
2.513044e+01	-7.319867e+00
2.527559e+01	-7.360389e+00
2.542158e+01	-7.401287e+00
2.556842e+01	-7.442132e+00
2.571610e+01	-7.483229e+00
2.586463e+01	-7.524431e+00
2.601403e+01	-7.565687e+00
2.616428e+01	-7.606807e+00
2.631541e+01	-7.648231e+00
2.646740e+01	-7.689822e+00
2.662028e+01	-7.731098e+00
2.677404e+01	-7.772871e+00
2.692868e+01	-7.814485e+00
2.708422e+01	-7.856632e+00
2.724066e+01	-7.898061e+00
2.739800e+01	-7.940637e+00
2.755625e+01	-7.982355e+00
2.771541e+01	-8.024303e+00
2.787550e+01	-8.066895e+00
2.803650e+01	-8.108589e+00
2.819844e+01	-8.151225e+00
2.836131e+01	-8.193712e+00
2.852513e+01	-8.236163e+00
2.868989e+01	-8.278754e+00
2.885560e+01	-8.321590e+00
2.902227e+01	-8.363974e+00
2.918990e+01	-8.406372e+00
2.935850e+01	-8.450019e+00
2.952807e+01	-8.492637e+00
2.969863e+01	-8.535409e+00
2.987016e+01	-8.578339e+00
3.004269e+01	-8.621529e+00
3.021622e+01	-8.664553e+00
3.039075e+01	-8.707888e+00
3.056628e+01	-8.751447e+00
3.074283e+01	-8.794730e+00
3.092040e+01	-8.837972e+00
3.109900e+01	-8.881869e+00
3.127862e+01	-8.925711e+00
3.145929e+01	-8.969086e+00
3.164099e+01	-9.012800e+00
3.182375e+01	-9.056796e+00
3.200756e+01	-9.099971e+00
3.219244e+01	-9.143956e+00
3.237838e+01	-9.188274e+00
3.256540e+01	-9.232139e+00
3.275349e+01	-9.276010e+00
3.294268e+01	-9.319630e+00
3.313295e+01	-9.364622e+00
3.332433e+01	-9.409030e+00
3.351681e+01	-9.453196e+00
3.371040e+01	-9.497053e+00
3.390511e+01	-9.541879e+00
3.410094e+01	-9.586471e+00
3.429791e+01	-9.631047e+00
3.449601e+01	-9.675035e+00
3.469526e+01	-9.720250e+00
3.489566e+01	-9.765073e+00
3.509721e+01	-9.809861e+00
3.529993e+01	-9.854875e+00
3.550382e+01	-9.899286e+00
3.570889e+01	-9.944498e+00
3.591515e+01	-9.989525e+00
3.612259e+01	-1.003444e+01
3.633123e+01	-1.007987e+01
3.654108e+01	-1.012478e+01
3.675214e+01	-1.016985e+01
3.696442e+01	-1.021556e+01
3.717792e+01	-1.026049e+01
3.739266e+01	-1.030538e+01
3.760864e+01	-1.035155e+01
3.782587e+01	-1.039633e+01
3.804435e+01	-1.044184e+01
3.826409e+01	-1.048787e+01
3.848510e+01	-1.053341e+01
3.870739e+01	-1.057911e+01
3.893096e+01	-1.062457e+01
3.915583e+01	-1.067036e+01
3.938199e+01	-1.071639e+01
3.960946e+01	-1.076209e+01
3.983824e+01	-1.080736e+01
4.006834e+01	-1.085319e+01
4.029978e+01	-1.090000e+01
4.053255e+01	-1.094515e+01
4.076666e+01	-1.099147e+01
4.100213e+01	-1.103792e+01
4.123896e+01	-1.108343e+01
4.147715e+01	-1.112978e+01
4.171672e+01	-1.117618e+01
4.195767e+01	-1.122202e+01
4.220002e+01	-1.126897e+01
4.244377e+01	-1.131490e+01
4.268892e+01	-1.136065e+01
4.293549e+01	-1.140761e+01
4.318348e+01	-1.145450e+01
4.343291e+01	-1.150033e+01
4.368377e+01	-1.154675e+01
4.393609e+01	-1.159385e+01
4.418986e+01	-1.163964e+01
4.444510e+01	-1.168692e+01
4.470182e+01	-1.173314e+01
4.496001e+01	-1.177979e+01
4.521970e+01	-1.182642e+01
4.548089e+01	-1.187347e+01
4.574358e+01	-1.192003e+01
4.600779e+01	-1.196724e+01
4.627353e+01	-1.201398e+01
4.654081e+01	-1.206128e+01
4.680963e+01	-1.210801e+01
4.708000e+01	-1.215448e+01
4.735193e+01	-1.220164e+01
4.762543e+01	-1.224878e+01
4.790051e+01	-1.229585e+01
4.817719e+01	-1.234266e+01
4.845545e+01	-1.239050e+01
4.873533e+01	-1.243713e+01
4.901682e+01	-1.248450e+01
4.929994e+01	-1.253122e+01
4.958470e+01	-1.257877e+01
4.987110e+01	-1.262661e+01
5.015915e+01	-1.267364e+01
5.044887e+01	-1.272036e+01
5.074026e+01	-1.276811e+01
5.103333e+01	-1.281531e+01
5.132810e+01	-1.286316e+01
5.162457e+01	-1.291045e+01
5.192275e+01	-1.295780e+01
5.222265e+01	-1.300489e+01
5.252429e+01	-1.305284e+01
5.282767e+01	-1.310091e+01
5.313280e+01	-1.314817e+01
5.343969e+01	-1.319444e+01
5.374836e+01	-1.324345e+01
5.405880e+01	-1.329159e+01
5.437105e+01	-1.333874e+01
5.468509e+01	-1.338706e+01
5.500095e+01	-1.343408e+01
5.531863e+01	-1.348221e+01
5.563815e+01	-1.352949e+01
5.595951e+01	-1.357705e+01
5.628273e+01	-1.362448e+01
5.660782e+01	-1.367286e+01
5.693479e+01	-1.372130e+01
5.726364e+01	-1.376941e+01
5.759439e+01	-1.381681e+01
5.792705e+01	-1.386568e+01
5.826164e+01	-1.391299e+01
5.859815e+01	-1.396098e+01
5.893662e+01	-1.400888e+01
5.927703e+01	-1.405758e+01
5.961941e+01	-1.410523e+01
5.996377e+01	-1.415350e+01
6.031012e+01	-1.420090e+01
6.065847e+01	-1.424956e+01
6.100883e+01	-1.429750e+01
6.136121e+01	-1.434609e+01
6.171563e+01	-1.439436e+01
6.207210e+01	-1.444244e+01
6.243063e+01	-1.449080e+01
6.279122e+01	-1.453974e+01
6.315390e+01	-1.458845e+01
6.351868e+01	-1.463562e+01
6.388556e+01	-1.468337e+01
6.425456e+01	-1.473223e+01
6.462569e+01	-1.478075e+01
6.499897e+01	-1.482885e+01
6.537440e+01	-1.487759e+01
6.575200e+01	-1.492576e+01
6.613178e+01	-1.497468e+01
6.651375e+01	-1.502305e+01
6.689793e+01	-1.507131e+01
6.728433e+01	-1.512002e+01
6.767297e+01	-1.516678e+01
6.806384e+01	-1.521598e+01
6.845698e+01	-1.526539e+01
6.885238e+01	-1.531365e+01
6.925007e+01	-1.536174e+01
6.965005e+01	-1.541011e+01
7.005235e+01	-1.545911e+01
7.045697e+01	-1.550747e+01
7.086393e+01	-1.555686e+01
7.127323e+01	-1.560641e+01
7.168490e+01	-1.565387e+01
7.209895e+01	-1.570203e+01
7.251539e+01	-1.575077e+01
7.293424e+01	-1.579932e+01
7.335551e+01	-1.584768e+01
7.377920e+01	-1.589710e+01
7.420535e+01	-1.594551e+01
7.463396e+01	-1.599456e+01
7.506504e+01	-1.604356e+01
7.549861e+01	-1.609306e+01
7.593469e+01	-1.614048e+01
7.637328e+01	-1.619033e+01
7.681441e+01	-1.623905e+01
7.725809e+01	-1.628649e+01
7.770433e+01	-1.633698e+01
7.815315e+01	-1.638586e+01
7.860456e+01	-1.643364e+01
7.905857e+01	-1.648377e+01
7.951521e+01	-1.653219e+01
7.997449e+01	-1.658129e+01
8.043642e+01	-1.662916e+01
8.090102e+01	-1.667882e+01
8.136830e+01	-1.672811e+01
8.183828e+01	-1.677710e+01
8.231097e+01	-1.682542e+01
8.278640e+01	-1.687493e+01
8.326457e+01	-1.692399e+01
8.374550e+01	-1.697200e+01
8.422921e+01	-1.702073e+01
8.471572e+01	-1.707158e+01
8.520503e+01	-1.711999e+01
8.569717e+01	-1.717026e+01
8.619215e+01	-1.721773e+01
8.669000e+01	-1.726723e+01
8.719071e+01	-1.731478e+01
8.769432e+01	-1.736693e+01
8.820084e+01	-1.741370e+01
8.871029e+01	-1.746383e+01
8.922267e+01	-1.751324e+01
8.973802e+01	-1.756314e+01
9.025634e+01	-1.761150e+01
9.077766e+01	-1.766045e+01
9.130199e+01	-1.770996e+01
9.182935e+01	-1.775789e+01
9.235975e+01	-1.780863e+01
9.289321e+01	-1.785624e+01
9.342976e+01	-1.790635e+01
9.396941e+01	-1.795643e+01
9.451217e+01	-1.800606e+01
9.505807e+01	-1.805358e+01
9.560712e+01	-1.810337e+01
9.615934e+01	-1.815212e+01
9.671476e+01	-1.820170e+01
9.727338e+01	-1.825149e+01
9.783522e+01	-1.830089e+01
9.840032e+01	-1.834969e+01
9.896867e+01	-1.839877e+01
9.954031e+01	-1.844773e+01
1.001153e+02	-1.849746e+01
1.006935e+02	-1.854686e+01
1.012751e+02	-1.859613e+01
1.018601e+02	-1.864500e+01
1.024484e+02	-1.869411e+01
1.030402e+02	-1.874488e+01
1.036353e+02	-1.879459e+01
1.042339e+02	-1.884318e+01
1.048360e+02	-1.889353e+01
1.054415e+02	-1.894227e+01
1.060505e+02	-1.899162e+01
1.066631e+02	-1.904015e+01
1.072791e+02	-1.909010e+01
1.078988e+02	-1.914069e+01
1.085220e+02	-1.918734e+01
1.091488e+02	-1.923872e+01
1.097793e+02	-1.928946e+01
1.104133e+02	-1.933689e+01
1.110511e+02	-1.938689e+01
1.116925e+02	-1.943520e+01
1.123376e+02	-1.948556e+01
1.129865e+02	-1.953568e+01
1.136391e+02	-1.958539e+01
1.142955e+02	-1.963495e+01
1.149556e+02	-1.968312e+01
1.156196e+02	-1.973369e+01
1.162874e+02	-1.978198e+01
1.169591e+02	-1.983192e+01
1.176347e+02	-1.988116e+01
1.183141e+02	-1.993094e+01
1.189975e+02	-1.998060e+01
1.196848e+02	-2.003008e+01
1.203761e+02	-2.008015e+01
1.210714e+02	-2.012954e+01
1.217707e+02	-2.017907e+01
1.224740e+02	-2.022938e+01
1.231814e+02	-2.027698e+01
1.238929e+02	-2.032645e+01
1.246085e+02	-2.037771e+01
1.253283e+02	-2.042727e+01
1.260522e+02	-2.047748e+01
1.267802e+02	-2.052740e+01
1.275125e+02	-2.057554e+01
1.282490e+02	-2.062641e+01
1.289898e+02	-2.067316e+01
1.297348e+02	-2.072461e+01
1.304842e+02	-2.077421e+01
1.312378e+02	-2.082366e+01
1.319959e+02	-2.087239e+01
1.327583e+02	-2.092337e+01
1.335251e+02	-2.097373e+01
1.342963e+02	-2.102300e+01
1.350720e+02	-2.107212e+01
1.358522e+02	-2.112275e+01
1.366368e+02	-2.117017e+01
1.374260e+02	-2.121789e+01
1.382198e+02	-2.127177e+01
1.390182e+02	-2.132031e+01
1.398211e+02	-2.137038e+01
1.406287e+02	-2.142046e+01
1.414410e+02	-2.146932e+01
1.422579e+02	-2.151921e+01
1.430796e+02	-2.156765e+01
1.439060e+02	-2.161891e+01
1.447372e+02	-2.166884e+01
1.455732e+02	-2.171619e+01
1.464141e+02	-2.176772e+01
1.472597e+02	-2.181638e+01
1.481103e+02	-2.186537e+01
1.489658e+02	-2.191447e+01
1.498262e+02	-2.196611e+01
1.506916e+02	-2.201626e+01
1.515620e+02	-2.206431e+01
1.524374e+02	-2.211380e+01
1.533179e+02	-2.216499e+01
1.542034e+02	-2.221339e+01
1.550941e+02	-2.226718e+01
1.559899e+02	-2.231394e+01
1.568909e+02	-2.236532e+01
1.577971e+02	-2.241558e+01
1.587085e+02	-2.246386e+01
1.596252e+02	-2.251388e+01
1.605472e+02	-2.256391e+01
1.614745e+02	-2.261228e+01
1.624072e+02	-2.266045e+01
1.633453e+02	-2.271306e+01
1.642887e+02	-2.276188e+01
1.652377e+02	-2.280935e+01
1.661921e+02	-2.286127e+01
1.671520e+02	-2.291408e+01
1.681175e+02	-2.295933e+01
1.690885e+02	-2.300982e+01
1.700651e+02	-2.306108e+01
1.710474e+02	-2.311326e+01
1.720354e+02	-2.315932e+01
1.730291e+02	-2.321241e+01
1.740285e+02	-2.325825e+01
1.750337e+02	-2.330917e+01
1.760446e+02	-2.336073e+01
1.770615e+02	-2.340885e+01
1.780842e+02	-2.345930e+01
1.791128e+02	-2.350908e+01
1.801473e+02	-2.355734e+01
1.811878e+02	-2.360931e+01
1.822344e+02	-2.365905e+01
1.832870e+02	-2.370759e+01
1.843456e+02	-2.375953e+01
1.854104e+02	-2.380736e+01
1.864813e+02	-2.385870e+01
1.875584e+02	-2.390860e+01
1.886418e+02	-2.395991e+01
1.897313e+02	-2.400751e+01
1.908272e+02	-2.405914e+01
1.919294e+02	-2.410861e+01
1.930380e+02	-2.415423e+01
1.941530e+02	-2.420765e+01
1.952744e+02	-2.425636e+01
1.964023e+02	-2.430725e+01
1.975367e+02	-2.435593e+01
1.986777e+02	-2.440530e+01
1.998252e+02	-2.445675e+01
2.009794e+02	-2.450680e+01
2.021403e+02	-2.455685e+01
2.033078e+02	-2.460683e+01
2.044821e+02	-2.465723e+01
2.056632e+02	-2.470504e+01
2.068511e+02	-2.475550e+01
2.080459e+02	-2.480728e+01
2.092475e+02	-2.485638e+01
2.104561e+02	-2.490343e+01
2.116717e+02	-2.495528e+01
2.128943e+02	-2.500632e+01
2.141240e+02	-2.505624e+01
2.153608e+02	-2.510555e+01
2.166047e+02	-2.515670e+01
2.178558e+02	-2.520472e+01
2.191141e+02	-2.525381e+01
2.203797e+02	-2.530498e+01
2.216526e+02	-2.535596e+01
2.229329e+02	-2.540429e+01
2.242205e+02	-2.545674e+01
2.255156e+02	-2.550360e+01
2.268182e+02	-2.555700e+01
2.281283e+02	-2.560384e+01
2.294459e+02	-2.565273e+01
2.307712e+02	-2.570531e+01
2.321041e+02	-2.575286e+01
2.334447e+02	-2.580368e+01
2.347931e+02	-2.585342e+01
2.361493e+02	-2.590291e+01
2.375133e+02	-2.595198e+01
2.388851e+02	-2.600448e+01
2.402649e+02	-2.605288e+01
2.416527e+02	-2.610309e+01
2.430484e+02	-2.615405e+01
2.444523e+02	-2.620339e+01
2.458642e+02	-2.625419e+01
2.472843e+02	-2.630316e+01
2.487126e+02	-2.635266e+01
2.501492e+02	-2.640599e+01
2.515940e+02	-2.645035e+01
2.530472e+02	-2.650435e+01
2.545088e+02	-2.655417e+01
2.559789e+02	-2.660079e+01
2.574574e+02	-2.665495e+01
2.589444e+02	-2.670542e+01
2.604401e+02	-2.675578e+01
2.619444e+02	-2.680269e+01
2.634574e+02	-2.685378e+01
2.649791e+02	-2.690247e+01
2.665096e+02	-2.694969e+01
2.680489e+02	-2.700383e+01
2.695972e+02	-2.705192e+01
2.711544e+02	-2.709991e+01
2.727205e+02	-2.715309e+01
2.742958e+02	-2.720453e+01
2.758801e+02	-2.725315e+01
2.774736e+02	-2.730572e+01
2.790762e+02	-2.735333e+01
2.806882e+02	-2.740147e+01
2.823094e+02	-2.745187e+01
2.839400e+02	-2.750232e+01
2.855800e+02	-2.755377e+01
2.872295e+02	-2.760568e+01
2.888886e+02	-2.765415e+01
2.905572e+02	-2.770365e+01
2.922354e+02	-2.775553e+01
2.939234e+02	-2.780494e+01
2.956211e+02	-2.785636e+01
2.973286e+02	-2.790094e+01
2.990459e+02	-2.795685e+01
3.007732e+02	-2.800264e+01
3.025104e+02	-2.805382e+01
3.042577e+02	-2.809995e+01
3.060151e+02	-2.814859e+01
3.077826e+02	-2.820385e+01
3.095604e+02	-2.825216e+01
3.113484e+02	-2.830229e+01
3.131467e+02	-2.835317e+01
3.149554e+02	-2.840312e+01
3.167746e+02	-2.845416e+01
3.186043e+02	-2.850175e+01
3.204445e+02	-2.855538e+01
3.222954e+02	-2.860363e+01
3.241570e+02	-2.865729e+01
3.260293e+02	-2.870725e+01
3.279124e+02	-2.875403e+01
3.298064e+02	-2.880214e+01
3.317114e+02	-2.885279e+01
3.336273e+02	-2.890205e+01
3.355544e+02	-2.895378e+01
3.374925e+02	-2.900571e+01
3.394418e+02	-2.905271e+01
3.414024e+02	-2.910237e+01
3.433744e+02	-2.916009e+01
3.453577e+02	-2.920407e+01
3.473525e+02	-2.925322e+01
3.493588e+02	-2.930999e+01
3.513766e+02	-2.935145e+01
3.534062e+02	-2.940522e+01
3.554474e+02	-2.945008e+01
3.575005e+02	-2.950330e+01
3.595654e+02	-2.955648e+01
3.616422e+02	-2.960673e+01
3.637311e+02	-2.965242e+01
3.658320e+02	-2.970080e+01
3.679450e+02	-2.975482e+01
3.700702e+02	-2.980218e+01
3.722077e+02	-2.985916e+01
3.743576e+02	-2.990542e+01
3.765199e+02	-2.995637e+01
3.786946e+02	-3.000358e+01
3.808820e+02	-3.005488e+01
3.830819e+02	-3.011037e+01
3.852946e+02	-3.015399e+01
3.875200e+02	-3.020360e+01
3.897583e+02	-3.025338e+01
3.920096e+02	-3.030698e+01
3.942738e+02	-3.035236e+01
3.965511e+02	-3.041012e+01
3.988416e+02	-3.046110e+01
4.011452e+02	-3.049918e+01
4.034622e+02	-3.055903e+01
4.057926e+02	-3.060723e+01
4.081365e+02	-3.065555e+01
4.104938e+02	-3.070945e+01
4.128648e+02	-3.075859e+01
4.152495e+02	-3.080598e+01
4.176480e+02	-3.085200e+01
4.200603e+02	-3.090824e+01
4.224866e+02	-3.095493e+01
4.249268e+02	-3.100781e+01
4.273812e+02	-3.106022e+01
4.298497e+02	-3.110721e+01
4.323325e+02	-3.115826e+01
4.348297e+02	-3.121298e+01
4.373412e+02	-3.126000e+01
4.398673e+02	-3.130815e+01
4.424079e+02	-3.135830e+01
4.449633e+02	-3.140422e+01
4.475334e+02	-3.146322e+01
4.501183e+02	-3.150866e+01
4.527182e+02	-3.156264e+01
4.553330e+02	-3.161336e+01
4.579630e+02	-3.165560e+01
4.606082e+02	-3.170854e+01
4.632687e+02	-3.175972e+01
4.659445e+02	-3.181329e+01
4.686358e+02	-3.186032e+01
4.713426e+02	-3.190847e+01
4.740650e+02	-3.196147e+01
4.768032e+02	-3.201145e+01
4.795572e+02	-3.206063e+01
4.823271e+02	-3.211731e+01
4.851130e+02	-3.215856e+01
4.879150e+02	-3.221455e+01
4.907332e+02	-3.226208e+01
4.935676e+02	-3.231393e+01
4.964185e+02	-3.235452e+01
4.992858e+02	-3.241743e+01
5.021696e+02	-3.246693e+01
5.050701e+02	-3.250870e+01
5.079874e+02	-3.256227e+01
5.109215e+02	-3.261737e+01
5.138726e+02	-3.266805e+01
5.168407e+02	-3.271656e+01
5.198259e+02	-3.275686e+01
5.228284e+02	-3.281035e+01
5.258482e+02	-3.286426e+01
5.288855e+02	-3.291671e+01
5.319403e+02	-3.296622e+01
5.350128e+02	-3.301444e+01
5.381030e+02	-3.306533e+01
5.412111e+02	-3.311522e+01
5.443371e+02	-3.316904e+01
5.474812e+02	-3.321675e+01
5.506434e+02	-3.326105e+01
5.538239e+02	-3.332035e+01
5.570228e+02	-3.336399e+01
5.602401e+02	-3.341855e+01
5.634760e+02	-3.347399e+01
5.667306e+02	-3.351675e+01
5.700040e+02	-3.356456e+01
5.732964e+02	-3.361344e+01
5.766077e+02	-3.367106e+01
5.799382e+02	-3.371556e+01
5.832879e+02	-3.376453e+01
5.866569e+02	-3.381975e+01
5.900454e+02	-3.386714e+01
5.934535e+02	-3.391635e+01
5.968813e+02	-3.397615e+01
6.003288e+02	-3.401726e+01
6.037963e+02	-3.407006e+01
6.072838e+02	-3.412261e+01
6.107914e+02	-3.417168e+01
6.143194e+02	-3.421942e+01
6.178676e+02	-3.427664e+01
6.214364e+02	-3.432061e+01
6.250258e+02	-3.437176e+01
6.286359e+02	-3.442148e+01
6.322669e+02	-3.446973e+01
6.359189e+02	-3.451763e+01
6.395919e+02	-3.457221e+01
6.432862e+02	-3.462564e+01
6.470017e+02	-3.467224e+01
6.507388e+02	-3.472084e+01
6.544974e+02	-3.477484e+01
6.582778e+02	-3.482412e+01
6.620800e+02	-3.487111e+01
6.659041e+02	-3.493083e+01
6.697504e+02	-3.497354e+01
6.736188e+02	-3.502014e+01
6.775096e+02	-3.507960e+01
6.814229e+02	-3.513046e+01
6.853587e+02	-3.518506e+01
6.893173e+02	-3.521843e+01
6.932988e+02	-3.528196e+01
6.973033e+02	-3.533424e+01
7.013309e+02	-3.538085e+01
