Frequency(Hz)	Magnitude(dB)
1.000000e+01	-2.335631e+00
1.005776e+01	-2.356473e+00
1.011585e+01	-2.377610e+00
1.017428e+01	-2.398589e+00
1.023305e+01	-2.420027e+00
1.029215e+01	-2.441397e+00
1.035160e+01	-2.463086e+00
1.041139e+01	-2.485013e+00
1.047153e+01	-2.506770e+00
1.053201e+01	-2.528710e+00
1.059284e+01	-2.550644e+00
1.065403e+01	-2.572964e+00
1.071556e+01	-2.595467e+00
1.077746e+01	-2.618104e+00
1.083971e+01	-2.640928e+00
1.090232e+01	-2.663718e+00
1.096529e+01	-2.686649e+00
1.102862e+01	-2.709778e+00
1.109232e+01	-2.733087e+00
1.115639e+01	-2.756518e+00
1.122083e+01	-2.780087e+00
1.128564e+01	-2.803894e+00
1.135083e+01	-2.827761e+00
1.141639e+01	-2.851600e+00
1.148233e+01	-2.876114e+00
1.154865e+01	-2.900006e+00
1.161536e+01	-2.924645e+00
1.168245e+01	-2.949154e+00
1.174992e+01	-2.973826e+00
1.181779e+01	-2.998863e+00
1.188605e+01	-3.023531e+00
1.195470e+01	-3.049143e+00
1.202375e+01	-3.074387e+00
1.209320e+01	-3.099658e+00
1.216305e+01	-3.125242e+00
1.223330e+01	-3.151203e+00
1.230396e+01	-3.176898e+00
1.237503e+01	-3.203148e+00
1.244651e+01	-3.229142e+00
1.251840e+01	-3.255365e+00
1.259070e+01	-3.281856e+00
1.266343e+01	-3.308688e+00
1.273657e+01	-3.335166e+00
1.281014e+01	-3.362278e+00
1.288413e+01	-3.389002e+00
1.295855e+01	-3.416233e+00
1.303339e+01	-3.443782e+00
1.310867e+01	-3.471452e+00
1.318439e+01	-3.498655e+00
1.326054e+01	-3.526486e+00
1.333713e+01	-3.554335e+00
1.341417e+01	-3.582490e+00
1.349165e+01	-3.610407e+00
1.356958e+01	-3.639156e+00
1.364795e+01	-3.667313e+00
1.372678e+01	-3.695850e+00
1.380607e+01	-3.724382e+00
1.388581e+01	-3.753452e+00
1.396602e+01	-3.782570e+00
1.404668e+01	-3.811598e+00
1.412782e+01	-3.840816e+00
1.420942e+01	-3.870445e+00
1.429149e+01	-3.899724e+00
1.437404e+01	-3.929662e+00
1.445706e+01	-3.959514e+00
1.454057e+01	-3.989706e+00
1.462455e+01	-4.019861e+00
1.470902e+01	-4.050241e+00
1.479398e+01	-4.080579e+00
1.487943e+01	-4.111071e+00
1.496537e+01	-4.141720e+00
1.505181e+01	-4.172328e+00
1.513875e+01	-4.203363e+00
1.522619e+01	-4.234259e+00
1.531414e+01	-4.265709e+00
1.540259e+01	-4.296981e+00
1.549156e+01	-4.328615e+00
1.558103e+01	-4.360229e+00
1.567103e+01	-4.392052e+00
1.576155e+01	-4.423679e+00
1.585258e+01	-4.455810e+00
1.594415e+01	-4.488089e+00
1.603624e+01	-4.520476e+00
1.612886e+01	-4.552772e+00
1.622202e+01	-4.585253e+00
1.631572e+01	-4.618031e+00
1.640996e+01	-4.650499e+00
1.650474e+01	-4.683635e+00
1.660008e+01	-4.716677e+00
1.669596e+01	-4.749822e+00
1.679239e+01	-4.783328e+00
1.688938e+01	-4.817075e+00
1.698694e+01	-4.850437e+00
1.708505e+01	-4.884228e+00
1.718373e+01	-4.917889e+00
1.728299e+01	-4.951859e+00
1.738281e+01	-4.986109e+00
1.748322e+01	-5.020455e+00
1.758420e+01	-5.054547e+00
1.768576e+01	-5.089077e+00
1.778792e+01	-5.123509e+00
1.789066e+01	-5.158244e+00
1.799399e+01	-5.192955e+00
1.809793e+01	-5.228238e+00
1.820246e+01	-5.263229e+00
1.830760e+01	-5.298256e+00
1.841334e+01	-5.333705e+00
1.851969e+01	-5.369035e+00
1.862666e+01	-5.404899e+00
1.873425e+01	-5.440350e+00
1.884246e+01	-5.476435e+00
1.895129e+01	-5.512013e+00
1.906075e+01	-5.548143e+00
1.917085e+01	-5.583967e+00
1.928158e+01	-5.620621e+00
1.939295e+01	-5.656929e+00
1.950496e+01	-5.693619e+00
1.961762e+01	-5.729886e+00
1.973093e+01	-5.766428e+00
1.984490e+01	-5.803348e+00
1.995952e+01	-5.840278e+00
2.007480e+01	-5.877019e+00
2.019076e+01	-5.914716e+00
2.030738e+01	-5.952099e+00
2.042467e+01	-5.989404e+00
2.054264e+01	-6.026455e+00
2.066130e+01	-6.064236e+00
2.078064e+01	-6.101812e+00
2.090066e+01	-6.139958e+00
2.102139e+01	-6.177580e+00
2.114280e+01	-6.215640e+00
2.126492e+01	-6.253533e+00
2.138775e+01	-6.291989e+00
2.151128e+01	-6.330542e+00
2.163553e+01	-6.368724e+00
2.176050e+01	-6.407346e+00
2.188619e+01	-6.445948e+00
2.201260e+01	-6.485045e+00
2.213974e+01	-6.523366e+00
2.226762e+01	-6.562719e+00
2.239624e+01	-6.601778e+00
2.252560e+01	-6.640779e+00
2.265571e+01	-6.679830e+00
2.278656e+01	-6.719293e+00
2.291818e+01	-6.759124e+00
2.305055e+01	-6.798159e+00
2.318369e+01	-6.837709e+00
2.331760e+01	-6.877423e+00
2.345228e+01	-6.917535e+00
2.358774e+01	-6.957560e+00
2.372398e+01	-6.997204e+00
2.386101e+01	-7.037229e+00
2.399883e+01	-7.077122e+00
2.413745e+01	-7.118016e+00
2.427686e+01	-7.158212e+00
2.441709e+01	-7.198161e+00
2.455812e+01	-7.239070e+00
2.469997e+01	-7.279964e+00
2.484263e+01	-7.320649e+00
2.498612e+01	-7.361109e+00
2.513044e+01	-7.402285e+00
2.527559e+01	-7.443049e+00
2.542158e+01	-7.483935e+00
2.556842e+01	-7.525223e+00
2.571610e+01	-7.566234e+00
2.586463e+01	-7.607798e+00
2.601403e+01	-7.649177e+00
2.616428e+01	-7.690717e+00
2.631541e+01	-7.732024e+00
2.646740e+01	-7.773932e+00
2.662028e+01	-7.815375e+00
2.677404e+01	-7.856928e+00
2.692868e+01	-7.899271e+00
2.708422e+01	-7.941560e+00
2.724066e+01	-7.983133e+00
2.739800e+01	-8.025359e+00
2.755625e+01	-8.067402e+00
2.771541e+01	-8.109937e+00
2.787550e+01	-8.152516e+00
2.803650e+01	-8.194209e+00
2.819844e+01	-8.237054e+00
2.836131e+01	-8.279802e+00
2.852513e+01	-8.321928e+00
2.868989e+01	-8.364674e+00
2.885560e+01	-8.407600e+00
2.902227e+01	-8.450681e+00
2.918990e+01	-8.493506e+00
2.935850e+01	-8.536223e+00
2.952807e+01	-8.579093e+00
2.969863e+01	-8.622524e+00
2.987016e+01	-8.665352e+00
3.004269e+01	-8.708907e+00
3.021622e+01	-8.752779e+00
3.039075e+01	-8.795983e+00
3.056628e+01	-8.838525e+00
3.074283e+01	-8.882670e+00
3.092040e+01	-8.926326e+00
3.109900e+01	-8.969875e+00
3.127862e+01	-9.013290e+00
3.145929e+01	-9.057257e+00
3.164099e+01	-9.101196e+00
3.182375e+01	-9.145246e+00
3.200756e+01	-9.189166e+00
3.219244e+01	-9.232758e+00
3.237838e+01	-9.277185e+00
3.256540e+01	-9.321578e+00
3.275349e+01	-9.365672e+00
3.294268e+01	-9.409636e+00
3.313295e+01	-9.454180e+00
3.332433e+01	-9.498223e+00
3.351681e+01	-9.543262e+00
3.371040e+01	-9.587478e+00
3.390511e+01	-9.631922e+00
3.410094e+01	-9.676836e+00
3.429791e+01	-9.721536e+00
3.449601e+01	-9.765953e+00
3.469526e+01	-9.810740e+00
3.489566e+01	-9.855606e+00
3.509721e+01	-9.900765e+00
3.529993e+01	-9.945733e+00
3.550382e+01	-9.990289e+00
3.570889e+01	-1.003535e+01
3.591515e+01	-1.008059e+01
3.612259e+01	-1.012555e+01
3.633123e+01	-1.017061e+01
3.654108e+01	-1.021654e+01
3.675214e+01	-1.026176e+01
3.696442e+01	-1.030680e+01
3.717792e+01	-1.035209e+01
3.739266e+01	-1.039756e+01
3.760864e+01	-1.044301e+01
3.782587e+01	-1.048866e+01
3.804435e+01	-1.053449e+01
3.826409e+01	-1.057983e+01
3.848510e+01	-1.062536e+01
3.870739e+01	-1.067097e+01
3.893096e+01	-1.071752e+01
3.915583e+01	-1.076280e+01
3.938199e+01	-1.080857e+01
3.960946e+01	-1.085467e+01
3.983824e+01	-1.090077e+01
4.006834e+01	-1.094674e+01
4.029978e+01	-1.099265e+01
4.053255e+01	-1.103850e+01
4.076666e+01	-1.108421e+01
4.100213e+01	-1.113091e+01
4.123896e+01	-1.117660e+01
4.147715e+01	-1.122313e+01
4.171672e+01	-1.127019e+01
4.195767e+01	-1.131563e+01
4.220002e+01	-1.136195e+01
4.244377e+01	-1.140852e+01
4.268892e+01	-1.145508e+01
4.293549e+01	-1.150151e+01
4.318348e+01	-1.154823e+01
4.343291e+01	-1.159411e+01
4.368377e+01	-1.164045e+01
4.393609e+01	-1.168744e+01
4.418986e+01	-1.173444e+01
4.444510e+01	-1.178103e+01
4.470182e+01	-1.182754e+01
4.496001e+01	-1.187469e+01
4.521970e+01	-1.192168e+01
4.548089e+01	-1.196835e+01
4.574358e+01	-1.201485e+01
4.600779e+01	-1.206224e+01
4.627353e+01	-1.210886e+01
4.654081e+01	-1.215583e+01
4.680963e+01	-1.220304e+01
4.708000e+01	-1.224983e+01
4.735193e+01	-1.229707e+01
4.762543e+01	-1.234377e+01
4.790051e+01	-1.239119e+01
4.817719e+01	-1.243815e+01
4.845545e+01	-1.248537e+01
4.873533e+01	-1.253316e+01
4.901682e+01	-1.257940e+01
4.929994e+01	-1.262716e+01
4.958470e+01	-1.267445e+01
4.987110e+01	-1.272181e+01
5.015915e+01	-1.276949e+01
5.044887e+01	-1.281696e+01
5.074026e+01	-1.286426e+01
5.103333e+01	-1.291147e+01
5.132810e+01	-1.295892e+01
5.162457e+01	-1.300744e+01
5.192275e+01	-1.305317e+01
5.222265e+01	-1.310153e+01
5.252429e+01	-1.314915e+01
5.282767e+01	-1.319688e+01
5.313280e+01	-1.324459e+01
5.343969e+01	-1.329225e+01
5.374836e+01	-1.333971e+01
5.405880e+01	-1.338799e+01
5.437105e+01	-1.343510e+01
5.468509e+01	-1.348298e+01
5.500095e+01	-1.353057e+01
5.531863e+01	-1.357806e+01
5.563815e+01	-1.362688e+01
5.595951e+01	-1.367451e+01
5.628273e+01	-1.372249e+01
5.660782e+01	-1.376958e+01
5.693479e+01	-1.381816e+01
5.726364e+01	-1.386594e+01
5.759439e+01	-1.391379e+01
5.792705e+01	-1.396289e+01
5.826164e+01	-1.401056e+01
5.859815e+01	-1.405839e+01
5.893662e+01	-1.410633e+01
5.927703e+01	-1.415357e+01
5.961941e+01	-1.420287e+01
5.996377e+01	-1.425106e+01
6.031012e+01	-1.429909e+01
6.065847e+01	-1.434757e+01
6.100883e+01	-1.439534e+01
6.136121e+01	-1.444292e+01
6.171563e+01	-1.449120e+01
6.207210e+01	-1.453983e+01
6.243063e+01	-1.458871e+01
6.279122e+01	-1.463647e+01
6.315390e+01	-1.468444e+01
6.351868e+01	-1.473347e+01
6.388556e+01	-1.478228e+01
6.425456e+01	-1.482999e+01
6.462569e+01	-1.487845e+01
6.499897e+01	-1.492628e+01
6.537440e+01	-1.497507e+01
6.575200e+01	-1.502433e+01
6.613178e+01	-1.507187e+01
6.651375e+01	-1.512090e+01
6.689793e+01	-1.516859e+01
6.728433e+01	-1.521773e+01
6.767297e+01	-1.526603e+01
6.806384e+01	-1.531484e+01
6.845698e+01	-1.536289e+01
6.885238e+01	-1.541104e+01
6.925007e+01	-1.546033e+01
6.965005e+01	-1.550903e+01
7.005235e+01	-1.555905e+01
7.045697e+01	-1.560670e+01
7.086393e+01	-1.565438e+01
7.127323e+01	-1.570392e+01
7.168490e+01	-1.575242e+01
7.209895e+01	-1.580106e+01
7.251539e+01	-1.585008e+01
7.293424e+01	-1.589802e+01
7.335551e+01	-1.594688e+01
7.377920e+01	-1.599627e+01
7.420535e+01	-1.604538e+01
7.463396e+01	-1.609466e+01
7.506504e+01	-1.614232e+01
7.549861e+01	-1.619136e+01
7.593469e+01	-1.624035e+01
7.637328e+01	-1.628821e+01
7.681441e+01	-1.633808e+01
7.725809e+01	-1.638602e+01
7.770433e+01	-1.643610e+01
7.815315e+01	-1.648483e+01
7.860456e+01	-1.653250e+01
7.905857e+01	-1.658197e+01
7.951521e+01	-1.663045e+01
7.997449e+01	-1.668169e+01
8.043642e+01	-1.672970e+01
8.090102e+01	-1.677859e+01
8.136830e+01	-1.682663e+01
8.183828e+01	-1.687549e+01
8.231097e+01	-1.692348e+01
8.278640e+01	-1.697418e+01
8.326457e+01	-1.702288e+01
8.374550e+01	-1.707230e+01
8.422921e+01	-1.712107e+01
8.471572e+01	-1.716966e+01
8.520503e+01	-1.722010e+01
8.569717e+01	-1.726906e+01
8.619215e+01	-1.731636e+01
8.669000e+01	-1.736682e+01
8.719071e+01	-1.741618e+01
8.769432e+01	-1.746508e+01
8.820084e+01	-1.751389e+01
8.871029e+01	-1.756286e+01
8.922267e+01	-1.761234e+01
8.973802e+01	-1.766177e+01
9.025634e+01	-1.771153e+01
9.077766e+01	-1.775974e+01
9.130199e+01	-1.780892e+01
9.182935e+01	-1.785845e+01
9.235975e+01	-1.790783e+01
9.289321e+01	-1.795580e+01
9.342976e+01	-1.800573e+01
9.396941e+01	-1.805560e+01
9.451217e+01	-1.810374e+01
9.505807e+01	-1.815312e+01
9.560712e+01	-1.820264e+01
9.615934e+01	-1.825284e+01
9.671476e+01	-1.830311e+01
9.727338e+01	-1.835128e+01
9.783522e+01	-1.839966e+01
9.840032e+01	-1.844982e+01
9.896867e+01	-1.849887e+01
9.954031e+01	-1.854798e+01
1.001153e+02	-1.859786e+01
1.006935e+02	-1.864709e+01
1.012751e+02	-1.869572e+01
1.018601e+02	-1.874550e+01
1.024484e+02	-1.879487e+01
1.030402e+02	-1.884480e+01
1.036353e+02	-1.889405e+01
1.042339e+02	-1.894300e+01
1.048360e+02	-1.899267e+01
1.054415e+02	-1.904153e+01
1.060505e+02	-1.909211e+01
1.066631e+02	-1.914214e+01
1.072791e+02	-1.919073e+01
1.078988e+02	-1.923979e+01
1.085220e+02	-1.928918e+01
1.091488e+02	-1.933839e+01
1.097793e+02	-1.938794e+01
1.104133e+02	-1.943869e+01
1.110511e+02	-1.948566e+01
1.116925e+02	-1.953604e+01
1.123376e+02	-1.958534e+01
1.129865e+02	-1.963556e+01
1.136391e+02	-1.968320e+01
1.142955e+02	-1.973552e+01
1.149556e+02	-1.978373e+01
1.156196e+02	-1.983271e+01
1.162874e+02	-1.988362e+01
1.169591e+02	-1.993226e+01
1.176347e+02	-1.998337e+01
1.183141e+02	-2.003230e+01
1.189975e+02	-2.007895e+01
1.196848e+02	-2.012926e+01
1.203761e+02	-2.018014e+01
1.210714e+02	-2.022835e+01
1.217707e+02	-2.027863e+01
1.224740e+02	-2.032746e+01
1.231814e+02	-2.037787e+01
1.238929e+02	-2.042832e+01
1.246085e+02	-2.047661e+01
1.253283e+02	-2.052693e+01
1.260522e+02	-2.057814e+01
1.267802e+02	-2.062690e+01
1.275125e+02	-2.067531e+01
1.282490e+02	-2.072484e+01
1.289898e+02	-2.077426e+01
1.297348e+02	-2.082483e+01
1.304842e+02	-2.087405e+01
1.312378e+02	-2.092444e+01
1.319959e+02	-2.097502e+01
1.327583e+02	-2.102250e+01
1.335251e+02	-2.107235e+01
1.342963e+02	-2.112165e+01
1.350720e+02	-2.117225e+01
1.358522e+02	-2.122184e+01
1.366368e+02	-2.127195e+01
1.374260e+02	-2.132050e+01
1.382198e+02	-2.136868e+01
1.390182e+02	-2.142079e+01
1.398211e+02	-2.146879e+01
1.406287e+02	-2.151904e+01
1.414410e+02	-2.157068e+01
1.422579e+02	-2.161848e+01
1.430796e+02	-2.166889e+01
1.439060e+02	-2.171764e+01
1.447372e+02	-2.176975e+01
1.455732e+02	-2.181743e+01
1.464141e+02	-2.186755e+01
1.472597e+02	-2.192005e+01
1.481103e+02	-2.196685e+01
1.489658e+02	-2.201927e+01
1.498262e+02	-2.206614e+01
1.506916e+02	-2.211627e+01
1.515620e+02	-2.216639e+01
1.524374e+02	-2.221832e+01
1.533179e+02	-2.226603e+01
1.542034e+02	-2.231649e+01
1.550941e+02	-2.236642e+01
1.559899e+02	-2.241556e+01
1.568909e+02	-2.246388e+01
1.577971e+02	-2.251502e+01
1.587085e+02	-2.256381e+01
1.596252e+02	-2.261226e+01
1.605472e+02	-2.266381e+01
1.614745e+02	-2.271334e+01
1.624072e+02	-2.276346e+01
1.633453e+02	-2.281476e+01
1.642887e+02	-2.286078e+01
1.652377e+02	-2.291306e+01
1.661921e+02	-2.296390e+01
1.671520e+02	-2.301275e+01
1.681175e+02	-2.306255e+01
1.690885e+02	-2.311288e+01
1.700651e+02	-2.316364e+01
1.710474e+02	-2.321102e+01
1.720354e+02	-2.326041e+01
1.730291e+02	-2.331088e+01
1.740285e+02	-2.336138e+01
1.750337e+02	-2.341047e+01
1.760446e+02	-2.346071e+01
1.770615e+02	-2.351029e+01
1.780842e+02	-2.356124e+01
1.791128e+02	-2.360919e+01
1.801473e+02	-2.365958e+01
1.811878e+02	-2.370702e+01
1.822344e+02	-2.375867e+01
1.832870e+02	-2.380880e+01
1.843456e+02	-2.385867e+01
1.854104e+02	-2.390950e+01
1.864813e+02	-2.396089e+01
1.875584e+02	-2.400925e+01
1.886418e+02	-2.405610e+01
1.897313e+02	-2.410780e+01
1.908272e+02	-2.415983e+01
1.919294e+02	-2.420780e+01
1.930380e+02	-2.425826e+01
1.941530e+02	-2.430898e+01
1.952744e+02	-2.435841e+01
1.964023e+02	-2.440778e+01
1.975367e+02	-2.445711e+01
1.986777e+02	-2.450830e+01
1.998252e+02	-2.455620e+01
2.009794e+02	-2.460889e+01
2.021403e+02	-2.465797e+01
2.033078e+02	-2.470643e+01
2.044821e+02	-2.475506e+01
2.056632e+02	-2.480785e+01
2.068511e+02	-2.485801e+01
2.080459e+02	-2.490785e+01
2.092475e+02	-2.495804e+01
2.104561e+02	-2.500782e+01
2.116717e+02	-2.505514e+01
2.128943e+02	-2.510673e+01
2.141240e+02	-2.515674e+01
2.153608e+02	-2.520558e+01
2.166047e+02	-2.525599e+01
2.178558e+02	-2.530493e+01
2.191141e+02	-2.535724e+01
2.203797e+02	-2.540632e+01
2.216526e+02	-2.545548e+01
2.229329e+02	-2.550715e+01
2.242205e+02	-2.555737e+01
2.255156e+02	-2.560618e+01
2.268182e+02	-2.565603e+01
2.281283e+02	-2.570674e+01
2.294459e+02	-2.575647e+01
2.307712e+02	-2.580855e+01
2.321041e+02	-2.585642e+01
2.334447e+02	-2.590407e+01
2.347931e+02	-2.595416e+01
2.361493e+02	-2.600675e+01
2.375133e+02	-2.605572e+01
2.388851e+02	-2.610420e+01
2.402649e+02	-2.615562e+01
2.416527e+02	-2.620560e+01
2.430484e+02	-2.625377e+01
2.444523e+02	-2.630400e+01
2.458642e+02	-2.635586e+01
2.472843e+02	-2.640400e+01
2.487126e+02	-2.645477e+01
2.501492e+02	-2.650586e+01
2.515940e+02	-2.655519e+01
2.530472e+02	-2.660638e+01
2.545088e+02	-2.665409e+01
2.559789e+02	-2.670506e+01
2.574574e+02	-2.675599e+01
2.589444e+02	-2.680409e+01
2.604401e+02	-2.685489e+01
2.619444e+02	-2.690248e+01
2.634574e+02	-2.695420e+01
2.649791e+02	-2.700351e+01
2.665096e+02	-2.705393e+01
2.680489e+02	-2.710398e+01
2.695972e+02	-2.715666e+01
2.711544e+02	-2.720570e+01
2.727205e+02	-2.725587e+01
2.742958e+02	-2.730512e+01
2.758801e+02	-2.735196e+01
2.774736e+02	-2.740471e+01
2.790762e+02	-2.745318e+01
2.806882e+02	-2.750489e+01
2.823094e+02	-2.755300e+01
2.839400e+02	-2.760297e+01
2.855800e+02	-2.765495e+01
2.872295e+02	-2.770828e+01
2.888886e+02	-2.775666e+01
2.905572e+02	-2.780765e+01
2.922354e+02	-2.785077e+01
2.939234e+02	-2.790322e+01
2.956211e+02	-2.795192e+01
2.973286e+02	-2.800676e+01
2.990459e+02	-2.805292e+01
3.007732e+02	-2.810601e+01
3.025104e+02	-2.815307e+01
3.042577e+02	-2.820548e+01
3.060151e+02	-2.825431e+01
3.077826e+02	-2.830057e+01
3.095604e+02	-2.835485e+01
3.113484e+02	-2.840952e+01
3.131467e+02	-2.845854e+01
3.149554e+02	-2.850768e+01
3.167746e+02	-2.855554e+01
3.186043e+02	-2.860689e+01
3.204445e+02	-2.865082e+01
3.222954e+02	-2.870562e+01
3.241570e+02	-2.875764e+01
3.260293e+02	-2.880052e+01
3.279124e+02	-2.885192e+01
3.298064e+02	-2.890646e+01
3.317114e+02	-2.895897e+01
3.336273e+02	-2.900559e+01
3.355544e+02	-2.905637e+01
3.374925e+02	-2.910559e+01
3.394418e+02	-2.915758e+01
3.414024e+02	-2.920970e+01
3.433744e+02	-2.925697e+01
3.453577e+02	-2.930425e+01
3.473525e+02	-2.935757e+01
3.493588e+02	-2.940442e+01
3.513766e+02	-2.945912e+01
3.534062e+02	-2.950606e+01
3.554474e+02	-2.956119e+01
3.575005e+02	-2.961056e+01
3.595654e+02	-2.965733e+01
3.616422e+02	-2.970386e+01
3.637311e+02	-2.976287e+01
3.658320e+02	-2.980521e+01
3.679450e+02	-2.985780e+01
3.700702e+02	-2.990646e+01
3.722077e+02	-2.995692e+01
3.743576e+02	-3.000639e+01
3.765199e+02	-3.005905e+01
3.786946e+02	-3.010942e+01
3.808820e+02	-3.015477e+01
3.830819e+02	-3.021047e+01
3.852946e+02	-3.025505e+01
3.875200e+02	-3.030298e+01
3.897583e+02	-3.035702e+01
3.920096e+02	-3.040919e+01
3.942738e+02	-3.046062e+01
3.965511e+02	-3.050737e+01
3.988416e+02	-3.055678e+01
4.011452e+02	-3.060854e+01
4.034622e+02	-3.065763e+01
4.057926e+02	-3.070783e+01
4.081365e+02	-3.076076e+01
4.104938e+02	-3.080645e+01
4.128648e+02	-3.086531e+01
4.152495e+02	-3.090521e+01
4.176480e+02	-3.096182e+01
4.200603e+02	-3.101239e+01
4.224866e+02	-3.105880e+01
4.249268e+02	-3.111223e+01
4.273812e+02	-3.115796e+01
4.298497e+02	-3.120479e+01
4.323325e+02	-3.125787e+01
4.348297e+02	-3.131114e+01
4.373412e+02	-3.135994e+01
4.398673e+02	-3.141102e+01
4.424079e+02	-3.146684e+01
4.449633e+02	-3.150324e+01
4.475334e+02	-3.156268e+01
4.501183e+02	-3.161046e+01
4.527182e+02	-3.165892e+01
4.553330e+02	-3.170870e+01
4.579630e+02	-3.176773e+01
4.606082e+02	-3.181753e+01
4.632687e+02	-3.186278e+01
4.659445e+02	-3.191180e+01
4.686358e+02	-3.196328e+01
4.713426e+02	-3.201053e+01
4.740650e+02	-3.206226e+01
4.768032e+02	-3.211733e+01
4.795572e+02	-3.215940e+01
4.823271e+02	-3.221820e+01
4.851130e+02	-3.226720e+01
4.879150e+02	-3.231587e+01
4.907332e+02	-3.236429e+01
4.935676e+02	-3.241717e+01
4.964185e+02	-3.246362e+01
4.992858e+02	-3.250696e+01
5.021696e+02	-3.256582e+01
5.050701e+02	-3.261983e+01
5.079874e+02	-3.266220e+01
5.109215e+02	-3.271461e+01
5.138726e+02	-3.276968e+01
5.168407e+02	-3.280949e+01
5.198259e+02	-3.287053e+01
5.228284e+02	-3.291342e+01
5.258482e+02	-3.296634e+01
5.288855e+02	-3.302068e+01
5.319403e+02	-3.306580e+01
5.350128e+02	-3.312144e+01
5.381030e+02	-3.316752e+01
5.412111e+02	-3.322223e+01
5.443371e+02	-3.326408e+01
5.474812e+02	-3.331447e+01
5.506434e+02	-3.337076e+01
5.538239e+02	-3.341581e+01
5.570228e+02	-3.346655e+01
5.602401e+02	-3.351272e+01
5.634760e+02	-3.357233e+01
5.667306e+02	-3.362080e+01
5.700040e+02	-3.366465e+01
5.732964e+02	-3.371715e+01
5.766077e+02	-3.377563e+01
5.799382e+02	-3.382607e+01
5.832879e+02	-3.386951e+01
5.866569e+02	-3.391942e+01
5.900454e+02	-3.397277e+01
5.934535e+02	-3.402568e+01
5.968813e+02	-3.408400e+01
6.003288e+02	-3.412620e+01
6.037963e+02	-3.417080e+01
6.072838e+02	-3.422340e+01
6.107914e+02	-3.427677e+01
6.143194e+02	-3.432623e+01
6.178676e+02	-3.436763e+01
6.214364e+02	-3.442387e+01
6.250258e+02	-3.446901e+01
6.286359e+02	-3.452549e+01
6.322669e+02	-3.456114e+01
6.359189e+02	-3.463018e+01
6.395919e+02	-3.467710e+01
6.432862e+02	-3.473619e+01
6.470017e+02	-3.477607e+01
6.507388e+02	-3.482349e+01
6.544974e+02	-3.488346e+01
6.582778e+02	-3.492497e+01
6.620800e+02	-3.498194e+01
6.659041e+02	-3.503809e+01
6.697504e+02	-3.507555e+01
6.736188e+02	-3.513373e+01
6.775096e+02	-3.517901e+01
6.814229e+02	-3.522581e+01
6.853587e+02	-3.527290e+01
6.893173e+02	-3.533353e+01
6.932988e+02	-3.538399e+01
6.973033e+02	-3.542696e+01
7.013309e+02	-3.548298e+01
