Frequency(Hz)	Magnitude(dB)
1.000000e+01	-1.926834e+00
1.005776e+01	-1.944940e+00
1.011585e+01	-1.963088e+00
1.017428e+01	-1.981193e+00
1.023305e+01	-1.999781e+00
1.029215e+01	-2.018278e+00
1.035160e+01	-2.036887e+00
1.041139e+01	-2.055538e+00
1.047153e+01	-2.074669e+00
1.053201e+01	-2.093490e+00
1.059284e+01	-2.112858e+00
1.065403e+01	-2.132239e+00
1.071556e+01	-2.151602e+00
1.077746e+01	-2.171193e+00
1.083971e+01	-2.190891e+00
1.090232e+01	-2.210888e+00
1.096529e+01	-2.230893e+00
1.102862e+01	-2.250997e+00
1.109232e+01	-2.271268e+00
1.115639e+01	-2.291710e+00
1.122083e+01	-2.312197e+00
1.128564e+01	-2.332978e+00
1.135083e+01	-2.353882e+00
1.141639e+01	-2.375025e+00
1.148233e+01	-2.396229e+00
1.154865e+01	-2.417573e+00
1.161536e+01	-2.438693e+00
1.168245e+01	-2.460225e+00
1.174992e+01	-2.482019e+00
1.181779e+01	-2.504081e+00
1.188605e+01	-2.525957e+00
1.195470e+01	-2.548055e+00
1.202375e+01	-2.570343e+00
1.209320e+01	-2.592670e+00
1.216305e+01	-2.615280e+00
1.223330e+01	-2.638032e+00
1.230396e+01	-2.660990e+00
1.237503e+01	-2.683867e+00
1.244651e+01	-2.707176e+00
1.251840e+01	-2.730138e+00
1.259070e+01	-2.753913e+00
1.266343e+01	-2.777163e+00
1.273657e+01	-2.800948e+00
1.281014e+01	-2.824660e+00
1.288413e+01	-2.848910e+00
1.295855e+01	-2.872912e+00
1.303339e+01	-2.897152e+00
1.310867e+01	-2.921705e+00
1.318439e+01	-2.946295e+00
1.326054e+01	-2.970798e+00
1.333713e+01	-2.995861e+00
1.341417e+01	-3.020857e+00
1.349165e+01	-3.046066e+00
1.356958e+01	-3.071604e+00
1.364795e+01	-3.096427e+00
1.372678e+01	-3.122195e+00
1.380607e+01	-3.148146e+00
1.388581e+01	-3.173730e+00
1.396602e+01	-3.199710e+00
1.404668e+01	-3.226007e+00
1.412782e+01	-3.252062e+00
1.420942e+01	-3.278629e+00
1.429149e+01	-3.305394e+00
1.437404e+01	-3.332016e+00
1.445706e+01	-3.358739e+00
1.454057e+01	-3.385853e+00
1.462455e+01	-3.413211e+00
1.470902e+01	-3.440143e+00
1.479398e+01	-3.467547e+00
1.487943e+01	-3.495301e+00
1.496537e+01	-3.523035e+00
1.505181e+01	-3.551055e+00
1.513875e+01	-3.579046e+00
1.522619e+01	-3.606913e+00
1.531414e+01	-3.635421e+00
1.540259e+01	-3.663828e+00
1.549156e+01	-3.692540e+00
1.558103e+01	-3.721107e+00
1.567103e+01	-3.749890e+00
1.576155e+01	-3.778994e+00
1.585258e+01	-3.808213e+00
1.594415e+01	-3.837472e+00
1.603624e+01	-3.866829e+00
1.612886e+01	-3.896358e+00
1.622202e+01	-3.925920e+00
1.631572e+01	-3.955839e+00
1.640996e+01	-3.985784e+00
1.650474e+01	-4.015905e+00
1.660008e+01	-4.046382e+00
1.669596e+01	-4.076748e+00
1.679239e+01	-4.107260e+00
1.688938e+01	-4.137892e+00
1.698694e+01	-4.168753e+00
1.708505e+01	-4.199531e+00
1.718373e+01	-4.230688e+00
1.728299e+01	-4.262124e+00
1.738281e+01	-4.292897e+00
1.748322e+01	-4.324812e+00
1.758420e+01	-4.356319e+00
1.768576e+01	-4.388027e+00
1.778792e+01	-4.419869e+00
1.789066e+01	-4.452015e+00
1.799399e+01	-4.484187e+00
1.809793e+01	-4.516111e+00
1.820246e+01	-4.548873e+00
1.830760e+01	-4.581579e+00
1.841334e+01	-4.613616e+00
1.851969e+01	-4.646848e+00
1.862666e+01	-4.679885e+00
1.873425e+01	-4.712809e+00
1.884246e+01	-4.746064e+00
1.895129e+01	-4.779175e+00
1.906075e+01	-4.812588e+00
1.917085e+01	-4.846264e+00
1.928158e+01	-4.880076e+00
1.939295e+01	-4.913608e+00
1.950496e+01	-4.947623e+00
1.961762e+01	-4.982019e+00
1.973093e+01	-5.015879e+00
1.984490e+01	-5.050553e+00
1.995952e+01	-5.084563e+00
2.007480e+01	-5.119723e+00
2.019076e+01	-5.154262e+00
2.030738e+01	-5.188954e+00
2.042467e+01	-5.223704e+00
2.054264e+01	-5.258894e+00
2.066130e+01	-5.294270e+00
2.078064e+01	-5.329666e+00
2.090066e+01	-5.364816e+00
2.102139e+01	-5.400614e+00
2.114280e+01	-5.436102e+00
2.126492e+01	-5.472058e+00
2.138775e+01	-5.508014e+00
2.151128e+01	-5.543934e+00
2.163553e+01	-5.579711e+00
2.176050e+01	-5.616084e+00
2.188619e+01	-5.652443e+00
2.201260e+01	-5.688938e+00
2.213974e+01	-5.725287e+00
2.226762e+01	-5.762107e+00
2.239624e+01	-5.799139e+00
2.252560e+01	-5.836094e+00
2.265571e+01	-5.872794e+00
2.278656e+01	-5.910212e+00
2.291818e+01	-5.947383e+00
2.305055e+01	-5.984551e+00
2.318369e+01	-6.022343e+00
2.331760e+01	-6.059841e+00
2.345228e+01	-6.097404e+00
2.358774e+01	-6.135337e+00
2.372398e+01	-6.173306e+00
2.386101e+01	-6.211178e+00
2.399883e+01	-6.249347e+00
2.413745e+01	-6.287668e+00
2.427686e+01	-6.325875e+00
2.441709e+01	-6.364295e+00
2.455812e+01	-6.402864e+00
2.469997e+01	-6.441446e+00
2.484263e+01	-6.479974e+00
2.498612e+01	-6.518963e+00
2.513044e+01	-6.557644e+00
2.527559e+01	-6.596444e+00
2.542158e+01	-6.635708e+00
2.556842e+01	-6.675306e+00
2.571610e+01	-6.714688e+00
2.586463e+01	-6.754266e+00
2.601403e+01	-6.793350e+00
2.616428e+01	-6.833094e+00
2.631541e+01	-6.872761e+00
2.646740e+01	-6.912564e+00
2.662028e+01	-6.952239e+00
2.677404e+01	-6.992506e+00
2.692868e+01	-7.032004e+00
2.708422e+01	-7.072896e+00
2.724066e+01	-7.112943e+00
2.739800e+01	-7.153258e+00
2.755625e+01	-7.193390e+00
2.771541e+01	-7.234118e+00
2.787550e+01	-7.274449e+00
2.803650e+01	-7.315716e+00
2.819844e+01	-7.356506e+00
2.836131e+01	-7.396932e+00
2.852513e+01	-7.438413e+00
2.868989e+01	-7.479100e+00
2.885560e+01	-7.520472e+00
2.902227e+01	-7.561732e+00
2.918990e+01	-7.602626e+00
2.935850e+01	-7.644617e+00
2.952807e+01	-7.685653e+00
2.969863e+01	-7.727395e+00
2.987016e+01	-7.769164e+00
3.004269e+01	-7.810709e+00
3.021622e+01	-7.852359e+00
3.039075e+01	-7.894249e+00
3.056628e+01	-7.936044e+00
3.074283e+01	-7.978010e+00
3.092040e+01	-8.020418e+00
3.109900e+01	-8.062402e+00
3.127862e+01	-8.104916e+00
3.145929e+01	-8.147101e+00
3.164099e+01	-8.189368e+00
3.182375e+01	-8.231872e+00
3.200756e+01	-8.274192e+00
3.219244e+01	-8.316994e+00
3.237838e+01	-8.359926e+00
3.256540e+01	-8.402486e+00
3.275349e+01	-8.444778e+00
3.294268e+01	-8.488053e+00
3.313295e+01	-8.531224e+00
3.332433e+01	-8.574090e+00
3.351681e+01	-8.617562e+00
3.371040e+01	-8.660383e+00
3.390511e+01	-8.703638e+00
3.410094e+01	-8.747129e+00
3.429791e+01	-8.790571e+00
3.449601e+01	-8.834029e+00
3.469526e+01	-8.877305e+00
3.489566e+01	-8.920888e+00
3.509721e+01	-8.964748e+00
3.529993e+01	-9.007828e+00
3.550382e+01	-9.051749e+00
3.570889e+01	-9.095902e+00
3.591515e+01	-9.139925e+00
3.612259e+01	-9.183696e+00
3.633123e+01	-9.227682e+00
3.654108e+01	-9.271783e+00
3.675214e+01	-9.316171e+00
3.696442e+01	-9.360422e+00
3.717792e+01	-9.404920e+00
3.739266e+01	-9.448855e+00
3.760864e+01	-9.493172e+00
3.782587e+01	-9.537094e+00
3.804435e+01	-9.581876e+00
3.826409e+01	-9.626849e+00
3.848510e+01	-9.671610e+00
3.870739e+01	-9.716101e+00
3.893096e+01	-9.760796e+00
3.915583e+01	-9.805977e+00
3.938199e+01	-9.850635e+00
3.960946e+01	-9.895126e+00
3.983824e+01	-9.939990e+00
4.006834e+01	-9.985259e+00
4.029978e+01	-1.002978e+01
4.053255e+01	-1.007470e+01
4.076666e+01	-1.012028e+01
4.100213e+01	-1.016546e+01
4.123896e+01	-1.021117e+01
4.147715e+01	-1.025608e+01
4.171672e+01	-1.030146e+01
4.195767e+01	-1.034691e+01
4.220002e+01	-1.039179e+01
4.244377e+01	-1.043704e+01
4.268892e+01	-1.048358e+01
4.293549e+01	-1.052840e+01
4.318348e+01	-1.057388e+01
4.343291e+01	-1.061971e+01
4.368377e+01	-1.066606e+01
4.393609e+01	-1.071165e+01
4.418986e+01	-1.075780e+01
4.444510e+01	-1.080318e+01
4.470182e+01	-1.084872e+01
4.496001e+01	-1.089487e+01
4.521970e+01	-1.094113e+01
4.548089e+01	-1.098763e+01
4.574358e+01	-1.103314e+01
4.600779e+01	-1.107937e+01
4.627353e+01	-1.112551e+01
4.654081e+01	-1.117148e+01
4.680963e+01	-1.121739e+01
4.708000e+01	-1.126356e+01
4.735193e+01	-1.131007e+01
4.762543e+01	-1.135708e+01
4.790051e+01	-1.140336e+01
4.817719e+01	-1.144964e+01
4.845545e+01	-1.149620e+01
4.873533e+01	-1.154254e+01
4.901682e+01	-1.158929e+01
4.929994e+01	-1.163520e+01
4.958470e+01	-1.168209e+01
4.987110e+01	-1.172851e+01
5.015915e+01	-1.177558e+01
5.044887e+01	-1.182170e+01
5.074026e+01	-1.186917e+01
5.103333e+01	-1.191561e+01
5.132810e+01	-1.196222e+01
5.162457e+01	-1.200932e+01
5.192275e+01	-1.205657e+01
5.222265e+01	-1.210332e+01
5.252429e+01	-1.215069e+01
5.282767e+01	-1.219711e+01
5.313280e+01	-1.224448e+01
5.343969e+01	-1.229165e+01
5.374836e+01	-1.233855e+01
5.405880e+01	-1.238555e+01
5.437105e+01	-1.243258e+01
5.468509e+01	-1.248056e+01
5.500095e+01	-1.252703e+01
5.531863e+01	-1.257479e+01
5.563815e+01	-1.262155e+01
5.595951e+01	-1.266879e+01
5.628273e+01	-1.271647e+01
5.660782e+01	-1.276401e+01
5.693479e+01	-1.281088e+01
5.726364e+01	-1.285837e+01
5.759439e+01	-1.290523e+01
5.792705e+01	-1.295349e+01
5.826164e+01	-1.300103e+01
5.859815e+01	-1.304789e+01
5.893662e+01	-1.309531e+01
5.927703e+01	-1.314329e+01
5.961941e+01	-1.319135e+01
5.996377e+01	-1.323841e+01
6.031012e+01	-1.328653e+01
6.065847e+01	-1.333469e+01
6.100883e+01	-1.338192e+01
6.136121e+01	-1.342953e+01
6.171563e+01	-1.347694e+01
6.207210e+01	-1.352500e+01
6.243063e+01	-1.357329e+01
6.279122e+01	-1.362133e+01
6.315390e+01	-1.366866e+01
6.351868e+01	-1.371673e+01
6.388556e+01	-1.376499e+01
6.425456e+01	-1.381232e+01
6.462569e+01	-1.385997e+01
6.499897e+01	-1.390821e+01
6.537440e+01	-1.395648e+01
6.575200e+01	-1.400449e+01
6.613178e+01	-1.405258e+01
6.651375e+01	-1.409973e+01
6.689793e+01	-1.414859e+01
6.728433e+01	-1.419680e+01
6.767297e+01	-1.424431e+01
6.806384e+01	-1.429290e+01
6.845698e+01	-1.434154e+01
6.885238e+01	-1.438850e+01
6.925007e+01	-1.443758e+01
6.965005e+01	-1.448598e+01
7.005235e+01	-1.453391e+01
7.045697e+01	-1.458220e+01
7.086393e+01	-1.463145e+01
7.127323e+01	-1.467933e+01
7.168490e+01	-1.472701e+01
7.209895e+01	-1.477528e+01
7.251539e+01	-1.482448e+01
7.293424e+01	-1.487236e+01
7.335551e+01	-1.492082e+01
7.377920e+01	-1.496922e+01
7.420535e+01	-1.501777e+01
7.463396e+01	-1.506591e+01
7.506504e+01	-1.511468e+01
7.549861e+01	-1.516319e+01
7.593469e+01	-1.521137e+01
7.637328e+01	-1.526006e+01
7.681441e+01	-1.530799e+01
7.725809e+01	-1.535736e+01
7.770433e+01	-1.540570e+01
7.815315e+01	-1.545494e+01
7.860456e+01	-1.550320e+01
7.905857e+01	-1.555215e+01
7.951521e+01	-1.560045e+01
7.997449e+01	-1.564928e+01
8.043642e+01	-1.569752e+01
8.090102e+01	-1.574629e+01
8.136830e+01	-1.579601e+01
8.183828e+01	-1.584385e+01
8.231097e+01	-1.589231e+01
8.278640e+01	-1.594117e+01
8.326457e+01	-1.599007e+01
8.374550e+01	-1.603837e+01
8.422921e+01	-1.608799e+01
8.471572e+01	-1.613693e+01
8.520503e+01	-1.618619e+01
8.569717e+01	-1.623330e+01
8.619215e+01	-1.628315e+01
8.669000e+01	-1.633261e+01
8.719071e+01	-1.638111e+01
8.769432e+01	-1.642986e+01
8.820084e+01	-1.647691e+01
8.871029e+01	-1.652745e+01
8.922267e+01	-1.657615e+01
8.973802e+01	-1.662586e+01
9.025634e+01	-1.667512e+01
9.077766e+01	-1.672290e+01
9.130199e+01	-1.677230e+01
9.182935e+01	-1.682127e+01
9.235975e+01	-1.687012e+01
9.289321e+01	-1.691938e+01
9.342976e+01	-1.696781e+01
9.396941e+01	-1.701777e+01
9.451217e+01	-1.706647e+01
9.505807e+01	-1.711611e+01
9.560712e+01	-1.716348e+01
9.615934e+01	-1.721451e+01
9.671476e+01	-1.726266e+01
9.727338e+01	-1.731101e+01
9.783522e+01	-1.736058e+01
9.840032e+01	-1.741025e+01
9.896867e+01	-1.745858e+01
9.954031e+01	-1.750692e+01
1.001153e+02	-1.755706e+01
1.006935e+02	-1.760601e+01
1.012751e+02	-1.765559e+01
1.018601e+02	-1.770409e+01
1.024484e+02	-1.775391e+01
1.030402e+02	-1.780334e+01
1.036353e+02	-1.785311e+01
1.042339e+02	-1.790219e+01
1.048360e+02	-1.795077e+01
1.054415e+02	-1.800034e+01
1.060505e+02	-1.805031e+01
1.066631e+02	-1.809741e+01
1.072791e+02	-1.814783e+01
1.078988e+02	-1.819712e+01
1.085220e+02	-1.824646e+01
1.091488e+02	-1.829513e+01
1.097793e+02	-1.834600e+01
1.104133e+02	-1.839371e+01
1.110511e+02	-1.844571e+01
1.116925e+02	-1.849361e+01
1.123376e+02	-1.854264e+01
1.129865e+02	-1.859132e+01
1.136391e+02	-1.864064e+01
1.142955e+02	-1.869090e+01
1.149556e+02	-1.874050e+01
1.156196e+02	-1.878844e+01
1.162874e+02	-1.883912e+01
1.169591e+02	-1.888777e+01
1.176347e+02	-1.893759e+01
1.183141e+02	-1.898655e+01
1.189975e+02	-1.903622e+01
1.196848e+02	-1.908548e+01
1.203761e+02	-1.913400e+01
1.210714e+02	-1.918488e+01
1.217707e+02	-1.923370e+01
1.224740e+02	-1.928310e+01
1.231814e+02	-1.933237e+01
1.238929e+02	-1.938199e+01
1.246085e+02	-1.943090e+01
1.253283e+02	-1.948125e+01
1.260522e+02	-1.953004e+01
1.267802e+02	-1.958059e+01
1.275125e+02	-1.962997e+01
1.282490e+02	-1.967849e+01
1.289898e+02	-1.972899e+01
1.297348e+02	-1.977765e+01
1.304842e+02	-1.982713e+01
1.312378e+02	-1.987687e+01
1.319959e+02	-1.992602e+01
1.327583e+02	-1.997642e+01
1.335251e+02	-2.002626e+01
1.342963e+02	-2.007614e+01
1.350720e+02	-2.012446e+01
1.358522e+02	-2.017515e+01
1.366368e+02	-2.022482e+01
1.374260e+02	-2.027275e+01
1.382198e+02	-2.032228e+01
1.390182e+02	-2.037080e+01
1.398211e+02	-2.042227e+01
1.406287e+02	-2.047185e+01
1.414410e+02	-2.052052e+01
1.422579e+02	-2.057128e+01
1.430796e+02	-2.061985e+01
1.439060e+02	-2.067001e+01
1.447372e+02	-2.072022e+01
1.455732e+02	-2.076876e+01
1.464141e+02	-2.081843e+01
1.472597e+02	-2.087000e+01
1.481103e+02	-2.091823e+01
1.489658e+02	-2.096802e+01
1.498262e+02	-2.101761e+01
1.506916e+02	-2.106698e+01
1.515620e+02	-2.111683e+01
1.524374e+02	-2.116599e+01
1.533179e+02	-2.121676e+01
1.542034e+02	-2.126553e+01
1.550941e+02	-2.131480e+01
1.559899e+02	-2.136412e+01
1.568909e+02	-2.141452e+01
1.577971e+02	-2.146493e+01
1.587085e+02	-2.151315e+01
1.596252e+02	-2.156441e+01
1.605472e+02	-2.161268e+01
1.614745e+02	-2.166275e+01
1.624072e+02	-2.171437e+01
1.633453e+02	-2.176389e+01
1.642887e+02	-2.181052e+01
1.652377e+02	-2.186313e+01
1.661921e+02	-2.191094e+01
1.671520e+02	-2.196116e+01
1.681175e+02	-2.201186e+01
1.690885e+02	-2.206120e+01
1.700651e+02	-2.210989e+01
1.710474e+02	-2.216078e+01
1.720354e+02	-2.220942e+01
1.730291e+02	-2.226077e+01
1.740285e+02	-2.230707e+01
1.750337e+02	-2.235952e+01
1.760446e+02	-2.240794e+01
1.770615e+02	-2.245844e+01
1.780842e+02	-2.250919e+01
1.791128e+02	-2.255949e+01
1.801473e+02	-2.260784e+01
1.811878e+02	-2.265608e+01
1.822344e+02	-2.270796e+01
1.832870e+02	-2.275698e+01
1.843456e+02	-2.280626e+01
1.854104e+02	-2.285623e+01
1.864813e+02	-2.290604e+01
1.875584e+02	-2.295706e+01
1.886418e+02	-2.300623e+01
1.897313e+02	-2.305631e+01
1.908272e+02	-2.310593e+01
1.919294e+02	-2.315832e+01
1.930380e+02	-2.320575e+01
1.941530e+02	-2.325519e+01
1.952744e+02	-2.330516e+01
1.964023e+02	-2.335481e+01
1.975367e+02	-2.340833e+01
1.986777e+02	-2.345330e+01
1.998252e+02	-2.350493e+01
2.009794e+02	-2.355468e+01
2.021403e+02	-2.360546e+01
2.033078e+02	-2.365399e+01
2.044821e+02	-2.370549e+01
2.056632e+02	-2.375240e+01
2.068511e+02	-2.380504e+01
2.080459e+02	-2.385417e+01
2.092475e+02	-2.390105e+01
2.104561e+02	-2.395326e+01
2.116717e+02	-2.400534e+01
2.128943e+02	-2.405112e+01
2.141240e+02	-2.410422e+01
2.153608e+02	-2.415034e+01
2.166047e+02	-2.420232e+01
2.178558e+02	-2.425109e+01
2.191141e+02	-2.430242e+01
2.203797e+02	-2.435194e+01
2.216526e+02	-2.440045e+01
2.229329e+02	-2.444861e+01
2.242205e+02	-2.450340e+01
2.255156e+02	-2.455326e+01
2.268182e+02	-2.460097e+01
2.281283e+02	-2.464850e+01
2.294459e+02	-2.470222e+01
2.307712e+02	-2.475150e+01
2.321041e+02	-2.479958e+01
2.334447e+02	-2.485211e+01
2.347931e+02	-2.490244e+01
2.361493e+02	-2.495004e+01
2.375133e+02	-2.500128e+01
2.388851e+02	-2.505265e+01
2.402649e+02	-2.509941e+01
2.416527e+02	-2.515135e+01
2.430484e+02	-2.520304e+01
2.444523e+02	-2.525269e+01
2.458642e+02	-2.529966e+01
2.472843e+02	-2.534997e+01
2.487126e+02	-2.540056e+01
2.501492e+02	-2.545015e+01
2.515940e+02	-2.549830e+01
2.530472e+02	-2.555226e+01
2.545088e+02	-2.559968e+01
2.559789e+02	-2.564727e+01
2.574574e+02	-2.570092e+01
2.589444e+02	-2.575193e+01
2.604401e+02	-2.579987e+01
2.619444e+02	-2.584982e+01
2.634574e+02	-2.590200e+01
2.649791e+02	-2.594900e+01
2.665096e+02	-2.599924e+01
2.680489e+02	-2.604770e+01
2.695972e+02	-2.609965e+01
2.711544e+02	-2.614870e+01
2.727205e+02	-2.619869e+01
2.742958e+02	-2.625011e+01
2.758801e+02	-2.630003e+01
2.774736e+02	-2.635011e+01
2.790762e+02	-2.640186e+01
2.806882e+02	-2.644715e+01
2.823094e+02	-2.649992e+01
2.839400e+02	-2.655163e+01
2.855800e+02	-2.659651e+01
2.872295e+02	-2.665057e+01
2.888886e+02	-2.670016e+01
2.905572e+02	-2.674922e+01
2.922354e+02	-2.679606e+01
2.939234e+02	-2.684686e+01
2.956211e+02	-2.689828e+01
2.973286e+02	-2.694826e+01
2.990459e+02	-2.699649e+01
3.007732e+02	-2.705069e+01
3.025104e+02	-2.710229e+01
3.042577e+02	-2.714805e+01
3.060151e+02	-2.719867e+01
3.077826e+02	-2.724869e+01
3.095604e+02	-2.730026e+01
3.113484e+02	-2.735296e+01
3.131467e+02	-2.739661e+01
3.149554e+02	-2.744935e+01
3.167746e+02	-2.749681e+01
3.186043e+02	-2.754717e+01
3.204445e+02	-2.759929e+01
3.222954e+02	-2.764702e+01
3.241570e+02	-2.769518e+01
3.260293e+02	-2.774893e+01
3.279124e+02	-2.779785e+01
3.298064e+02	-2.784846e+01
3.317114e+02	-2.789903e+01
3.336273e+02	-2.794694e+01
3.355544e+02	-2.799980e+01
3.374925e+02	-2.805283e+01
3.394418e+02	-2.809930e+01
3.414024e+02	-2.815053e+01
3.433744e+02	-2.819895e+01
3.453577e+02	-2.824790e+01
3.473525e+02	-2.829851e+01
3.493588e+02	-2.834906e+01
3.513766e+02	-2.839803e+01
3.534062e+02	-2.845108e+01
3.554474e+02	-2.849819e+01
3.575005e+02	-2.854896e+01
3.595654e+02	-2.859761e+01
3.616422e+02	-2.864886e+01
3.637311e+02	-2.870123e+01
3.658320e+02	-2.875032e+01
3.679450e+02	-2.879908e+01
3.700702e+02	-2.884558e+01
3.722077e+02	-2.890115e+01
3.743576e+02	-2.895121e+01
3.765199e+02	-2.899834e+01
3.786946e+02	-2.905159e+01
3.808820e+02	-2.909872e+01
3.830819e+02	-2.915372e+01
3.852946e+02	-2.919943e+01
3.875200e+02	-2.924985e+01
3.897583e+02	-2.929710e+01
3.920096e+02	-2.935162e+01
3.942738e+02	-2.940398e+01
3.965511e+02	-2.945208e+01
3.988416e+02	-2.950285e+01
4.011452e+02	-2.955125e+01
4.034622e+02	-2.960331e+01
4.057926e+02	-2.965062e+01
4.081365e+02	-2.970110e+01
4.104938e+02	-2.975165e+01
4.128648e+02	-2.980288e+01
4.152495e+02	-2.984804e+01
4.176480e+02	-2.990122e+01
4.200603e+02	-2.995576e+01
4.224866e+02	-3.000149e+01
4.249268e+02	-3.005367e+01
4.273812e+02	-3.009996e+01
4.298497e+02	-3.015417e+01
4.323325e+02	-3.020000e+01
4.348297e+02	-3.025536e+01
4.373412e+02	-3.030313e+01
4.398673e+02	-3.035451e+01
4.424079e+02	-3.040644e+01
4.449633e+02	-3.045123e+01
4.475334e+02	-3.050542e+01
4.501183e+02	-3.055725e+01
4.527182e+02	-3.060855e+01
4.553330e+02	-3.065768e+01
4.579630e+02	-3.070062e+01
4.606082e+02	-3.075266e+01
4.632687e+02	-3.080582e+01
4.659445e+02	-3.085546e+01
4.686358e+02	-3.090262e+01
4.713426e+02	-3.095222e+01
4.740650e+02	-3.100205e+01
4.768032e+02	-3.104984e+01
4.795572e+02	-3.110159e+01
4.823271e+02	-3.115080e+01
4.851130e+02	-3.120553e+01
4.879150e+02	-3.124995e+01
4.907332e+02	-3.130749e+01
4.935676e+02	-3.135131e+01
4.964185e+02	-3.140503e+01
4.992858e+02	-3.145030e+01
5.021696e+02	-3.150678e+01
5.050701e+02	-3.155838e+01
5.079874e+02	-3.160375e+01
5.109215e+02	-3.165281e+01
5.138726e+02	-3.170714e+01
5.168407e+02	-3.176117e+01
5.198259e+02	-3.181348e+01
5.228284e+02	-3.185600e+01
5.258482e+02	-3.190902e+01
5.288855e+02	-3.195625e+01
5.319403e+02	-3.201006e+01
5.350128e+02	-3.206305e+01
5.381030e+02	-3.211259e+01
5.412111e+02	-3.215963e+01
5.443371e+02	-3.220256e+01
5.474812e+02	-3.226782e+01
5.506434e+02	-3.230968e+01
5.538239e+02	-3.236238e+01
5.570228e+02	-3.240607e+01
5.602401e+02	-3.245952e+01
5.634760e+02	-3.250915e+01
5.667306e+02	-3.256115e+01
5.700040e+02	-3.261118e+01
5.732964e+02	-3.266538e+01
5.766077e+02	-3.271125e+01
5.799382e+02	-3.276423e+01
5.832879e+02	-3.281132e+01
5.866569e+02	-3.285411e+01
5.900454e+02	-3.290978e+01
5.934535e+02	-3.296180e+01
5.968813e+02	-3.301100e+01
6.003288e+02	-3.305466e+01
6.037963e+02	-3.311732e+01
6.072838e+02	-3.316292e+01
6.107914e+02	-3.321039e+01
6.143194e+02	-3.326436e+01
6.178676e+02	-3.330395e+01
6.214364e+02	-3.336515e+01
6.250258e+02	-3.341981e+01
6.286359e+02	-3.345833e+01
6.322669e+02	-3.352456e+01
6.359189e+02	-3.357058e+01
6.395919e+02	-3.361456e+01
6.432862e+02	-3.366238e+01
6.470017e+02	-3.372034e+01
6.507388e+02	-3.376846e+01
6.544974e+02	-3.380824e+01
6.582778e+02	-3.387378e+01
6.620800e+02	-3.390913e+01
6.659041e+02	-3.397339e+01
6.697504e+02	-3.402864e+01
6.736188e+02	-3.406701e+01
6.775096e+02	-3.411761e+01
6.814229e+02	-3.417601e+01
6.853587e+02	-3.422604e+01
6.893173e+02	-3.426271e+01
6.932988e+02	-3.431877e+01
6.973033e+02	-3.437222e+01
7.013309e+02	-3.442199e+01
