Frequency(Hz)	Magnitude(dB)
1.000000e+01	-1.636555e-05
1.005776e+01	-1.655515e-05
1.011585e+01	-1.674694e-05
1.017428e+01	-1.694096e-05
1.023305e+01	-1.713723e-05
1.029215e+01	-1.733577e-05
1.035160e+01	-1.753661e-05
1.041139e+01	-1.773977e-05
1.047153e+01	-1.794529e-05
1.053201e+01	-1.815319e-05
1.059284e+01	-1.836350e-05
1.065403e+01	-1.857625e-05
1.071556e+01	-1.879146e-05
1.077746e+01	-1.900916e-05
1.083971e+01	-1.922939e-05
1.090232e+01	-1.945217e-05
1.096529e+01	-1.967752e-05
1.102862e+01	-1.990549e-05
1.109232e+01	-2.013610e-05
1.115639e+01	-2.036938e-05
1.122083e+01	-2.060537e-05
1.128564e+01	-2.084409e-05
1.135083e+01	-2.108557e-05
1.141639e+01	-2.132985e-05
1.148233e+01	-2.157696e-05
1.154865e+01	-2.182694e-05
1.161536e+01	-2.207981e-05
1.168245e+01	-2.233561e-05
1.174992e+01	-2.259437e-05
1.181779e+01	-2.285614e-05
1.188605e+01	-2.312093e-05
1.195470e+01	-2.338879e-05
1.202375e+01	-2.365976e-05
1.209320e+01	-2.393386e-05
1.216305e+01	-2.421114e-05
1.223330e+01	-2.449163e-05
1.230396e+01	-2.477537e-05
1.237503e+01	-2.506240e-05
1.244651e+01	-2.535276e-05
1.251840e+01	-2.564647e-05
1.259070e+01	-2.594360e-05
1.266343e+01	-2.624416e-05
1.273657e+01	-2.654820e-05
1.281014e+01	-2.685577e-05
1.288413e+01	-2.716690e-05
1.295855e+01	-2.748164e-05
1.303339e+01	-2.780002e-05
1.310867e+01	-2.812209e-05
1.318439e+01	-2.844789e-05
1.326054e+01	-2.877746e-05
1.333713e+01	-2.911086e-05
1.341417e+01	-2.944811e-05
1.349165e+01	-2.978928e-05
1.356958e+01	-3.013439e-05
1.364795e+01	-3.048351e-05
1.372678e+01	-3.083667e-05
1.380607e+01	-3.119392e-05
1.388581e+01	-3.155531e-05
1.396602e+01	-3.192088e-05
1.404668e+01	-3.229069e-05
1.412782e+01	-3.266479e-05
1.420942e+01	-3.304322e-05
1.429149e+01	-3.342603e-05
1.437404e+01	-3.381328e-05
1.445706e+01	-3.420501e-05
1.454057e+01	-3.460129e-05
1.462455e+01	-3.500215e-05
1.470902e+01	-3.540766e-05
1.479398e+01	-3.581787e-05
1.487943e+01	-3.623282e-05
1.496537e+01	-3.665259e-05
1.505181e+01	-3.707722e-05
1.513875e+01	-3.750677e-05
1.522619e+01	-3.794129e-05
1.531414e+01	-3.838085e-05
1.540259e+01	-3.882550e-05
1.549156e+01	-3.927530e-05
1.558103e+01	-3.973032e-05
1.567103e+01	-4.019060e-05
1.576155e+01	-4.065622e-05
1.585258e+01	-4.112723e-05
1.594415e+01	-4.160370e-05
1.603624e+01	-4.208568e-05
1.612886e+01	-4.257326e-05
1.622202e+01	-4.306648e-05
1.631572e+01	-4.356541e-05
1.640996e+01	-4.407013e-05
1.650474e+01	-4.458069e-05
1.660008e+01	-4.509717e-05
1.669596e+01	-4.561963e-05
1.679239e+01	-4.614814e-05
1.688938e+01	-4.668278e-05
1.698694e+01	-4.722361e-05
1.708505e+01	-4.777070e-05
1.718373e+01	-4.832414e-05
1.728299e+01	-4.888398e-05
1.738281e+01	-4.945031e-05
1.748322e+01	-5.002321e-05
1.758420e+01	-5.060273e-05
1.768576e+01	-5.118898e-05
1.778792e+01	-5.178201e-05
1.789066e+01	-5.238192e-05
1.799399e+01	-5.298877e-05
1.809793e+01	-5.360266e-05
1.820246e+01	-5.422366e-05
1.830760e+01	-5.485185e-05
1.841334e+01	-5.548732e-05
1.851969e+01	-5.613015e-05
1.862666e+01	-5.678043e-05
1.873425e+01	-5.743824e-05
1.884246e+01	-5.810368e-05
1.895129e+01	-5.877682e-05
1.906075e+01	-5.945776e-05
1.917085e+01	-6.014659e-05
1.928158e+01	-6.084340e-05
1.939295e+01	-6.154829e-05
1.950496e+01	-6.226133e-05
1.961762e+01	-6.298264e-05
1.973093e+01	-6.371231e-05
1.984490e+01	-6.445043e-05
1.995952e+01	-6.519710e-05
2.007480e+01	-6.595242e-05
2.019076e+01	-6.671649e-05
2.030738e+01	-6.748942e-05
2.042467e+01	-6.827129e-05
2.054264e+01	-6.906223e-05
2.066130e+01	-6.986233e-05
2.078064e+01	-7.067170e-05
2.090066e+01	-7.149044e-05
2.102139e+01	-7.231867e-05
2.114280e+01	-7.315650e-05
2.126492e+01	-7.400403e-05
2.138775e+01	-7.486138e-05
2.151128e+01	-7.572866e-05
2.163553e+01	-7.660599e-05
2.176050e+01	-7.749348e-05
2.188619e+01	-7.839126e-05
2.201260e+01	-7.929944e-05
2.213974e+01	-8.021813e-05
2.226762e+01	-8.114747e-05
2.239624e+01	-8.208758e-05
2.252560e+01	-8.303858e-05
2.265571e+01	-8.400060e-05
2.278656e+01	-8.497376e-05
2.291818e+01	-8.595819e-05
2.305055e+01	-8.695403e-05
2.318369e+01	-8.796141e-05
2.331760e+01	-8.898045e-05
2.345228e+01	-9.001131e-05
2.358774e+01	-9.105410e-05
2.372398e+01	-9.210898e-05
2.386101e+01	-9.317608e-05
2.399883e+01	-9.425553e-05
2.413745e+01	-9.534750e-05
2.427686e+01	-9.645211e-05
2.441709e+01	-9.756953e-05
2.455812e+01	-9.869988e-05
2.469997e+01	-9.984334e-05
2.484263e+01	-1.010000e-04
2.498612e+01	-1.021701e-04
2.513044e+01	-1.033538e-04
2.527559e+01	-1.045512e-04
2.542158e+01	-1.057624e-04
2.556842e+01	-1.069877e-04
2.571610e+01	-1.082271e-04
2.586463e+01	-1.094810e-04
2.601403e+01	-1.107493e-04
2.616428e+01	-1.120324e-04
2.631541e+01	-1.133303e-04
2.646740e+01	-1.146432e-04
2.662028e+01	-1.159714e-04
2.677404e+01	-1.173149e-04
2.692868e+01	-1.186740e-04
2.708422e+01	-1.200489e-04
2.724066e+01	-1.214397e-04
2.739800e+01	-1.228465e-04
2.755625e+01	-1.242697e-04
2.771541e+01	-1.257094e-04
2.787550e+01	-1.271658e-04
2.803650e+01	-1.286390e-04
2.819844e+01	-1.301293e-04
2.836131e+01	-1.316369e-04
2.852513e+01	-1.331619e-04
2.868989e+01	-1.347046e-04
2.885560e+01	-1.362651e-04
2.902227e+01	-1.378438e-04
2.918990e+01	-1.394407e-04
2.935850e+01	-1.410562e-04
2.952807e+01	-1.426903e-04
2.969863e+01	-1.443434e-04
2.987016e+01	-1.460156e-04
3.004269e+01	-1.477072e-04
3.021622e+01	-1.494184e-04
3.039075e+01	-1.511494e-04
3.056628e+01	-1.529005e-04
3.074283e+01	-1.546719e-04
3.092040e+01	-1.564638e-04
3.109900e+01	-1.582764e-04
3.127862e+01	-1.601101e-04
3.145929e+01	-1.619649e-04
3.164099e+01	-1.638413e-04
3.182375e+01	-1.657394e-04
3.200756e+01	-1.676595e-04
3.219244e+01	-1.696019e-04
3.237838e+01	-1.715667e-04
3.256540e+01	-1.735543e-04
3.275349e+01	-1.755650e-04
3.294268e+01	-1.775989e-04
3.313295e+01	-1.796564e-04
3.332433e+01	-1.817377e-04
3.351681e+01	-1.838431e-04
3.371040e+01	-1.859730e-04
3.390511e+01	-1.881275e-04
3.410094e+01	-1.903069e-04
3.429791e+01	-1.925116e-04
3.449601e+01	-1.947419e-04
3.469526e+01	-1.969980e-04
3.489566e+01	-1.992802e-04
3.509721e+01	-2.015889e-04
3.529993e+01	-2.039243e-04
3.550382e+01	-2.062867e-04
3.570889e+01	-2.086766e-04
3.591515e+01	-2.110941e-04
3.612259e+01	-2.135396e-04
3.633123e+01	-2.160135e-04
3.654108e+01	-2.185160e-04
3.675214e+01	-2.210475e-04
3.696442e+01	-2.236083e-04
3.717792e+01	-2.261988e-04
3.739266e+01	-2.288193e-04
3.760864e+01	-2.314702e-04
3.782587e+01	-2.341518e-04
3.804435e+01	-2.368644e-04
3.826409e+01	-2.396085e-04
3.848510e+01	-2.423843e-04
3.870739e+01	-2.451923e-04
3.893096e+01	-2.480329e-04
3.915583e+01	-2.509063e-04
3.938199e+01	-2.538130e-04
3.960946e+01	-2.567535e-04
3.983824e+01	-2.597279e-04
4.006834e+01	-2.627369e-04
4.029978e+01	-2.657806e-04
4.053255e+01	-2.688597e-04
4.076666e+01	-2.719744e-04
4.100213e+01	-2.751252e-04
4.123896e+01	-2.783125e-04
4.147715e+01	-2.815367e-04
4.171672e+01	-2.847983e-04
4.195767e+01	-2.880977e-04
4.220002e+01	-2.914352e-04
4.244377e+01	-2.948115e-04
4.268892e+01	-2.982268e-04
4.293549e+01	-3.016818e-04
4.318348e+01	-3.051767e-04
4.343291e+01	-3.087121e-04
4.368377e+01	-3.122885e-04
4.393609e+01	-3.159063e-04
4.418986e+01	-3.195661e-04
4.444510e+01	-3.232682e-04
4.470182e+01	-3.270132e-04
4.496001e+01	-3.308016e-04
4.521970e+01	-3.346339e-04
4.548089e+01	-3.385106e-04
4.574358e+01	-3.424321e-04
4.600779e+01	-3.463992e-04
4.627353e+01	-3.504121e-04
4.654081e+01	-3.544716e-04
4.680963e+01	-3.585781e-04
4.708000e+01	-3.627321e-04
4.735193e+01	-3.669343e-04
4.762543e+01	-3.711851e-04
4.790051e+01	-3.754852e-04
4.817719e+01	-3.798351e-04
4.845545e+01	-3.842355e-04
4.873533e+01	-3.886867e-04
4.901682e+01	-3.931896e-04
4.929994e+01	-3.977446e-04
4.958470e+01	-4.023523e-04
4.987110e+01	-4.070135e-04
5.015915e+01	-4.117286e-04
5.044887e+01	-4.164984e-04
5.074026e+01	-4.213234e-04
5.103333e+01	-4.262043e-04
5.132810e+01	-4.311418e-04
5.162457e+01	-4.361364e-04
5.192275e+01	-4.411889e-04
5.222265e+01	-4.462999e-04
5.252429e+01	-4.514702e-04
5.282767e+01	-4.567003e-04
5.313280e+01	-4.619910e-04
5.343969e+01	-4.673430e-04
5.374836e+01	-4.727570e-04
5.405880e+01	-4.782338e-04
5.437105e+01	-4.837739e-04
5.468509e+01	-4.893783e-04
5.500095e+01	-4.950475e-04
5.531863e+01	-5.007824e-04
5.563815e+01	-5.065838e-04
5.595951e+01	-5.124524e-04
5.628273e+01	-5.183889e-04
5.660782e+01	-5.243942e-04
5.693479e+01	-5.304691e-04
5.726364e+01	-5.366144e-04
5.759439e+01	-5.428308e-04
5.792705e+01	-5.491193e-04
5.826164e+01	-5.554806e-04
5.859815e+01	-5.619155e-04
5.893662e+01	-5.684251e-04
5.927703e+01	-5.750100e-04
5.961941e+01	-5.816712e-04
5.996377e+01	-5.884095e-04
6.031012e+01	-5.952260e-04
6.065847e+01	-6.021213e-04
6.100883e+01	-6.090966e-04
6.136121e+01	-6.161527e-04
6.171563e+01	-6.232904e-04
6.207210e+01	-6.305109e-04
6.243063e+01	-6.378150e-04
6.279122e+01	-6.452037e-04
6.315390e+01	-6.526780e-04
6.351868e+01	-6.602389e-04
6.388556e+01	-6.678874e-04
6.425456e+01	-6.756244e-04
6.462569e+01	-6.834511e-04
6.499897e+01	-6.913684e-04
6.537440e+01	-6.993775e-04
6.575200e+01	-7.074793e-04
6.613178e+01	-7.156750e-04
6.651375e+01	-7.239656e-04
6.689793e+01	-7.323522e-04
6.728433e+01	-7.408360e-04
6.767297e+01	-7.494180e-04
6.806384e+01	-7.580995e-04
6.845698e+01	-7.668815e-04
6.885238e+01	-7.757652e-04
6.925007e+01	-7.847519e-04
6.965005e+01	-7.938426e-04
7.005235e+01	-8.030387e-04
7.045697e+01	-8.123412e-04
7.086393e+01	-8.217515e-04
7.127323e+01	-8.312708e-04
7.168490e+01	-8.409004e-04
7.209895e+01	-8.506415e-04
7.251539e+01	-8.604954e-04
7.293424e+01	-8.704635e-04
7.335551e+01	-8.805470e-04
7.377920e+01	-8.907474e-04
7.420535e+01	-9.010659e-04
7.463396e+01	-9.115039e-04
7.506504e+01	-9.220628e-04
7.549861e+01	-9.327440e-04
7.593469e+01	-9.435489e-04
7.637328e+01	-9.544789e-04
7.681441e+01	-9.655356e-04
7.725809e+01	-9.767204e-04
7.770433e+01	-9.880346e-04
7.815315e+01	-9.994800e-04
7.860456e+01	-1.011058e-03
7.905857e+01	-1.022770e-03
7.951521e+01	-1.034618e-03
7.997449e+01	-1.046602e-03
8.043642e+01	-1.058726e-03
8.090102e+01	-1.070990e-03
8.136830e+01	-1.083396e-03
8.183828e+01	-1.095946e-03
8.231097e+01	-1.108641e-03
8.278640e+01	-1.121484e-03
8.326457e+01	-1.134475e-03
8.374550e+01	-1.147616e-03
8.422921e+01	-1.160910e-03
8.471572e+01	-1.174357e-03
8.520503e+01	-1.187961e-03
8.569717e+01	-1.201722e-03
8.619215e+01	-1.215642e-03
8.669000e+01	-1.229724e-03
8.719071e+01	-1.243968e-03
8.769432e+01	-1.258378e-03
8.820084e+01	-1.272954e-03
8.871029e+01	-1.287700e-03
8.922267e+01	-1.302616e-03
8.973802e+01	-1.317705e-03
9.025634e+01	-1.332968e-03
9.077766e+01	-1.348409e-03
9.130199e+01	-1.364028e-03
9.182935e+01	-1.379828e-03
9.235975e+01	-1.395811e-03
9.289321e+01	-1.411979e-03
9.342976e+01	-1.428335e-03
9.396941e+01	-1.444880e-03
9.451217e+01	-1.461616e-03
9.505807e+01	-1.478547e-03
9.560712e+01	-1.495673e-03
9.615934e+01	-1.512998e-03
9.671476e+01	-1.530523e-03
9.727338e+01	-1.548252e-03
9.783522e+01	-1.566185e-03
9.840032e+01	-1.584327e-03
9.896867e+01	-1.602678e-03
9.954031e+01	-1.621242e-03
1.001153e+02	-1.640021e-03
1.006935e+02	-1.659018e-03
1.012751e+02	-1.678234e-03
1.018601e+02	-1.697673e-03
1.024484e+02	-1.717337e-03
1.030402e+02	-1.737229e-03
1.036353e+02	-1.757351e-03
1.042339e+02	-1.777706e-03
1.048360e+02	-1.798297e-03
1.054415e+02	-1.819127e-03
1.060505e+02	-1.840197e-03
1.066631e+02	-1.861512e-03
1.072791e+02	-1.883073e-03
1.078988e+02	-1.904884e-03
1.085220e+02	-1.926948e-03
1.091488e+02	-1.949267e-03
1.097793e+02	-1.971845e-03
1.104133e+02	-1.994684e-03
1.110511e+02	-2.017788e-03
1.116925e+02	-2.041159e-03
1.123376e+02	-2.064801e-03
1.129865e+02	-2.088716e-03
1.136391e+02	-2.112908e-03
1.142955e+02	-2.137381e-03
1.149556e+02	-2.162137e-03
1.156196e+02	-2.187180e-03
1.162874e+02	-2.212512e-03
1.169591e+02	-2.238138e-03
1.176347e+02	-2.264061e-03
1.183141e+02	-2.290284e-03
1.189975e+02	-2.316810e-03
1.196848e+02	-2.343644e-03
1.203761e+02	-2.370788e-03
1.210714e+02	-2.398247e-03
1.217707e+02	-2.426023e-03
1.224740e+02	-2.454121e-03
1.231814e+02	-2.482545e-03
1.238929e+02	-2.511298e-03
1.246085e+02	-2.540383e-03
1.253283e+02	-2.569805e-03
1.260522e+02	-2.599568e-03
1.267802e+02	-2.629676e-03
1.275125e+02	-2.660132e-03
1.282490e+02	-2.690941e-03
1.289898e+02	-2.722106e-03
1.297348e+02	-2.753633e-03
1.304842e+02	-2.785524e-03
1.312378e+02	-2.817784e-03
1.319959e+02	-2.850418e-03
1.327583e+02	-2.883430e-03
1.335251e+02	-2.916824e-03
1.342963e+02	-2.950605e-03
1.350720e+02	-2.984777e-03
1.358522e+02	-3.019344e-03
1.366368e+02	-3.054312e-03
1.374260e+02	-3.089684e-03
1.382198e+02	-3.125466e-03
1.390182e+02	-3.161662e-03
1.398211e+02	-3.198278e-03
1.406287e+02	-3.235317e-03
1.414410e+02	-3.272784e-03
1.422579e+02	-3.310686e-03
1.430796e+02	-3.349026e-03
1.439060e+02	-3.387811e-03
1.447372e+02	-3.427044e-03
1.455732e+02	-3.466731e-03
1.464141e+02	-3.506878e-03
1.472597e+02	-3.547489e-03
1.481103e+02	-3.588571e-03
1.489658e+02	-3.630128e-03
1.498262e+02	-3.672166e-03
1.506916e+02	-3.714691e-03
1.515620e+02	-3.757708e-03
1.524374e+02	-3.801223e-03
1.533179e+02	-3.845242e-03
1.542034e+02	-3.889770e-03
1.550941e+02	-3.934813e-03
1.559899e+02	-3.980378e-03
1.568909e+02	-4.026470e-03
1.577971e+02	-4.073096e-03
1.587085e+02	-4.120262e-03
1.596252e+02	-4.167973e-03
1.605472e+02	-4.216237e-03
1.614745e+02	-4.265059e-03
1.624072e+02	-4.314446e-03
1.633453e+02	-4.364405e-03
1.642887e+02	-4.414942e-03
1.652377e+02	-4.466064e-03
1.661921e+02	-4.517777e-03
1.671520e+02	-4.570089e-03
1.681175e+02	-4.623007e-03
1.690885e+02	-4.676537e-03
1.700651e+02	-4.730686e-03
1.710474e+02	-4.785462e-03
1.720354e+02	-4.840872e-03
1.730291e+02	-4.896923e-03
1.740285e+02	-4.953623e-03
1.750337e+02	-5.010978e-03
1.760446e+02	-5.068998e-03
1.770615e+02	-5.127689e-03
1.780842e+02	-5.187059e-03
1.791128e+02	-5.247116e-03
1.801473e+02	-5.307868e-03
1.811878e+02	-5.369323e-03
1.822344e+02	-5.431489e-03
1.832870e+02	-5.494374e-03
1.843456e+02	-5.557987e-03
1.854104e+02	-5.622336e-03
1.864813e+02	-5.687429e-03
1.875584e+02	-5.753276e-03
1.886418e+02	-5.819884e-03
1.897313e+02	-5.887263e-03
1.908272e+02	-5.955422e-03
1.919294e+02	-6.024369e-03
1.930380e+02	-6.094114e-03
1.941530e+02	-6.164666e-03
1.952744e+02	-6.236033e-03
1.964023e+02	-6.308227e-03
1.975367e+02	-6.381255e-03
1.986777e+02	-6.455129e-03
1.998252e+02	-6.529857e-03
2.009794e+02	-6.605449e-03
2.021403e+02	-6.681916e-03
2.033078e+02	-6.759267e-03
2.044821e+02	-6.837513e-03
2.056632e+02	-6.916664e-03
2.068511e+02	-6.996731e-03
2.080459e+02	-7.077724e-03
2.092475e+02	-7.159653e-03
2.104561e+02	-7.242530e-03
2.116717e+02	-7.326366e-03
2.128943e+02	-7.411171e-03
2.141240e+02	-7.496957e-03
2.153608e+02	-7.583735e-03
2.166047e+02	-7.671517e-03
2.178558e+02	-7.760314e-03
2.191141e+02	-7.850138e-03
2.203797e+02	-7.941000e-03
2.216526e+02	-8.032913e-03
2.229329e+02	-8.125889e-03
2.242205e+02	-8.219940e-03
2.255156e+02	-8.315079e-03
2.268182e+02	-8.411318e-03
2.281283e+02	-8.508669e-03
2.294459e+02	-8.607147e-03
2.307712e+02	-8.706762e-03
2.321041e+02	-8.807530e-03
2.334447e+02	-8.909462e-03
2.347931e+02	-9.012573e-03
2.361493e+02	-9.116876e-03
2.375133e+02	-9.222385e-03
2.388851e+02	-9.329114e-03
2.402649e+02	-9.437076e-03
2.416527e+02	-9.546287e-03
2.430484e+02	-9.656759e-03
2.444523e+02	-9.768509e-03
2.458642e+02	-9.881551e-03
2.472843e+02	-9.995899e-03
2.487126e+02	-1.011157e-02
2.501492e+02	-1.022858e-02
2.515940e+02	-1.034693e-02
2.530472e+02	-1.046666e-02
2.545088e+02	-1.058777e-02
2.559789e+02	-1.071028e-02
2.574574e+02	-1.083421e-02
2.589444e+02	-1.095957e-02
2.604401e+02	-1.108637e-02
2.619444e+02	-1.121465e-02
2.634574e+02	-1.134440e-02
2.649791e+02	-1.147565e-02
2.665096e+02	-1.160842e-02
2.680489e+02	-1.174273e-02
2.695972e+02	-1.187858e-02
2.711544e+02	-1.201601e-02
2.727205e+02	-1.215502e-02
2.742958e+02	-1.229564e-02
2.758801e+02	-1.243788e-02
2.774736e+02	-1.258177e-02
2.790762e+02	-1.272732e-02
2.806882e+02	-1.287455e-02
2.823094e+02	-1.302348e-02
2.839400e+02	-1.317413e-02
2.855800e+02	-1.332652e-02
2.872295e+02	-1.348067e-02
2.888886e+02	-1.363660e-02
2.905572e+02	-1.379434e-02
2.922354e+02	-1.395389e-02
2.939234e+02	-1.411528e-02
2.956211e+02	-1.427854e-02
2.973286e+02	-1.444369e-02
2.990459e+02	-1.461074e-02
3.007732e+02	-1.477972e-02
3.025104e+02	-1.495065e-02
3.042577e+02	-1.512356e-02
3.060151e+02	-1.529846e-02
3.077826e+02	-1.547538e-02
3.095604e+02	-1.565434e-02
3.113484e+02	-1.583537e-02
3.131467e+02	-1.601848e-02
3.149554e+02	-1.620371e-02
3.167746e+02	-1.639108e-02
3.186043e+02	-1.658061e-02
3.204445e+02	-1.677233e-02
3.222954e+02	-1.696626e-02
3.241570e+02	-1.716243e-02
3.260293e+02	-1.736086e-02
3.279124e+02	-1.756159e-02
3.298064e+02	-1.776462e-02
3.317114e+02	-1.797001e-02
3.336273e+02	-1.817776e-02
3.355544e+02	-1.838790e-02
3.374925e+02	-1.860047e-02
3.394418e+02	-1.881550e-02
3.414024e+02	-1.903300e-02
3.433744e+02	-1.925301e-02
3.453577e+02	-1.947556e-02
3.473525e+02	-1.970068e-02
3.493588e+02	-1.992839e-02
3.513766e+02	-2.015873e-02
3.534062e+02	-2.039172e-02
3.554474e+02	-2.062740e-02
3.575005e+02	-2.086580e-02
3.595654e+02	-2.110694e-02
3.616422e+02	-2.135087e-02
3.637311e+02	-2.159761e-02
3.658320e+02	-2.184719e-02
3.679450e+02	-2.209965e-02
3.700702e+02	-2.235502e-02
3.722077e+02	-2.261333e-02
3.743576e+02	-2.287462e-02
3.765199e+02	-2.313892e-02
3.786946e+02	-2.340627e-02
3.808820e+02	-2.367669e-02
3.830819e+02	-2.395023e-02
3.852946e+02	-2.422693e-02
3.875200e+02	-2.450681e-02
3.897583e+02	-2.478991e-02
3.920096e+02	-2.507628e-02
3.942738e+02	-2.536594e-02
3.965511e+02	-2.565894e-02
3.988416e+02	-2.595532e-02
4.011452e+02	-2.625510e-02
4.034622e+02	-2.655834e-02
4.057926e+02	-2.686507e-02
4.081365e+02	-2.717534e-02
4.104938e+02	-2.748917e-02
4.128648e+02	-2.780662e-02
4.152495e+02	-2.812772e-02
4.176480e+02	-2.845251e-02
4.200603e+02	-2.878105e-02
4.224866e+02	-2.911336e-02
4.249268e+02	-2.944950e-02
4.273812e+02	-2.978951e-02
4.298497e+02	-3.013343e-02
4.323325e+02	-3.048130e-02
4.348297e+02	-3.083318e-02
4.373412e+02	-3.118910e-02
4.398673e+02	-3.154912e-02
4.424079e+02	-3.191328e-02
4.449633e+02	-3.228162e-02
4.475334e+02	-3.265421e-02
4.501183e+02	-3.303107e-02
4.527182e+02	-3.341227e-02
4.553330e+02	-3.379785e-02
4.579630e+02	-3.418786e-02
4.606082e+02	-3.458235e-02
4.632687e+02	-3.498138e-02
4.659445e+02	-3.538499e-02
4.686358e+02	-3.579324e-02
4.713426e+02	-3.620619e-02
4.740650e+02	-3.662387e-02
4.768032e+02	-3.704635e-02
4.795572e+02	-3.747369e-02
4.823271e+02	-3.790593e-02
4.851130e+02	-3.834314e-02
4.879150e+02	-3.878537e-02
4.907332e+02	-3.923267e-02
4.935676e+02	-3.968511e-02
4.964185e+02	-4.014274e-02
4.992858e+02	-4.060563e-02
5.021696e+02	-4.107382e-02
5.050701e+02	-4.154739e-02
5.079874e+02	-4.202640e-02
5.109215e+02	-4.251090e-02
5.138726e+02	-4.300095e-02
5.168407e+02	-4.349663e-02
5.198259e+02	-4.399799e-02
5.228284e+02	-4.450510e-02
5.258482e+02	-4.501803e-02
5.288855e+02	-4.553683e-02
5.319403e+02	-4.606159e-02
5.350128e+02	-4.659236e-02
5.381030e+02	-4.712921e-02
5.412111e+02	-4.767221e-02
5.443371e+02	-4.822143e-02
5.474812e+02	-4.877695e-02
5.506434e+02	-4.933882e-02
5.538239e+02	-4.990714e-02
5.570228e+02	-5.048196e-02
5.602401e+02	-5.106336e-02
5.634760e+02	-5.165142e-02
5.667306e+02	-5.224621e-02
5.700040e+02	-5.284781e-02
5.732964e+02	-5.345629e-02
5.766077e+02	-5.407174e-02
5.799382e+02	-5.469422e-02
5.832879e+02	-5.532383e-02
5.866569e+02	-5.596064e-02
5.900454e+02	-5.660472e-02
5.934535e+02	-5.725618e-02
5.968813e+02	-5.791508e-02
6.003288e+02	-5.858151e-02
6.037963e+02	-5.925556e-02
6.072838e+02	-5.993731e-02
6.107914e+02	-6.062684e-02
6.143194e+02	-6.132426e-02
6.178676e+02	-6.202964e-02
6.214364e+02	-6.274307e-02
6.250258e+02	-6.346465e-02
6.286359e+02	-6.419447e-02
6.322669e+02	-6.493262e-02
6.359189e+02	-6.567919e-02
6.395919e+02	-6.643428e-02
6.432862e+02	-6.719798e-02
6.470017e+02	-6.797039e-02
6.507388e+02	-6.875161e-02
6.544974e+02	-6.954174e-02
6.582778e+02	-7.034087e-02
6.620800e+02	-7.114911e-02
6.659041e+02	-7.196656e-02
6.697504e+02	-7.279333e-02
6.736188e+02	-7.362951e-02
6.775096e+02	-7.447521e-02
6.814229e+02	-7.533054e-02
6.853587e+02	-7.619561e-02
6.893173e+02	-7.707053e-02
6.932988e+02	-7.795540e-02
6.973033e+02	-7.885034e-02
7.013309e+02	-7.975546e-02
