Frequency(Hz)	Magnitude(dB)
1.000000e+01	-1.729640e-05
1.005776e+01	-1.749679e-05
1.011585e+01	-1.769949e-05
1.017428e+01	-1.790455e-05
1.023305e+01	-1.811197e-05
1.029215e+01	-1.832181e-05
1.035160e+01	-1.853407e-05
1.041139e+01	-1.874879e-05
1.047153e+01	-1.896600e-05
1.053201e+01	-1.918573e-05
1.059284e+01	-1.940800e-05
1.065403e+01	-1.963284e-05
1.071556e+01	-1.986030e-05
1.077746e+01	-2.009038e-05
1.083971e+01	-2.032313e-05
1.090232e+01	-2.055858e-05
1.096529e+01	-2.079676e-05
1.102862e+01	-2.103769e-05
1.109232e+01	-2.128142e-05
1.115639e+01	-2.152797e-05
1.122083e+01	-2.177738e-05
1.128564e+01	-2.202968e-05
1.135083e+01	-2.228490e-05
1.141639e+01	-2.254307e-05
1.148233e+01	-2.280424e-05
1.154865e+01	-2.306843e-05
1.161536e+01	-2.333568e-05
1.168245e+01	-2.360603e-05
1.174992e+01	-2.387952e-05
1.181779e+01	-2.415617e-05
1.188605e+01	-2.443602e-05
1.195470e+01	-2.471912e-05
1.202375e+01	-2.500550e-05
1.209320e+01	-2.529519e-05
1.216305e+01	-2.558824e-05
1.223330e+01	-2.588469e-05
1.230396e+01	-2.618457e-05
1.237503e+01	-2.648792e-05
1.244651e+01	-2.679479e-05
1.251840e+01	-2.710522e-05
1.259070e+01	-2.741924e-05
1.266343e+01	-2.773689e-05
1.273657e+01	-2.805823e-05
1.281014e+01	-2.838330e-05
1.288413e+01	-2.871212e-05
1.295855e+01	-2.904476e-05
1.303339e+01	-2.938125e-05
1.310867e+01	-2.972164e-05
1.318439e+01	-3.006597e-05
1.326054e+01	-3.041429e-05
1.333713e+01	-3.076665e-05
1.341417e+01	-3.112309e-05
1.349165e+01	-3.148366e-05
1.356958e+01	-3.184840e-05
1.364795e+01	-3.221737e-05
1.372678e+01	-3.259062e-05
1.380607e+01	-3.296819e-05
1.388581e+01	-3.335013e-05
1.396602e+01	-3.373650e-05
1.404668e+01	-3.412735e-05
1.412782e+01	-3.452272e-05
1.420942e+01	-3.492268e-05
1.429149e+01	-3.532726e-05
1.437404e+01	-3.573654e-05
1.445706e+01	-3.615055e-05
1.454057e+01	-3.656937e-05
1.462455e+01	-3.699303e-05
1.470902e+01	-3.742160e-05
1.479398e+01	-3.785514e-05
1.487943e+01	-3.829370e-05
1.496537e+01	-3.873734e-05
1.505181e+01	-3.918612e-05
1.513875e+01	-3.964010e-05
1.522619e+01	-4.009934e-05
1.531414e+01	-4.056390e-05
1.540259e+01	-4.103385e-05
1.549156e+01	-4.150923e-05
1.558103e+01	-4.199013e-05
1.567103e+01	-4.247659e-05
1.576155e+01	-4.296869e-05
1.585258e+01	-4.346649e-05
1.594415e+01	-4.397006e-05
1.603624e+01	-4.447946e-05
1.612886e+01	-4.499477e-05
1.622202e+01	-4.551604e-05
1.631572e+01	-4.604336e-05
1.640996e+01	-4.657678e-05
1.650474e+01	-4.711638e-05
1.660008e+01	-4.766223e-05
1.669596e+01	-4.821441e-05
1.679239e+01	-4.877299e-05
1.688938e+01	-4.933803e-05
1.698694e+01	-4.990962e-05
1.708505e+01	-5.048784e-05
1.718373e+01	-5.107275e-05
1.728299e+01	-5.166444e-05
1.738281e+01	-5.226298e-05
1.748322e+01	-5.286846e-05
1.758420e+01	-5.348095e-05
1.768576e+01	-5.410054e-05
1.778792e+01	-5.472730e-05
1.789066e+01	-5.536133e-05
1.799399e+01	-5.600270e-05
1.809793e+01	-5.665151e-05
1.820246e+01	-5.730783e-05
1.830760e+01	-5.797175e-05
1.841334e+01	-5.864336e-05
1.851969e+01	-5.932276e-05
1.862666e+01	-6.001002e-05
1.873425e+01	-6.070525e-05
1.884246e+01	-6.140853e-05
1.895129e+01	-6.211996e-05
1.906075e+01	-6.283964e-05
1.917085e+01	-6.356765e-05
1.928158e+01	-6.430409e-05
1.939295e+01	-6.504906e-05
1.950496e+01	-6.580267e-05
1.961762e+01	-6.656501e-05
1.973093e+01	-6.733618e-05
1.984490e+01	-6.811628e-05
1.995952e+01	-6.890542e-05
2.007480e+01	-6.970370e-05
2.019076e+01	-7.051123e-05
2.030738e+01	-7.132812e-05
2.042467e+01	-7.215447e-05
2.054264e+01	-7.299039e-05
2.066130e+01	-7.383599e-05
2.078064e+01	-7.469140e-05
2.090066e+01	-7.555671e-05
2.102139e+01	-7.643205e-05
2.114280e+01	-7.731753e-05
2.126492e+01	-7.821326e-05
2.138775e+01	-7.911938e-05
2.151128e+01	-8.003599e-05
2.163553e+01	-8.096322e-05
2.176050e+01	-8.190119e-05
2.188619e+01	-8.285003e-05
2.201260e+01	-8.380987e-05
2.213974e+01	-8.478082e-05
2.226762e+01	-8.576302e-05
2.239624e+01	-8.675659e-05
2.252560e+01	-8.776168e-05
2.265571e+01	-8.877842e-05
2.278656e+01	-8.980693e-05
2.291818e+01	-9.084736e-05
2.305055e+01	-9.189984e-05
2.318369e+01	-9.296451e-05
2.331760e+01	-9.404152e-05
2.345228e+01	-9.513101e-05
2.358774e+01	-9.623311e-05
2.372398e+01	-9.734799e-05
2.386101e+01	-9.847578e-05
2.399883e+01	-9.961663e-05
2.413745e+01	-1.007707e-04
2.427686e+01	-1.019382e-04
2.441709e+01	-1.031191e-04
2.455812e+01	-1.043138e-04
2.469997e+01	-1.055223e-04
2.484263e+01	-1.067447e-04
2.498612e+01	-1.079814e-04
2.513044e+01	-1.092324e-04
2.527559e+01	-1.104979e-04
2.542158e+01	-1.117780e-04
2.556842e+01	-1.130729e-04
2.571610e+01	-1.143829e-04
2.586463e+01	-1.157080e-04
2.601403e+01	-1.170485e-04
2.616428e+01	-1.184046e-04
2.631541e+01	-1.197763e-04
2.646740e+01	-1.211639e-04
2.662028e+01	-1.225676e-04
2.677404e+01	-1.239876e-04
2.692868e+01	-1.254240e-04
2.708422e+01	-1.268770e-04
2.724066e+01	-1.283469e-04
2.739800e+01	-1.298338e-04
2.755625e+01	-1.313380e-04
2.771541e+01	-1.328595e-04
2.787550e+01	-1.343987e-04
2.803650e+01	-1.359557e-04
2.819844e+01	-1.375308e-04
2.836131e+01	-1.391241e-04
2.852513e+01	-1.407359e-04
2.868989e+01	-1.423663e-04
2.885560e+01	-1.440156e-04
2.902227e+01	-1.456841e-04
2.918990e+01	-1.473718e-04
2.935850e+01	-1.490792e-04
2.952807e+01	-1.508062e-04
2.969863e+01	-1.525534e-04
2.987016e+01	-1.543207e-04
3.004269e+01	-1.561085e-04
3.021622e+01	-1.579170e-04
3.039075e+01	-1.597465e-04
3.056628e+01	-1.615972e-04
3.074283e+01	-1.634693e-04
3.092040e+01	-1.653631e-04
3.109900e+01	-1.672788e-04
3.127862e+01	-1.692168e-04
3.145929e+01	-1.711772e-04
3.164099e+01	-1.731603e-04
3.182375e+01	-1.751663e-04
3.200756e+01	-1.771956e-04
3.219244e+01	-1.792485e-04
3.237838e+01	-1.813251e-04
3.256540e+01	-1.834257e-04
3.275349e+01	-1.855507e-04
3.294268e+01	-1.877003e-04
3.313295e+01	-1.898748e-04
3.332433e+01	-1.920745e-04
3.351681e+01	-1.942997e-04
3.371040e+01	-1.965507e-04
3.390511e+01	-1.988277e-04
3.410094e+01	-2.011311e-04
3.429791e+01	-2.034613e-04
3.449601e+01	-2.058184e-04
3.469526e+01	-2.082028e-04
3.489566e+01	-2.106148e-04
3.509721e+01	-2.130548e-04
3.529993e+01	-2.155230e-04
3.550382e+01	-2.180198e-04
3.570889e+01	-2.205456e-04
3.591515e+01	-2.231006e-04
3.612259e+01	-2.256852e-04
3.633123e+01	-2.282998e-04
3.654108e+01	-2.309446e-04
3.675214e+01	-2.336201e-04
3.696442e+01	-2.363266e-04
3.717792e+01	-2.390644e-04
3.739266e+01	-2.418340e-04
3.760864e+01	-2.446356e-04
3.782587e+01	-2.474697e-04
3.804435e+01	-2.503366e-04
3.826409e+01	-2.532368e-04
3.848510e+01	-2.561705e-04
3.870739e+01	-2.591382e-04
3.893096e+01	-2.621403e-04
3.915583e+01	-2.651772e-04
3.938199e+01	-2.682492e-04
3.960946e+01	-2.713569e-04
3.983824e+01	-2.745005e-04
4.006834e+01	-2.776806e-04
4.029978e+01	-2.808975e-04
4.053255e+01	-2.841517e-04
4.076666e+01	-2.874435e-04
4.100213e+01	-2.907735e-04
4.123896e+01	-2.941421e-04
4.147715e+01	-2.975497e-04
4.171672e+01	-3.009968e-04
4.195767e+01	-3.044838e-04
4.220002e+01	-3.080112e-04
4.244377e+01	-3.115795e-04
4.268892e+01	-3.151891e-04
4.293549e+01	-3.188405e-04
4.318348e+01	-3.225342e-04
4.343291e+01	-3.262707e-04
4.368377e+01	-3.300505e-04
4.393609e+01	-3.338741e-04
4.418986e+01	-3.377420e-04
4.444510e+01	-3.416546e-04
4.470182e+01	-3.456126e-04
4.496001e+01	-3.496165e-04
4.521970e+01	-3.536667e-04
4.548089e+01	-3.577639e-04
4.574358e+01	-3.619085e-04
4.600779e+01	-3.661012e-04
4.627353e+01	-3.703424e-04
4.654081e+01	-3.746327e-04
4.680963e+01	-3.789727e-04
4.708000e+01	-3.833630e-04
4.735193e+01	-3.878042e-04
4.762543e+01	-3.922968e-04
4.790051e+01	-3.968415e-04
4.817719e+01	-4.014388e-04
4.845545e+01	-4.060894e-04
4.873533e+01	-4.107938e-04
4.901682e+01	-4.155527e-04
4.929994e+01	-4.203668e-04
4.958470e+01	-4.252366e-04
4.987110e+01	-4.301628e-04
5.015915e+01	-4.351462e-04
5.044887e+01	-4.401872e-04
5.074026e+01	-4.452866e-04
5.103333e+01	-4.504451e-04
5.132810e+01	-4.556634e-04
5.162457e+01	-4.609421e-04
5.192275e+01	-4.662819e-04
5.222265e+01	-4.716836e-04
5.252429e+01	-4.771479e-04
5.282767e+01	-4.826755e-04
5.313280e+01	-4.882671e-04
5.343969e+01	-4.939235e-04
5.374836e+01	-4.996454e-04
5.405880e+01	-5.054336e-04
5.437105e+01	-5.112889e-04
5.468509e+01	-5.172119e-04
5.500095e+01	-5.232036e-04
5.531863e+01	-5.292647e-04
5.563815e+01	-5.353960e-04
5.595951e+01	-5.415983e-04
5.628273e+01	-5.478725e-04
5.660782e+01	-5.542194e-04
5.693479e+01	-5.606397e-04
5.726364e+01	-5.671345e-04
5.759439e+01	-5.737044e-04
5.792705e+01	-5.803505e-04
5.826164e+01	-5.870736e-04
5.859815e+01	-5.938745e-04
5.893662e+01	-6.007543e-04
5.927703e+01	-6.077137e-04
5.961941e+01	-6.147537e-04
5.996377e+01	-6.218753e-04
6.031012e+01	-6.290794e-04
6.065847e+01	-6.363669e-04
6.100883e+01	-6.437388e-04
6.136121e+01	-6.511962e-04
6.171563e+01	-6.587399e-04
6.207210e+01	-6.663710e-04
6.243063e+01	-6.740905e-04
6.279122e+01	-6.818994e-04
6.315390e+01	-6.897987e-04
6.351868e+01	-6.977896e-04
6.388556e+01	-7.058730e-04
6.425456e+01	-7.140501e-04
6.462569e+01	-7.223219e-04
6.499897e+01	-7.306895e-04
6.537440e+01	-7.391540e-04
6.575200e+01	-7.477165e-04
6.613178e+01	-7.563783e-04
6.651375e+01	-7.651404e-04
6.689793e+01	-7.740039e-04
6.728433e+01	-7.829702e-04
6.767297e+01	-7.920403e-04
6.806384e+01	-8.012154e-04
6.845698e+01	-8.104969e-04
6.885238e+01	-8.198858e-04
6.925007e+01	-8.293835e-04
6.965005e+01	-8.389912e-04
7.005235e+01	-8.487102e-04
7.045697e+01	-8.585418e-04
7.086393e+01	-8.684872e-04
7.127323e+01	-8.785479e-04
7.168490e+01	-8.887250e-04
7.209895e+01	-8.990201e-04
7.251539e+01	-9.094344e-04
7.293424e+01	-9.199693e-04
7.335551e+01	-9.306263e-04
7.377920e+01	-9.414067e-04
7.420535e+01	-9.523119e-04
7.463396e+01	-9.633435e-04
7.506504e+01	-9.745028e-04
7.549861e+01	-9.857914e-04
7.593469e+01	-9.972108e-04
7.637328e+01	-1.008762e-03
7.681441e+01	-1.020448e-03
7.725809e+01	-1.032269e-03
7.770433e+01	-1.044226e-03
7.815315e+01	-1.056322e-03
7.860456e+01	-1.068559e-03
7.905857e+01	-1.080937e-03
7.951521e+01	-1.093458e-03
7.997449e+01	-1.106124e-03
8.043642e+01	-1.118938e-03
8.090102e+01	-1.131899e-03
8.136830e+01	-1.145011e-03
8.183828e+01	-1.158274e-03
8.231097e+01	-1.171691e-03
8.278640e+01	-1.185264e-03
8.326457e+01	-1.198994e-03
8.374550e+01	-1.212882e-03
8.422921e+01	-1.226932e-03
8.471572e+01	-1.241144e-03
8.520503e+01	-1.255521e-03
8.569717e+01	-1.270065e-03
8.619215e+01	-1.284776e-03
8.669000e+01	-1.299659e-03
8.719071e+01	-1.314713e-03
8.769432e+01	-1.329942e-03
8.820084e+01	-1.345348e-03
8.871029e+01	-1.360931e-03
8.922267e+01	-1.376696e-03
8.973802e+01	-1.392642e-03
9.025634e+01	-1.408774e-03
9.077766e+01	-1.425092e-03
9.130199e+01	-1.441600e-03
9.182935e+01	-1.458298e-03
9.235975e+01	-1.475190e-03
9.289321e+01	-1.492278e-03
9.342976e+01	-1.509563e-03
9.396941e+01	-1.527049e-03
9.451217e+01	-1.544737e-03
9.505807e+01	-1.562630e-03
9.560712e+01	-1.580730e-03
9.615934e+01	-1.599040e-03
9.671476e+01	-1.617562e-03
9.727338e+01	-1.636298e-03
9.783522e+01	-1.655251e-03
9.840032e+01	-1.674424e-03
9.896867e+01	-1.693819e-03
9.954031e+01	-1.713438e-03
1.001153e+02	-1.733285e-03
1.006935e+02	-1.753362e-03
1.012751e+02	-1.773671e-03
1.018601e+02	-1.794215e-03
1.024484e+02	-1.814997e-03
1.030402e+02	-1.836020e-03
1.036353e+02	-1.857286e-03
1.042339e+02	-1.878798e-03
1.048360e+02	-1.900560e-03
1.054415e+02	-1.922574e-03
1.060505e+02	-1.944842e-03
1.066631e+02	-1.967369e-03
1.072791e+02	-1.990156e-03
1.078988e+02	-2.013207e-03
1.085220e+02	-2.036525e-03
1.091488e+02	-2.060113e-03
1.097793e+02	-2.083974e-03
1.104133e+02	-2.108112e-03
1.110511e+02	-2.132529e-03
1.116925e+02	-2.157229e-03
1.123376e+02	-2.182215e-03
1.129865e+02	-2.207490e-03
1.136391e+02	-2.233057e-03
1.142955e+02	-2.258921e-03
1.149556e+02	-2.285085e-03
1.156196e+02	-2.311551e-03
1.162874e+02	-2.338324e-03
1.169591e+02	-2.365406e-03
1.176347e+02	-2.392803e-03
1.183141e+02	-2.420516e-03
1.189975e+02	-2.448551e-03
1.196848e+02	-2.476910e-03
1.203761e+02	-2.505597e-03
1.210714e+02	-2.534616e-03
1.217707e+02	-2.563972e-03
1.224740e+02	-2.593667e-03
1.231814e+02	-2.623707e-03
1.238929e+02	-2.654094e-03
1.246085e+02	-2.684833e-03
1.253283e+02	-2.715927e-03
1.260522e+02	-2.747382e-03
1.267802e+02	-2.779201e-03
1.275125e+02	-2.811388e-03
1.282490e+02	-2.843948e-03
1.289898e+02	-2.876885e-03
1.297348e+02	-2.910204e-03
1.304842e+02	-2.943908e-03
1.312378e+02	-2.978002e-03
1.319959e+02	-3.012491e-03
1.327583e+02	-3.047379e-03
1.335251e+02	-3.082671e-03
1.342963e+02	-3.118372e-03
1.350720e+02	-3.154486e-03
1.358522e+02	-3.191018e-03
1.366368e+02	-3.227973e-03
1.374260e+02	-3.265356e-03
1.382198e+02	-3.303172e-03
1.390182e+02	-3.341425e-03
1.398211e+02	-3.380121e-03
1.406287e+02	-3.419265e-03
1.414410e+02	-3.458863e-03
1.422579e+02	-3.498918e-03
1.430796e+02	-3.539438e-03
1.439060e+02	-3.580426e-03
1.447372e+02	-3.621889e-03
1.455732e+02	-3.663832e-03
1.464141e+02	-3.706260e-03
1.472597e+02	-3.749179e-03
1.481103e+02	-3.792595e-03
1.489658e+02	-3.836514e-03
1.498262e+02	-3.880941e-03
1.506916e+02	-3.925883e-03
1.515620e+02	-3.971344e-03
1.524374e+02	-4.017332e-03
1.533179e+02	-4.063852e-03
1.542034e+02	-4.110910e-03
1.550941e+02	-4.158514e-03
1.559899e+02	-4.206668e-03
1.568909e+02	-4.255379e-03
1.577971e+02	-4.304654e-03
1.587085e+02	-4.354500e-03
1.596252e+02	-4.404922e-03
1.605472e+02	-4.455928e-03
1.614745e+02	-4.507524e-03
1.624072e+02	-4.559718e-03
1.633453e+02	-4.612515e-03
1.642887e+02	-4.665924e-03
1.652377e+02	-4.719950e-03
1.661921e+02	-4.774602e-03
1.671520e+02	-4.829886e-03
1.681175e+02	-4.885810e-03
1.690885e+02	-4.942381e-03
1.700651e+02	-4.999607e-03
1.710474e+02	-5.057495e-03
1.720354e+02	-5.116052e-03
1.730291e+02	-5.175288e-03
1.740285e+02	-5.235209e-03
1.750337e+02	-5.295823e-03
1.760446e+02	-5.357138e-03
1.770615e+02	-5.419163e-03
1.780842e+02	-5.481906e-03
1.791128e+02	-5.545375e-03
1.801473e+02	-5.609578e-03
1.811878e+02	-5.674524e-03
1.822344e+02	-5.740221e-03
1.832870e+02	-5.806678e-03
1.843456e+02	-5.873904e-03
1.854104e+02	-5.941909e-03
1.864813e+02	-6.010699e-03
1.875584e+02	-6.080286e-03
1.886418e+02	-6.150678e-03
1.897313e+02	-6.221884e-03
1.908272e+02	-6.293913e-03
1.919294e+02	-6.366776e-03
1.930380e+02	-6.440482e-03
1.941530e+02	-6.515041e-03
1.952744e+02	-6.590462e-03
1.964023e+02	-6.666755e-03
1.975367e+02	-6.743931e-03
1.986777e+02	-6.822000e-03
1.998252e+02	-6.900971e-03
2.009794e+02	-6.980857e-03
2.021403e+02	-7.061666e-03
2.033078e+02	-7.143409e-03
2.044821e+02	-7.226099e-03
2.056632e+02	-7.309744e-03
2.068511e+02	-7.394357e-03
2.080459e+02	-7.479949e-03
2.092475e+02	-7.566530e-03
2.104561e+02	-7.654113e-03
2.116717e+02	-7.742708e-03
2.128943e+02	-7.832328e-03
2.141240e+02	-7.922985e-03
2.153608e+02	-8.014690e-03
2.166047e+02	-8.107455e-03
2.178558e+02	-8.201293e-03
2.191141e+02	-8.296216e-03
2.203797e+02	-8.392237e-03
2.216526e+02	-8.489368e-03
2.229329e+02	-8.587622e-03
2.242205e+02	-8.687012e-03
2.255156e+02	-8.787551e-03
2.268182e+02	-8.889252e-03
2.281283e+02	-8.992130e-03
2.294459e+02	-9.096196e-03
2.307712e+02	-9.201466e-03
2.321041e+02	-9.307953e-03
2.334447e+02	-9.415671e-03
2.347931e+02	-9.524634e-03
2.361493e+02	-9.634856e-03
2.375133e+02	-9.746353e-03
2.388851e+02	-9.859138e-03
2.402649e+02	-9.973227e-03
2.416527e+02	-1.008863e-02
2.430484e+02	-1.020538e-02
2.444523e+02	-1.032347e-02
2.458642e+02	-1.044292e-02
2.472843e+02	-1.056376e-02
2.487126e+02	-1.068599e-02
2.501492e+02	-1.080964e-02
2.515940e+02	-1.093471e-02
2.530472e+02	-1.106123e-02
2.545088e+02	-1.118921e-02
2.559789e+02	-1.131867e-02
2.574574e+02	-1.144963e-02
2.589444e+02	-1.158210e-02
2.604401e+02	-1.171610e-02
2.619444e+02	-1.185165e-02
2.634574e+02	-1.198876e-02
2.649791e+02	-1.212746e-02
2.665096e+02	-1.226776e-02
2.680489e+02	-1.240968e-02
2.695972e+02	-1.255324e-02
2.711544e+02	-1.269846e-02
2.727205e+02	-1.284536e-02
2.742958e+02	-1.299395e-02
2.758801e+02	-1.314426e-02
2.774736e+02	-1.329631e-02
2.790762e+02	-1.345011e-02
2.806882e+02	-1.360569e-02
2.823094e+02	-1.376306e-02
2.839400e+02	-1.392225e-02
2.855800e+02	-1.408328e-02
2.872295e+02	-1.424617e-02
2.888886e+02	-1.441095e-02
2.905572e+02	-1.457762e-02
2.922354e+02	-1.474622e-02
2.939234e+02	-1.491676e-02
2.956211e+02	-1.508927e-02
2.973286e+02	-1.526378e-02
2.990459e+02	-1.544030e-02
3.007732e+02	-1.561886e-02
3.025104e+02	-1.579947e-02
3.042577e+02	-1.598218e-02
3.060151e+02	-1.616699e-02
3.077826e+02	-1.635393e-02
3.095604e+02	-1.654304e-02
3.113484e+02	-1.673432e-02
3.131467e+02	-1.692781e-02
3.149554e+02	-1.712354e-02
3.167746e+02	-1.732152e-02
3.186043e+02	-1.752179e-02
3.204445e+02	-1.772437e-02
3.222954e+02	-1.792928e-02
3.241570e+02	-1.813656e-02
3.260293e+02	-1.834624e-02
3.279124e+02	-1.855833e-02
3.298064e+02	-1.877286e-02
3.317114e+02	-1.898987e-02
3.336273e+02	-1.920939e-02
3.355544e+02	-1.943143e-02
3.374925e+02	-1.965604e-02
3.394418e+02	-1.988324e-02
3.414024e+02	-2.011306e-02
3.433744e+02	-2.034552e-02
3.453577e+02	-2.058067e-02
3.473525e+02	-2.081853e-02
3.493588e+02	-2.105913e-02
3.513766e+02	-2.130251e-02
3.534062e+02	-2.154869e-02
3.554474e+02	-2.179770e-02
3.575005e+02	-2.204959e-02
3.595654e+02	-2.230439e-02
3.616422e+02	-2.256211e-02
3.637311e+02	-2.282281e-02
3.658320e+02	-2.308652e-02
3.679450e+02	-2.335326e-02
3.700702e+02	-2.362307e-02
3.722077e+02	-2.389600e-02
3.743576e+02	-2.417207e-02
3.765199e+02	-2.445131e-02
3.786946e+02	-2.473378e-02
3.808820e+02	-2.501950e-02
3.830819e+02	-2.530851e-02
3.852946e+02	-2.560085e-02
3.875200e+02	-2.589655e-02
3.897583e+02	-2.619566e-02
3.920096e+02	-2.649822e-02
3.942738e+02	-2.680426e-02
3.965511e+02	-2.711382e-02
3.988416e+02	-2.742694e-02
4.011452e+02	-2.774367e-02
4.034622e+02	-2.806405e-02
4.057926e+02	-2.838811e-02
4.081365e+02	-2.871591e-02
4.104938e+02	-2.904747e-02
4.128648e+02	-2.938285e-02
4.152495e+02	-2.972209e-02
4.176480e+02	-3.006523e-02
4.200603e+02	-3.041232e-02
4.224866e+02	-3.076341e-02
4.249268e+02	-3.111853e-02
4.273812e+02	-3.147773e-02
4.298497e+02	-3.184107e-02
4.323325e+02	-3.220859e-02
4.348297e+02	-3.258033e-02
4.373412e+02	-3.295634e-02
4.398673e+02	-3.333668e-02
4.424079e+02	-3.372139e-02
4.449633e+02	-3.411052e-02
4.475334e+02	-3.450413e-02
4.501183e+02	-3.490226e-02
4.527182e+02	-3.530496e-02
4.553330e+02	-3.571229e-02
4.579630e+02	-3.612430e-02
4.606082e+02	-3.654105e-02
4.632687e+02	-3.696258e-02
4.659445e+02	-3.738895e-02
4.686358e+02	-3.782022e-02
4.713426e+02	-3.825645e-02
4.740650e+02	-3.869768e-02
4.768032e+02	-3.914397e-02
4.795572e+02	-3.959539e-02
4.823271e+02	-4.005200e-02
4.851130e+02	-4.051384e-02
4.879150e+02	-4.098098e-02
4.907332e+02	-4.145349e-02
4.935676e+02	-4.193141e-02
4.964185e+02	-4.241482e-02
4.992858e+02	-4.290378e-02
5.021696e+02	-4.339834e-02
5.050701e+02	-4.389857e-02
5.079874e+02	-4.440455e-02
5.109215e+02	-4.491632e-02
5.138726e+02	-4.543396e-02
5.168407e+02	-4.595753e-02
5.198259e+02	-4.648711e-02
5.228284e+02	-4.702275e-02
5.258482e+02	-4.756453e-02
5.288855e+02	-4.811252e-02
5.319403e+02	-4.866679e-02
5.350128e+02	-4.922741e-02
5.381030e+02	-4.979444e-02
5.412111e+02	-5.036797e-02
5.443371e+02	-5.094807e-02
5.474812e+02	-5.153481e-02
5.506434e+02	-5.212827e-02
5.538239e+02	-5.272851e-02
5.570228e+02	-5.333563e-02
5.602401e+02	-5.394969e-02
5.634760e+02	-5.457078e-02
5.667306e+02	-5.519898e-02
5.700040e+02	-5.583435e-02
5.732964e+02	-5.647700e-02
5.766077e+02	-5.712699e-02
5.799382e+02	-5.778441e-02
5.832879e+02	-5.844935e-02
5.866569e+02	-5.912189e-02
5.900454e+02	-5.980211e-02
5.934535e+02	-6.049010e-02
5.968813e+02	-6.118596e-02
6.003288e+02	-6.188976e-02
6.037963e+02	-6.260159e-02
6.072838e+02	-6.332156e-02
6.107914e+02	-6.404974e-02
6.143194e+02	-6.478624e-02
6.178676e+02	-6.553114e-02
6.214364e+02	-6.628453e-02
6.250258e+02	-6.704653e-02
6.286359e+02	-6.781721e-02
6.322669e+02	-6.859668e-02
6.359189e+02	-6.938504e-02
6.395919e+02	-7.018239e-02
6.432862e+02	-7.098882e-02
6.470017e+02	-7.180445e-02
6.507388e+02	-7.262937e-02
6.544974e+02	-7.346368e-02
6.582778e+02	-7.430749e-02
6.620800e+02	-7.516092e-02
6.659041e+02	-7.602406e-02
6.697504e+02	-7.689702e-02
6.736188e+02	-7.777991e-02
6.775096e+02	-7.867286e-02
6.814229e+02	-7.957596e-02
6.853587e+02	-8.048932e-02
6.893173e+02	-8.141308e-02
6.932988e+02	-8.234733e-02
6.973033e+02	-8.329221e-02
7.013309e+02	-8.424782e-02
