Frequency(Hz)	Magnitude(dB)
1.000000e+01	-2.168503e+00
1.005776e+01	-2.188221e+00
1.011585e+01	-2.208036e+00
1.017428e+01	-2.227978e+00
1.023305e+01	-2.248209e+00
1.029215e+01	-2.268507e+00
1.035160e+01	-2.289086e+00
1.041139e+01	-2.309488e+00
1.047153e+01	-2.330164e+00
1.053201e+01	-2.350881e+00
1.059284e+01	-2.372178e+00
1.065403e+01	-2.393035e+00
1.071556e+01	-2.414240e+00
1.077746e+01	-2.435866e+00
1.083971e+01	-2.457424e+00
1.090232e+01	-2.478699e+00
1.096529e+01	-2.500690e+00
1.102862e+01	-2.523117e+00
1.109232e+01	-2.544954e+00
1.115639e+01	-2.567193e+00
1.122083e+01	-2.589699e+00
1.128564e+01	-2.612149e+00
1.135083e+01	-2.634899e+00
1.141639e+01	-2.657828e+00
1.148233e+01	-2.680714e+00
1.154865e+01	-2.703674e+00
1.161536e+01	-2.727017e+00
1.168245e+01	-2.750422e+00
1.174992e+01	-2.773880e+00
1.181779e+01	-2.797524e+00
1.188605e+01	-2.821505e+00
1.195470e+01	-2.845322e+00
1.202375e+01	-2.869505e+00
1.209320e+01	-2.893812e+00
1.216305e+01	-2.918222e+00
1.223330e+01	-2.942881e+00
1.230396e+01	-2.967314e+00
1.237503e+01	-2.992118e+00
1.244651e+01	-3.017229e+00
1.251840e+01	-3.042140e+00
1.259070e+01	-3.067779e+00
1.266343e+01	-3.093129e+00
1.273657e+01	-3.118620e+00
1.281014e+01	-3.144171e+00
1.288413e+01	-3.170241e+00
1.295855e+01	-3.195919e+00
1.303339e+01	-3.222528e+00
1.310867e+01	-3.248652e+00
1.318439e+01	-3.274909e+00
1.326054e+01	-3.301506e+00
1.333713e+01	-3.328336e+00
1.341417e+01	-3.355113e+00
1.349165e+01	-3.382374e+00
1.356958e+01	-3.409200e+00
1.364795e+01	-3.436404e+00
1.372678e+01	-3.464019e+00
1.380607e+01	-3.491650e+00
1.388581e+01	-3.519126e+00
1.396602e+01	-3.546823e+00
1.404668e+01	-3.575159e+00
1.412782e+01	-3.603167e+00
1.420942e+01	-3.631372e+00
1.429149e+01	-3.659814e+00
1.437404e+01	-3.688418e+00
1.445706e+01	-3.717139e+00
1.454057e+01	-3.746103e+00
1.462455e+01	-3.775169e+00
1.470902e+01	-3.803970e+00
1.479398e+01	-3.833409e+00
1.487943e+01	-3.862381e+00
1.496537e+01	-3.892044e+00
1.505181e+01	-3.922071e+00
1.513875e+01	-3.951852e+00
1.522619e+01	-3.981901e+00
1.531414e+01	-4.012099e+00
1.540259e+01	-4.041842e+00
1.549156e+01	-4.072357e+00
1.558103e+01	-4.102701e+00
1.567103e+01	-4.133487e+00
1.576155e+01	-4.164208e+00
1.585258e+01	-4.195101e+00
1.594415e+01	-4.226341e+00
1.603624e+01	-4.257274e+00
1.612886e+01	-4.288838e+00
1.622202e+01	-4.320153e+00
1.631572e+01	-4.352002e+00
1.640996e+01	-4.383652e+00
1.650474e+01	-4.415642e+00
1.660008e+01	-4.447730e+00
1.669596e+01	-4.479681e+00
1.679239e+01	-4.511676e+00
1.688938e+01	-4.544225e+00
1.698694e+01	-4.576777e+00
1.708505e+01	-4.609506e+00
1.718373e+01	-4.642131e+00
1.728299e+01	-4.675126e+00
1.738281e+01	-4.708308e+00
1.748322e+01	-4.741312e+00
1.758420e+01	-4.774598e+00
1.768576e+01	-4.808376e+00
1.778792e+01	-4.841208e+00
1.789066e+01	-4.875310e+00
1.799399e+01	-4.909208e+00
1.809793e+01	-4.943003e+00
1.820246e+01	-4.976941e+00
1.830760e+01	-5.011288e+00
1.841334e+01	-5.045599e+00
1.851969e+01	-5.080082e+00
1.862666e+01	-5.114570e+00
1.873425e+01	-5.149331e+00
1.884246e+01	-5.184079e+00
1.895129e+01	-5.218836e+00
1.906075e+01	-5.254055e+00
1.917085e+01	-5.289087e+00
1.928158e+01	-5.324435e+00
1.939295e+01	-5.359817e+00
1.950496e+01	-5.395332e+00
1.961762e+01	-5.430871e+00
1.973093e+01	-5.466924e+00
1.984490e+01	-5.502745e+00
1.995952e+01	-5.538409e+00
2.007480e+01	-5.574528e+00
2.019076e+01	-5.611034e+00
2.030738e+01	-5.647442e+00
2.042467e+01	-5.683840e+00
2.054264e+01	-5.719882e+00
2.066130e+01	-5.756791e+00
2.078064e+01	-5.793845e+00
2.090066e+01	-5.830778e+00
2.102139e+01	-5.867705e+00
2.114280e+01	-5.904782e+00
2.126492e+01	-5.942350e+00
2.138775e+01	-5.979180e+00
2.151128e+01	-6.016924e+00
2.163553e+01	-6.054394e+00
2.176050e+01	-6.091828e+00
2.188619e+01	-6.129914e+00
2.201260e+01	-6.167564e+00
2.213974e+01	-6.205727e+00
2.226762e+01	-6.243835e+00
2.239624e+01	-6.281843e+00
2.252560e+01	-6.320344e+00
2.265571e+01	-6.359002e+00
2.278656e+01	-6.397413e+00
2.291818e+01	-6.435914e+00
2.305055e+01	-6.474773e+00
2.318369e+01	-6.513333e+00
2.331760e+01	-6.552179e+00
2.345228e+01	-6.591399e+00
2.358774e+01	-6.630371e+00
2.372398e+01	-6.669646e+00
2.386101e+01	-6.708808e+00
2.399883e+01	-6.748147e+00
2.413745e+01	-6.787918e+00
2.427686e+01	-6.827421e+00
2.441709e+01	-6.867316e+00
2.455812e+01	-6.907329e+00
2.469997e+01	-6.946739e+00
2.484263e+01	-6.986878e+00
2.498612e+01	-7.027026e+00
2.513044e+01	-7.066673e+00
2.527559e+01	-7.107104e+00
2.542158e+01	-7.147460e+00
2.556842e+01	-7.187766e+00
2.571610e+01	-7.228539e+00
2.586463e+01	-7.269103e+00
2.601403e+01	-7.309753e+00
2.616428e+01	-7.350563e+00
2.631541e+01	-7.391463e+00
2.646740e+01	-7.432346e+00
2.662028e+01	-7.473202e+00
2.677404e+01	-7.514315e+00
2.692868e+01	-7.555455e+00
2.708422e+01	-7.597041e+00
2.724066e+01	-7.638560e+00
2.739800e+01	-7.679870e+00
2.755625e+01	-7.721167e+00
2.771541e+01	-7.762812e+00
2.787550e+01	-7.804648e+00
2.803650e+01	-7.846141e+00
2.819844e+01	-7.888267e+00
2.836131e+01	-7.929974e+00
2.852513e+01	-7.972219e+00
2.868989e+01	-8.014238e+00
2.885560e+01	-8.056350e+00
2.902227e+01	-8.098138e+00
2.918990e+01	-8.140603e+00
2.935850e+01	-8.183125e+00
2.952807e+01	-8.225893e+00
2.969863e+01	-8.268303e+00
2.987016e+01	-8.310839e+00
3.004269e+01	-8.353929e+00
3.021622e+01	-8.395976e+00
3.039075e+01	-8.439136e+00
3.056628e+01	-8.482382e+00
3.074283e+01	-8.524999e+00
3.092040e+01	-8.567455e+00
3.109900e+01	-8.610879e+00
3.127862e+01	-8.654016e+00
3.145929e+01	-8.697327e+00
3.164099e+01	-8.740881e+00
3.182375e+01	-8.784129e+00
3.200756e+01	-8.827627e+00
3.219244e+01	-8.871231e+00
3.237838e+01	-8.914875e+00
3.256540e+01	-8.958056e+00
3.275349e+01	-9.002061e+00
3.294268e+01	-9.045632e+00
3.313295e+01	-9.089729e+00
3.332433e+01	-9.133819e+00
3.351681e+01	-9.177456e+00
3.371040e+01	-9.221679e+00
3.390511e+01	-9.265451e+00
3.410094e+01	-9.309588e+00
3.429791e+01	-9.354216e+00
3.449601e+01	-9.398137e+00
3.469526e+01	-9.442734e+00
3.489566e+01	-9.486880e+00
3.509721e+01	-9.531410e+00
3.529993e+01	-9.575723e+00
3.550382e+01	-9.620166e+00
3.570889e+01	-9.664480e+00
3.591515e+01	-9.709876e+00
3.612259e+01	-9.754771e+00
3.633123e+01	-9.799783e+00
3.654108e+01	-9.844559e+00
3.675214e+01	-9.888626e+00
3.696442e+01	-9.933744e+00
3.717792e+01	-9.978606e+00
3.739266e+01	-1.002410e+01
3.760864e+01	-1.006833e+01
3.782587e+01	-1.011397e+01
3.804435e+01	-1.015882e+01
3.826409e+01	-1.020409e+01
3.848510e+01	-1.024975e+01
3.870739e+01	-1.029503e+01
3.893096e+01	-1.034013e+01
3.915583e+01	-1.038551e+01
3.938199e+01	-1.043189e+01
3.960946e+01	-1.047699e+01
3.983824e+01	-1.052196e+01
4.006834e+01	-1.056796e+01
4.029978e+01	-1.061407e+01
4.053255e+01	-1.065893e+01
4.076666e+01	-1.070508e+01
4.100213e+01	-1.075079e+01
4.123896e+01	-1.079701e+01
4.147715e+01	-1.084278e+01
4.171672e+01	-1.088825e+01
4.195767e+01	-1.093459e+01
4.220002e+01	-1.098046e+01
4.244377e+01	-1.102683e+01
4.268892e+01	-1.107233e+01
4.293549e+01	-1.111861e+01
4.318348e+01	-1.116536e+01
4.343291e+01	-1.121144e+01
4.368377e+01	-1.125732e+01
4.393609e+01	-1.130325e+01
4.418986e+01	-1.135012e+01
4.444510e+01	-1.139688e+01
4.470182e+01	-1.144284e+01
4.496001e+01	-1.148908e+01
4.521970e+01	-1.153575e+01
4.548089e+01	-1.158192e+01
4.574358e+01	-1.162864e+01
4.600779e+01	-1.167587e+01
4.627353e+01	-1.172193e+01
4.654081e+01	-1.176926e+01
4.680963e+01	-1.181507e+01
4.708000e+01	-1.186232e+01
4.735193e+01	-1.190888e+01
4.762543e+01	-1.195567e+01
4.790051e+01	-1.200298e+01
4.817719e+01	-1.204970e+01
4.845545e+01	-1.209687e+01
4.873533e+01	-1.214388e+01
4.901682e+01	-1.219023e+01
4.929994e+01	-1.223744e+01
4.958470e+01	-1.228486e+01
4.987110e+01	-1.233134e+01
5.015915e+01	-1.237895e+01
5.044887e+01	-1.242551e+01
5.074026e+01	-1.247359e+01
5.103333e+01	-1.252007e+01
5.132810e+01	-1.256768e+01
5.162457e+01	-1.261445e+01
5.192275e+01	-1.266221e+01
5.222265e+01	-1.270957e+01
5.252429e+01	-1.275660e+01
5.282767e+01	-1.280350e+01
5.313280e+01	-1.285136e+01
5.343969e+01	-1.289890e+01
5.374836e+01	-1.294664e+01
5.405880e+01	-1.299382e+01
5.437105e+01	-1.304164e+01
5.468509e+01	-1.308890e+01
5.500095e+01	-1.313582e+01
5.531863e+01	-1.318375e+01
5.563815e+01	-1.323220e+01
5.595951e+01	-1.327922e+01
5.628273e+01	-1.332763e+01
5.660782e+01	-1.337469e+01
5.693479e+01	-1.342238e+01
5.726364e+01	-1.347096e+01
5.759439e+01	-1.351834e+01
5.792705e+01	-1.356582e+01
5.826164e+01	-1.361411e+01
5.859815e+01	-1.366256e+01
5.893662e+01	-1.371010e+01
5.927703e+01	-1.375787e+01
5.961941e+01	-1.380562e+01
5.996377e+01	-1.385331e+01
6.031012e+01	-1.390166e+01
6.065847e+01	-1.394957e+01
6.100883e+01	-1.399732e+01
6.136121e+01	-1.404579e+01
6.171563e+01	-1.409399e+01
6.207210e+01	-1.414195e+01
6.243063e+01	-1.418968e+01
6.279122e+01	-1.423707e+01
6.315390e+01	-1.428597e+01
6.351868e+01	-1.433429e+01
6.388556e+01	-1.438213e+01
6.425456e+01	-1.443052e+01
6.462569e+01	-1.447888e+01
6.499897e+01	-1.452723e+01
6.537440e+01	-1.457510e+01
6.575200e+01	-1.462377e+01
6.613178e+01	-1.467156e+01
6.651375e+01	-1.471943e+01
6.689793e+01	-1.476935e+01
6.728433e+01	-1.481705e+01
6.767297e+01	-1.486513e+01
6.806384e+01	-1.491391e+01
6.845698e+01	-1.496241e+01
6.885238e+01	-1.501027e+01
6.925007e+01	-1.505994e+01
6.965005e+01	-1.510771e+01
7.005235e+01	-1.515530e+01
7.045697e+01	-1.520477e+01
7.086393e+01	-1.525216e+01
7.127323e+01	-1.530239e+01
7.168490e+01	-1.535113e+01
7.209895e+01	-1.539905e+01
7.251539e+01	-1.544706e+01
7.293424e+01	-1.549565e+01
7.335551e+01	-1.554439e+01
7.377920e+01	-1.559324e+01
7.420535e+01	-1.564216e+01
7.463396e+01	-1.569075e+01
7.506504e+01	-1.573883e+01
7.549861e+01	-1.578735e+01
7.593469e+01	-1.583669e+01
7.637328e+01	-1.588548e+01
7.681441e+01	-1.593590e+01
7.725809e+01	-1.598275e+01
7.770433e+01	-1.603220e+01
7.815315e+01	-1.608124e+01
7.860456e+01	-1.612880e+01
7.905857e+01	-1.617793e+01
7.951521e+01	-1.622745e+01
7.997449e+01	-1.627562e+01
8.043642e+01	-1.632488e+01
8.090102e+01	-1.637411e+01
8.136830e+01	-1.642212e+01
8.183828e+01	-1.647138e+01
8.231097e+01	-1.652129e+01
8.278640e+01	-1.656982e+01
8.326457e+01	-1.661844e+01
8.374550e+01	-1.666764e+01
8.422921e+01	-1.671537e+01
8.471572e+01	-1.676608e+01
8.520503e+01	-1.681472e+01
8.569717e+01	-1.686378e+01
8.619215e+01	-1.691199e+01
8.669000e+01	-1.696096e+01
8.719071e+01	-1.701047e+01
8.769432e+01	-1.705919e+01
8.820084e+01	-1.710775e+01
8.871029e+01	-1.715828e+01
8.922267e+01	-1.720665e+01
8.973802e+01	-1.725515e+01
9.025634e+01	-1.730459e+01
9.077766e+01	-1.735461e+01
9.130199e+01	-1.740095e+01
9.182935e+01	-1.745195e+01
9.235975e+01	-1.750103e+01
9.289321e+01	-1.755025e+01
9.342976e+01	-1.759971e+01
9.396941e+01	-1.764883e+01
9.451217e+01	-1.769759e+01
9.505807e+01	-1.774719e+01
9.560712e+01	-1.779636e+01
9.615934e+01	-1.784491e+01
9.671476e+01	-1.789373e+01
9.727338e+01	-1.794460e+01
9.783522e+01	-1.799247e+01
9.840032e+01	-1.804312e+01
9.896867e+01	-1.809113e+01
9.954031e+01	-1.813975e+01
1.001153e+02	-1.818970e+01
1.006935e+02	-1.823954e+01
1.012751e+02	-1.828863e+01
1.018601e+02	-1.833876e+01
1.024484e+02	-1.838630e+01
1.030402e+02	-1.843763e+01
1.036353e+02	-1.848528e+01
1.042339e+02	-1.853430e+01
1.048360e+02	-1.858411e+01
1.054415e+02	-1.863402e+01
1.060505e+02	-1.868309e+01
1.066631e+02	-1.873342e+01
1.072791e+02	-1.878394e+01
1.078988e+02	-1.883003e+01
1.085220e+02	-1.888140e+01
1.091488e+02	-1.893025e+01
1.097793e+02	-1.897895e+01
1.104133e+02	-1.902864e+01
1.110511e+02	-1.908064e+01
1.116925e+02	-1.912791e+01
1.123376e+02	-1.917769e+01
1.129865e+02	-1.922605e+01
1.136391e+02	-1.927474e+01
1.142955e+02	-1.932586e+01
1.149556e+02	-1.937477e+01
1.156196e+02	-1.942451e+01
1.162874e+02	-1.947404e+01
1.169591e+02	-1.952427e+01
1.176347e+02	-1.957407e+01
1.183141e+02	-1.962296e+01
1.189975e+02	-1.967138e+01
1.196848e+02	-1.972121e+01
1.203761e+02	-1.977059e+01
1.210714e+02	-1.982041e+01
1.217707e+02	-1.987122e+01
1.224740e+02	-1.991914e+01
1.231814e+02	-1.997014e+01
1.238929e+02	-2.001690e+01
1.246085e+02	-2.006855e+01
1.253283e+02	-2.011804e+01
1.260522e+02	-2.016793e+01
1.267802e+02	-2.021624e+01
1.275125e+02	-2.026603e+01
1.282490e+02	-2.031679e+01
1.289898e+02	-2.036607e+01
1.297348e+02	-2.041589e+01
1.304842e+02	-2.046286e+01
1.312378e+02	-2.051338e+01
1.319959e+02	-2.056433e+01
1.327583e+02	-2.061321e+01
1.335251e+02	-2.066247e+01
1.342963e+02	-2.071308e+01
1.350720e+02	-2.076307e+01
1.358522e+02	-2.081165e+01
1.366368e+02	-2.086062e+01
1.374260e+02	-2.091026e+01
1.382198e+02	-2.096271e+01
1.390182e+02	-2.101027e+01
1.398211e+02	-2.106030e+01
1.406287e+02	-2.110894e+01
1.414410e+02	-2.116026e+01
1.422579e+02	-2.120848e+01
1.430796e+02	-2.125874e+01
1.439060e+02	-2.130782e+01
1.447372e+02	-2.135763e+01
1.455732e+02	-2.140755e+01
1.464141e+02	-2.145644e+01
1.472597e+02	-2.150642e+01
1.481103e+02	-2.155456e+01
1.489658e+02	-2.160650e+01
1.498262e+02	-2.165701e+01
1.506916e+02	-2.170457e+01
1.515620e+02	-2.175649e+01
1.524374e+02	-2.180569e+01
1.533179e+02	-2.185367e+01
1.542034e+02	-2.190458e+01
1.550941e+02	-2.195375e+01
1.559899e+02	-2.200381e+01
1.568909e+02	-2.205269e+01
1.577971e+02	-2.210315e+01
1.587085e+02	-2.215259e+01
1.596252e+02	-2.220209e+01
1.605472e+02	-2.225465e+01
1.614745e+02	-2.230246e+01
1.624072e+02	-2.235312e+01
1.633453e+02	-2.240344e+01
1.642887e+02	-2.245101e+01
1.652377e+02	-2.250165e+01
1.661921e+02	-2.255270e+01
1.671520e+02	-2.259930e+01
1.681175e+02	-2.265012e+01
1.690885e+02	-2.270132e+01
1.700651e+02	-2.275289e+01
1.710474e+02	-2.280032e+01
1.720354e+02	-2.285045e+01
1.730291e+02	-2.290022e+01
1.740285e+02	-2.294780e+01
1.750337e+02	-2.299894e+01
1.760446e+02	-2.304930e+01
1.770615e+02	-2.309911e+01
1.780842e+02	-2.314905e+01
1.791128e+02	-2.319827e+01
1.801473e+02	-2.324953e+01
1.811878e+02	-2.329706e+01
1.822344e+02	-2.334668e+01
1.832870e+02	-2.339597e+01
1.843456e+02	-2.344917e+01
1.854104e+02	-2.349825e+01
1.864813e+02	-2.354814e+01
1.875584e+02	-2.359906e+01
1.886418e+02	-2.364883e+01
1.897313e+02	-2.369851e+01
1.908272e+02	-2.374544e+01
1.919294e+02	-2.379762e+01
1.930380e+02	-2.384671e+01
1.941530e+02	-2.389630e+01
1.952744e+02	-2.394457e+01
1.964023e+02	-2.399757e+01
1.975367e+02	-2.404550e+01
1.986777e+02	-2.409653e+01
1.998252e+02	-2.414480e+01
2.009794e+02	-2.419498e+01
2.021403e+02	-2.424354e+01
2.033078e+02	-2.429491e+01
2.044821e+02	-2.434267e+01
2.056632e+02	-2.439601e+01
2.068511e+02	-2.444492e+01
2.080459e+02	-2.449285e+01
2.092475e+02	-2.454340e+01
2.104561e+02	-2.459289e+01
2.116717e+02	-2.464603e+01
2.128943e+02	-2.469279e+01
2.141240e+02	-2.474331e+01
2.153608e+02	-2.479455e+01
2.166047e+02	-2.484365e+01
2.178558e+02	-2.489807e+01
2.191141e+02	-2.494189e+01
2.203797e+02	-2.499438e+01
2.216526e+02	-2.504223e+01
2.229329e+02	-2.509290e+01
2.242205e+02	-2.514009e+01
2.255156e+02	-2.519428e+01
2.268182e+02	-2.524058e+01
2.281283e+02	-2.529433e+01
2.294459e+02	-2.534219e+01
2.307712e+02	-2.539460e+01
2.321041e+02	-2.544394e+01
2.334447e+02	-2.549032e+01
2.347931e+02	-2.554100e+01
2.361493e+02	-2.559086e+01
2.375133e+02	-2.564000e+01
2.388851e+02	-2.569235e+01
2.402649e+02	-2.574279e+01
2.416527e+02	-2.579332e+01
2.430484e+02	-2.584251e+01
2.444523e+02	-2.589318e+01
2.458642e+02	-2.594313e+01
2.472843e+02	-2.599581e+01
2.487126e+02	-2.604290e+01
2.501492e+02	-2.609236e+01
2.515940e+02	-2.614441e+01
2.530472e+02	-2.619190e+01
2.545088e+02	-2.624128e+01
2.559789e+02	-2.629615e+01
2.574574e+02	-2.633890e+01
2.589444e+02	-2.639157e+01
2.604401e+02	-2.643834e+01
2.619444e+02	-2.649290e+01
2.634574e+02	-2.654147e+01
2.649791e+02	-2.659242e+01
2.665096e+02	-2.664043e+01
2.680489e+02	-2.669034e+01
2.695972e+02	-2.674274e+01
2.711544e+02	-2.678982e+01
2.727205e+02	-2.684277e+01
2.742958e+02	-2.689309e+01
2.758801e+02	-2.694154e+01
2.774736e+02	-2.699020e+01
2.790762e+02	-2.704142e+01
2.806882e+02	-2.709047e+01
2.823094e+02	-2.714309e+01
2.839400e+02	-2.719163e+01
2.855800e+02	-2.723940e+01
2.872295e+02	-2.729077e+01
2.888886e+02	-2.734166e+01
2.905572e+02	-2.739711e+01
2.922354e+02	-2.743999e+01
2.939234e+02	-2.749001e+01
2.956211e+02	-2.754248e+01
2.973286e+02	-2.758808e+01
2.990459e+02	-2.764122e+01
3.007732e+02	-2.769482e+01
3.025104e+02	-2.773967e+01
3.042577e+02	-2.779286e+01
3.060151e+02	-2.784144e+01
3.077826e+02	-2.789112e+01
3.095604e+02	-2.794223e+01
3.113484e+02	-2.799301e+01
3.131467e+02	-2.804207e+01
3.149554e+02	-2.809412e+01
3.167746e+02	-2.813786e+01
3.186043e+02	-2.818977e+01
3.204445e+02	-2.824254e+01
3.222954e+02	-2.828994e+01
3.241570e+02	-2.834472e+01
3.260293e+02	-2.839019e+01
3.279124e+02	-2.844445e+01
3.298064e+02	-2.849281e+01
3.317114e+02	-2.854217e+01
3.336273e+02	-2.859015e+01
3.355544e+02	-2.864032e+01
3.374925e+02	-2.869569e+01
3.394418e+02	-2.874158e+01
3.414024e+02	-2.879323e+01
3.433744e+02	-2.884340e+01
3.453577e+02	-2.889472e+01
3.473525e+02	-2.894375e+01
3.493588e+02	-2.898950e+01
3.513766e+02	-2.904316e+01
3.534062e+02	-2.909113e+01
3.554474e+02	-2.914165e+01
3.575005e+02	-2.919269e+01
3.595654e+02	-2.924501e+01
3.616422e+02	-2.929507e+01
3.637311e+02	-2.934548e+01
3.658320e+02	-2.939812e+01
3.679450e+02	-2.944580e+01
3.700702e+02	-2.948755e+01
3.722077e+02	-2.954582e+01
3.743576e+02	-2.959195e+01
3.765199e+02	-2.964238e+01
3.786946e+02	-2.969908e+01
3.808820e+02	-2.974630e+01
3.830819e+02	-2.979880e+01
3.852946e+02	-2.984670e+01
3.875200e+02	-2.989115e+01
3.897583e+02	-2.994442e+01
3.920096e+02	-2.999336e+01
3.942738e+02	-3.004577e+01
3.965511e+02	-3.009642e+01
3.988416e+02	-3.014469e+01
4.011452e+02	-3.019331e+01
4.034622e+02	-3.024782e+01
4.057926e+02	-3.029508e+01
4.081365e+02	-3.034136e+01
4.104938e+02	-3.039300e+01
4.128648e+02	-3.044183e+01
4.152495e+02	-3.049961e+01
4.176480e+02	-3.054468e+01
4.200603e+02	-3.059490e+01
4.224866e+02	-3.064750e+01
4.249268e+02	-3.069514e+01
4.273812e+02	-3.073772e+01
4.298497e+02	-3.079912e+01
4.323325e+02	-3.084539e+01
4.348297e+02	-3.090141e+01
4.373412e+02	-3.094533e+01
4.398673e+02	-3.099414e+01
4.424079e+02	-3.104446e+01
4.449633e+02	-3.109284e+01
4.475334e+02	-3.114498e+01
4.501183e+02	-3.119224e+01
4.527182e+02	-3.124326e+01
4.553330e+02	-3.129910e+01
4.579630e+02	-3.134729e+01
4.606082e+02	-3.140254e+01
4.632687e+02	-3.145035e+01
4.659445e+02	-3.150055e+01
4.686358e+02	-3.154246e+01
4.713426e+02	-3.159871e+01
4.740650e+02	-3.164807e+01
4.768032e+02	-3.169391e+01
4.795572e+02	-3.174464e+01
4.823271e+02	-3.180014e+01
4.851130e+02	-3.185303e+01
4.879150e+02	-3.189804e+01
4.907332e+02	-3.195317e+01
4.935676e+02	-3.199484e+01
4.964185e+02	-3.205626e+01
4.992858e+02	-3.210025e+01
5.021696e+02	-3.215171e+01
5.050701e+02	-3.220125e+01
5.079874e+02	-3.224877e+01
5.109215e+02	-3.230360e+01
5.138726e+02	-3.234517e+01
5.168407e+02	-3.240305e+01
5.198259e+02	-3.244615e+01
5.228284e+02	-3.250256e+01
5.258482e+02	-3.255159e+01
5.288855e+02	-3.260505e+01
5.319403e+02	-3.265149e+01
5.350128e+02	-3.270715e+01
5.381030e+02	-3.275393e+01
5.412111e+02	-3.280853e+01
5.443371e+02	-3.284735e+01
5.474812e+02	-3.290392e+01
5.506434e+02	-3.295528e+01
5.538239e+02	-3.300174e+01
5.570228e+02	-3.305513e+01
5.602401e+02	-3.310650e+01
5.634760e+02	-3.315258e+01
5.667306e+02	-3.320444e+01
5.700040e+02	-3.325635e+01
5.732964e+02	-3.330879e+01
5.766077e+02	-3.336479e+01
5.799382e+02	-3.341226e+01
5.832879e+02	-3.345764e+01
5.866569e+02	-3.351770e+01
5.900454e+02	-3.354875e+01
5.934535e+02	-3.361634e+01
5.968813e+02	-3.365466e+01
6.003288e+02	-3.370805e+01
6.037963e+02	-3.376430e+01
6.072838e+02	-3.381159e+01
6.107914e+02	-3.386450e+01
6.143194e+02	-3.390346e+01
6.178676e+02	-3.395675e+01
6.214364e+02	-3.401505e+01
6.250258e+02	-3.406365e+01
6.286359e+02	-3.411311e+01
6.322669e+02	-3.415976e+01
6.359189e+02	-3.421077e+01
6.395919e+02	-3.425483e+01
6.432862e+02	-3.431041e+01
6.470017e+02	-3.436459e+01
6.507388e+02	-3.441911e+01
6.544974e+02	-3.446546e+01
6.582778e+02	-3.452158e+01
6.620800e+02	-3.456105e+01
6.659041e+02	-3.461322e+01
6.697504e+02	-3.466654e+01
6.736188e+02	-3.471533e+01
6.775096e+02	-3.476489e+01
6.814229e+02	-3.481259e+01
6.853587e+02	-3.486776e+01
6.893173e+02	-3.491873e+01
6.932988e+02	-3.496878e+01
6.973033e+02	-3.502939e+01
7.013309e+02	-3.507620e+01
