Frequency(Hz)	Magnitude(dB)
1.000000e+01	-2.341030e+00
1.005776e+01	-2.361786e+00
1.011585e+01	-2.382945e+00
1.017428e+01	-2.403897e+00
1.023305e+01	-2.425372e+00
1.029215e+01	-2.446947e+00
1.035160e+01	-2.468580e+00
1.041139e+01	-2.490328e+00
1.047153e+01	-2.512143e+00
1.053201e+01	-2.534386e+00
1.059284e+01	-2.556448e+00
1.065403e+01	-2.578748e+00
1.071556e+01	-2.601392e+00
1.077746e+01	-2.623963e+00
1.083971e+01	-2.646586e+00
1.090232e+01	-2.669367e+00
1.096529e+01	-2.692541e+00
1.102862e+01	-2.715868e+00
1.109232e+01	-2.739082e+00
1.115639e+01	-2.762640e+00
1.122083e+01	-2.786348e+00
1.128564e+01	-2.809797e+00
1.135083e+01	-2.833807e+00
1.141639e+01	-2.857683e+00
1.148233e+01	-2.881865e+00
1.154865e+01	-2.906380e+00
1.161536e+01	-2.930814e+00
1.168245e+01	-2.955261e+00
1.174992e+01	-2.980200e+00
1.181779e+01	-3.004905e+00
1.188605e+01	-3.030056e+00
1.195470e+01	-3.055374e+00
1.202375e+01	-3.080540e+00
1.209320e+01	-3.106311e+00
1.216305e+01	-3.132012e+00
1.223330e+01	-3.157768e+00
1.230396e+01	-3.183523e+00
1.237503e+01	-3.209492e+00
1.244651e+01	-3.235966e+00
1.251840e+01	-3.262165e+00
1.259070e+01	-3.288553e+00
1.266343e+01	-3.315465e+00
1.273657e+01	-3.342058e+00
1.281014e+01	-3.368919e+00
1.288413e+01	-3.396154e+00
1.295855e+01	-3.423132e+00
1.303339e+01	-3.450736e+00
1.310867e+01	-3.478032e+00
1.318439e+01	-3.506043e+00
1.326054e+01	-3.533687e+00
1.333713e+01	-3.561570e+00
1.341417e+01	-3.589598e+00
1.349165e+01	-3.617832e+00
1.356958e+01	-3.646340e+00
1.364795e+01	-3.674454e+00
1.372678e+01	-3.703265e+00
1.380607e+01	-3.731954e+00
1.388581e+01	-3.760727e+00
1.396602e+01	-3.789919e+00
1.404668e+01	-3.819211e+00
1.412782e+01	-3.848451e+00
1.420942e+01	-3.877911e+00
1.429149e+01	-3.907443e+00
1.437404e+01	-3.937513e+00
1.445706e+01	-3.967113e+00
1.454057e+01	-3.997324e+00
1.462455e+01	-4.027664e+00
1.470902e+01	-4.057497e+00
1.479398e+01	-4.088285e+00
1.487943e+01	-4.118679e+00
1.496537e+01	-4.149292e+00
1.505181e+01	-4.180415e+00
1.513875e+01	-4.211020e+00
1.522619e+01	-4.242178e+00
1.531414e+01	-4.273659e+00
1.540259e+01	-4.305185e+00
1.549156e+01	-4.336673e+00
1.558103e+01	-4.368134e+00
1.567103e+01	-4.399823e+00
1.576155e+01	-4.431913e+00
1.585258e+01	-4.464029e+00
1.594415e+01	-4.496183e+00
1.603624e+01	-4.528677e+00
1.612886e+01	-4.561146e+00
1.622202e+01	-4.593624e+00
1.631572e+01	-4.626333e+00
1.640996e+01	-4.659298e+00
1.650474e+01	-4.692078e+00
1.660008e+01	-4.725256e+00
1.669596e+01	-4.758668e+00
1.679239e+01	-4.791995e+00
1.688938e+01	-4.825500e+00
1.698694e+01	-4.859026e+00
1.708505e+01	-4.892773e+00
1.718373e+01	-4.926618e+00
1.728299e+01	-4.960776e+00
1.738281e+01	-4.994795e+00
1.748322e+01	-5.029119e+00
1.758420e+01	-5.063354e+00
1.768576e+01	-5.097883e+00
1.778792e+01	-5.132547e+00
1.789066e+01	-5.167209e+00
1.799399e+01	-5.202057e+00
1.809793e+01	-5.237141e+00
1.820246e+01	-5.272085e+00
1.830760e+01	-5.307726e+00
1.841334e+01	-5.342820e+00
1.851969e+01	-5.378091e+00
1.862666e+01	-5.413588e+00
1.873425e+01	-5.449456e+00
1.884246e+01	-5.485417e+00
1.895129e+01	-5.521437e+00
1.906075e+01	-5.557326e+00
1.917085e+01	-5.593214e+00
1.928158e+01	-5.629463e+00
1.939295e+01	-5.666059e+00
1.950496e+01	-5.702734e+00
1.961762e+01	-5.738943e+00
1.973093e+01	-5.775955e+00
1.984490e+01	-5.812776e+00
1.995952e+01	-5.849960e+00
2.007480e+01	-5.886592e+00
2.019076e+01	-5.924237e+00
2.030738e+01	-5.961358e+00
2.042467e+01	-5.998866e+00
2.054264e+01	-6.036480e+00
2.066130e+01	-6.073738e+00
2.078064e+01	-6.111437e+00
2.090066e+01	-6.149333e+00
2.102139e+01	-6.187407e+00
2.114280e+01	-6.225404e+00
2.126492e+01	-6.263692e+00
2.138775e+01	-6.302025e+00
2.151128e+01	-6.340283e+00
2.163553e+01	-6.378457e+00
2.176050e+01	-6.416995e+00
2.188619e+01	-6.455549e+00
2.201260e+01	-6.494839e+00
2.213974e+01	-6.533669e+00
2.226762e+01	-6.572733e+00
2.239624e+01	-6.611621e+00
2.252560e+01	-6.650630e+00
2.265571e+01	-6.689855e+00
2.278656e+01	-6.729521e+00
2.291818e+01	-6.768631e+00
2.305055e+01	-6.808167e+00
2.318369e+01	-6.847797e+00
2.331760e+01	-6.887720e+00
2.345228e+01	-6.927314e+00
2.358774e+01	-6.967281e+00
2.372398e+01	-7.007392e+00
2.386101e+01	-7.047428e+00
2.399883e+01	-7.087921e+00
2.413745e+01	-7.127904e+00
2.427686e+01	-7.168506e+00
2.441709e+01	-7.208883e+00
2.455812e+01	-7.249233e+00
2.469997e+01	-7.290180e+00
2.484263e+01	-7.330996e+00
2.498612e+01	-7.372085e+00
2.513044e+01	-7.412579e+00
2.527559e+01	-7.453587e+00
2.542158e+01	-7.494342e+00
2.556842e+01	-7.535646e+00
2.571610e+01	-7.576843e+00
2.586463e+01	-7.618386e+00
2.601403e+01	-7.659989e+00
2.616428e+01	-7.701628e+00
2.631541e+01	-7.742832e+00
2.646740e+01	-7.784259e+00
2.662028e+01	-7.826157e+00
2.677404e+01	-7.868192e+00
2.692868e+01	-7.909826e+00
2.708422e+01	-7.951813e+00
2.724066e+01	-7.994247e+00
2.739800e+01	-8.036134e+00
2.755625e+01	-8.078588e+00
2.771541e+01	-8.120693e+00
2.787550e+01	-8.162638e+00
2.803650e+01	-8.205321e+00
2.819844e+01	-8.248326e+00
2.836131e+01	-8.290249e+00
2.852513e+01	-8.333442e+00
2.868989e+01	-8.375616e+00
2.885560e+01	-8.418213e+00
2.902227e+01	-8.461287e+00
2.918990e+01	-8.504845e+00
2.935850e+01	-8.546883e+00
2.952807e+01	-8.590267e+00
2.969863e+01	-8.633663e+00
2.987016e+01	-8.676635e+00
3.004269e+01	-8.720082e+00
3.021622e+01	-8.763094e+00
3.039075e+01	-8.806532e+00
3.056628e+01	-8.850209e+00
3.074283e+01	-8.893568e+00
3.092040e+01	-8.937417e+00
3.109900e+01	-8.981240e+00
3.127862e+01	-9.024942e+00
3.145929e+01	-9.068838e+00
3.164099e+01	-9.112558e+00
3.182375e+01	-9.156373e+00
3.200756e+01	-9.200262e+00
3.219244e+01	-9.244459e+00
3.237838e+01	-9.288357e+00
3.256540e+01	-9.332871e+00
3.275349e+01	-9.376961e+00
3.294268e+01	-9.421394e+00
3.313295e+01	-9.465650e+00
3.332433e+01	-9.509849e+00
3.351681e+01	-9.554139e+00
3.371040e+01	-9.599008e+00
3.390511e+01	-9.643210e+00
3.410094e+01	-9.688330e+00
3.429791e+01	-9.732937e+00
3.449601e+01	-9.777668e+00
3.469526e+01	-9.822194e+00
3.489566e+01	-9.867109e+00
3.509721e+01	-9.911646e+00
3.529993e+01	-9.957114e+00
3.550382e+01	-1.000195e+01
3.570889e+01	-1.004751e+01
3.591515e+01	-1.009206e+01
3.612259e+01	-1.013695e+01
3.633123e+01	-1.018258e+01
3.654108e+01	-1.022772e+01
3.675214e+01	-1.027307e+01
3.696442e+01	-1.031864e+01
3.717792e+01	-1.036431e+01
3.739266e+01	-1.040902e+01
3.760864e+01	-1.045495e+01
3.782587e+01	-1.050009e+01
3.804435e+01	-1.054524e+01
3.826409e+01	-1.059182e+01
3.848510e+01	-1.063718e+01
3.870739e+01	-1.068280e+01
3.893096e+01	-1.072800e+01
3.915583e+01	-1.077425e+01
3.938199e+01	-1.082009e+01
3.960946e+01	-1.086617e+01
3.983824e+01	-1.091198e+01
4.006834e+01	-1.095828e+01
4.029978e+01	-1.100434e+01
4.053255e+01	-1.104999e+01
4.076666e+01	-1.109665e+01
4.100213e+01	-1.114291e+01
4.123896e+01	-1.118838e+01
4.147715e+01	-1.123509e+01
4.171672e+01	-1.128095e+01
4.195767e+01	-1.132766e+01
4.220002e+01	-1.137460e+01
4.244377e+01	-1.142063e+01
4.268892e+01	-1.146649e+01
4.293549e+01	-1.151348e+01
4.318348e+01	-1.155977e+01
4.343291e+01	-1.160663e+01
4.368377e+01	-1.165271e+01
4.393609e+01	-1.169928e+01
4.418986e+01	-1.174638e+01
4.444510e+01	-1.179355e+01
4.470182e+01	-1.183953e+01
4.496001e+01	-1.188641e+01
4.521970e+01	-1.193363e+01
4.548089e+01	-1.198016e+01
4.574358e+01	-1.202740e+01
4.600779e+01	-1.207453e+01
4.627353e+01	-1.212060e+01
4.654081e+01	-1.216766e+01
4.680963e+01	-1.221529e+01
4.708000e+01	-1.226230e+01
4.735193e+01	-1.230896e+01
4.762543e+01	-1.235647e+01
4.790051e+01	-1.240333e+01
4.817719e+01	-1.245040e+01
4.845545e+01	-1.249805e+01
4.873533e+01	-1.254453e+01
4.901682e+01	-1.259233e+01
4.929994e+01	-1.263872e+01
4.958470e+01	-1.268777e+01
4.987110e+01	-1.273360e+01
5.015915e+01	-1.278132e+01
5.044887e+01	-1.282854e+01
5.074026e+01	-1.287651e+01
5.103333e+01	-1.292394e+01
5.132810e+01	-1.297177e+01
5.162457e+01	-1.301801e+01
5.192275e+01	-1.306665e+01
5.222265e+01	-1.311410e+01
5.252429e+01	-1.316090e+01
5.282767e+01	-1.320963e+01
5.313280e+01	-1.325600e+01
5.343969e+01	-1.330477e+01
5.374836e+01	-1.335150e+01
5.405880e+01	-1.340024e+01
5.437105e+01	-1.344699e+01
5.468509e+01	-1.349464e+01
5.500095e+01	-1.354345e+01
5.531863e+01	-1.359091e+01
5.563815e+01	-1.363890e+01
5.595951e+01	-1.368633e+01
5.628273e+01	-1.373408e+01
5.660782e+01	-1.378211e+01
5.693479e+01	-1.383107e+01
5.726364e+01	-1.387913e+01
5.759439e+01	-1.392684e+01
5.792705e+01	-1.397447e+01
5.826164e+01	-1.402234e+01
5.859815e+01	-1.407042e+01
5.893662e+01	-1.411723e+01
5.927703e+01	-1.416648e+01
5.961941e+01	-1.421448e+01
5.996377e+01	-1.426277e+01
6.031012e+01	-1.431114e+01
6.065847e+01	-1.435900e+01
6.100883e+01	-1.440753e+01
6.136121e+01	-1.445627e+01
6.171563e+01	-1.450381e+01
6.207210e+01	-1.455194e+01
6.243063e+01	-1.460059e+01
6.279122e+01	-1.464925e+01
6.315390e+01	-1.469755e+01
6.351868e+01	-1.474542e+01
6.388556e+01	-1.479374e+01
6.425456e+01	-1.484282e+01
6.462569e+01	-1.489110e+01
6.499897e+01	-1.493837e+01
6.537440e+01	-1.498800e+01
6.575200e+01	-1.503610e+01
6.613178e+01	-1.508425e+01
6.651375e+01	-1.513374e+01
6.689793e+01	-1.518243e+01
6.728433e+01	-1.523062e+01
6.767297e+01	-1.527851e+01
6.806384e+01	-1.532686e+01
6.845698e+01	-1.537628e+01
6.885238e+01	-1.542404e+01
6.925007e+01	-1.547325e+01
6.965005e+01	-1.552044e+01
7.005235e+01	-1.557054e+01
7.045697e+01	-1.561774e+01
7.086393e+01	-1.566700e+01
7.127323e+01	-1.571627e+01
7.168490e+01	-1.576467e+01
7.209895e+01	-1.581225e+01
7.251539e+01	-1.586302e+01
7.293424e+01	-1.590990e+01
7.335551e+01	-1.595882e+01
7.377920e+01	-1.600782e+01
7.420535e+01	-1.605761e+01
7.463396e+01	-1.610553e+01
7.506504e+01	-1.615566e+01
7.549861e+01	-1.620309e+01
7.593469e+01	-1.625198e+01
7.637328e+01	-1.629979e+01
7.681441e+01	-1.635074e+01
7.725809e+01	-1.639874e+01
7.770433e+01	-1.644836e+01
7.815315e+01	-1.649686e+01
7.860456e+01	-1.654498e+01
7.905857e+01	-1.659480e+01
7.951521e+01	-1.664271e+01
7.997449e+01	-1.669357e+01
8.043642e+01	-1.674021e+01
8.090102e+01	-1.679154e+01
8.136830e+01	-1.683956e+01
8.183828e+01	-1.688815e+01
8.231097e+01	-1.693740e+01
8.278640e+01	-1.698624e+01
8.326457e+01	-1.703460e+01
8.374550e+01	-1.708353e+01
8.422921e+01	-1.713290e+01
8.471572e+01	-1.718278e+01
8.520503e+01	-1.723172e+01
8.569717e+01	-1.728104e+01
8.619215e+01	-1.732977e+01
8.669000e+01	-1.737911e+01
8.719071e+01	-1.742809e+01
8.769432e+01	-1.747626e+01
8.820084e+01	-1.752619e+01
8.871029e+01	-1.757397e+01
8.922267e+01	-1.762491e+01
8.973802e+01	-1.767239e+01
9.025634e+01	-1.772332e+01
9.077766e+01	-1.777097e+01
9.130199e+01	-1.782148e+01
9.182935e+01	-1.787043e+01
9.235975e+01	-1.792031e+01
9.289321e+01	-1.796995e+01
9.342976e+01	-1.801909e+01
9.396941e+01	-1.806774e+01
9.451217e+01	-1.811776e+01
9.505807e+01	-1.816500e+01
9.560712e+01	-1.821607e+01
9.615934e+01	-1.826534e+01
9.671476e+01	-1.831418e+01
9.727338e+01	-1.836232e+01
9.783522e+01	-1.841202e+01
9.840032e+01	-1.846352e+01
9.896867e+01	-1.851119e+01
9.954031e+01	-1.856043e+01
1.001153e+02	-1.860959e+01
1.006935e+02	-1.865906e+01
1.012751e+02	-1.870913e+01
1.018601e+02	-1.875915e+01
1.024484e+02	-1.880736e+01
1.030402e+02	-1.885682e+01
1.036353e+02	-1.890561e+01
1.042339e+02	-1.895544e+01
1.048360e+02	-1.900410e+01
1.054415e+02	-1.905377e+01
1.060505e+02	-1.910335e+01
1.066631e+02	-1.915311e+01
1.072791e+02	-1.920210e+01
1.078988e+02	-1.925126e+01
1.085220e+02	-1.930180e+01
1.091488e+02	-1.935050e+01
1.097793e+02	-1.940082e+01
1.104133e+02	-1.944917e+01
1.110511e+02	-1.949712e+01
1.116925e+02	-1.954657e+01
1.123376e+02	-1.959825e+01
1.129865e+02	-1.964836e+01
1.136391e+02	-1.969701e+01
1.142955e+02	-1.974586e+01
1.149556e+02	-1.979613e+01
1.156196e+02	-1.984521e+01
1.162874e+02	-1.989646e+01
1.169591e+02	-1.994374e+01
1.176347e+02	-1.999531e+01
1.183141e+02	-2.004342e+01
1.189975e+02	-2.009370e+01
1.196848e+02	-2.014174e+01
1.203761e+02	-2.019217e+01
1.210714e+02	-2.024094e+01
1.217707e+02	-2.029178e+01
1.224740e+02	-2.034120e+01
1.231814e+02	-2.039143e+01
1.238929e+02	-2.044085e+01
1.246085e+02	-2.049002e+01
1.253283e+02	-2.054126e+01
1.260522e+02	-2.058949e+01
1.267802e+02	-2.063867e+01
1.275125e+02	-2.068921e+01
1.282490e+02	-2.073836e+01
1.289898e+02	-2.078757e+01
1.297348e+02	-2.083544e+01
1.304842e+02	-2.088684e+01
1.312378e+02	-2.093514e+01
1.319959e+02	-2.098533e+01
1.327583e+02	-2.103443e+01
1.335251e+02	-2.108432e+01
1.342963e+02	-2.113547e+01
1.350720e+02	-2.118636e+01
1.358522e+02	-2.123471e+01
1.366368e+02	-2.128410e+01
1.374260e+02	-2.133244e+01
1.382198e+02	-2.138258e+01
1.390182e+02	-2.143246e+01
1.398211e+02	-2.148296e+01
1.406287e+02	-2.153226e+01
1.414410e+02	-2.158220e+01
1.422579e+02	-2.163200e+01
1.430796e+02	-2.168212e+01
1.439060e+02	-2.173023e+01
1.447372e+02	-2.177986e+01
1.455732e+02	-2.183236e+01
1.464141e+02	-2.187936e+01
1.472597e+02	-2.192993e+01
1.481103e+02	-2.198025e+01
1.489658e+02	-2.202875e+01
1.498262e+02	-2.207964e+01
1.506916e+02	-2.212687e+01
1.515620e+02	-2.217808e+01
1.524374e+02	-2.222787e+01
1.533179e+02	-2.227846e+01
1.542034e+02	-2.232974e+01
1.550941e+02	-2.237853e+01
1.559899e+02	-2.242634e+01
1.568909e+02	-2.247808e+01
1.577971e+02	-2.252657e+01
1.587085e+02	-2.257558e+01
1.596252e+02	-2.262654e+01
1.605472e+02	-2.267515e+01
1.614745e+02	-2.272647e+01
1.624072e+02	-2.277522e+01
1.633453e+02	-2.282321e+01
1.642887e+02	-2.287621e+01
1.652377e+02	-2.292473e+01
1.661921e+02	-2.297368e+01
1.671520e+02	-2.302570e+01
1.681175e+02	-2.307394e+01
1.690885e+02	-2.312372e+01
1.700651e+02	-2.317478e+01
1.710474e+02	-2.322376e+01
1.720354e+02	-2.327229e+01
1.730291e+02	-2.332390e+01
1.740285e+02	-2.337237e+01
1.750337e+02	-2.342463e+01
1.760446e+02	-2.347256e+01
1.770615e+02	-2.352150e+01
1.780842e+02	-2.357261e+01
1.791128e+02	-2.362282e+01
1.801473e+02	-2.367102e+01
1.811878e+02	-2.372366e+01
1.822344e+02	-2.377342e+01
1.832870e+02	-2.381964e+01
1.843456e+02	-2.387227e+01
1.854104e+02	-2.392029e+01
1.864813e+02	-2.397187e+01
1.875584e+02	-2.402180e+01
1.886418e+02	-2.407267e+01
1.897313e+02	-2.411999e+01
1.908272e+02	-2.416808e+01
1.919294e+02	-2.422145e+01
1.930380e+02	-2.427201e+01
1.941530e+02	-2.431923e+01
1.952744e+02	-2.436967e+01
1.964023e+02	-2.442111e+01
1.975367e+02	-2.446916e+01
1.986777e+02	-2.451988e+01
1.998252e+02	-2.456815e+01
2.009794e+02	-2.461932e+01
2.021403e+02	-2.467089e+01
2.033078e+02	-2.471996e+01
2.044821e+02	-2.477030e+01
2.056632e+02	-2.481859e+01
2.068511e+02	-2.486931e+01
2.080459e+02	-2.491973e+01
2.092475e+02	-2.496987e+01
2.104561e+02	-2.501952e+01
2.116717e+02	-2.506810e+01
2.128943e+02	-2.511682e+01
2.141240e+02	-2.516782e+01
2.153608e+02	-2.521781e+01
2.166047e+02	-2.526666e+01
2.178558e+02	-2.531716e+01
2.191141e+02	-2.536883e+01
2.203797e+02	-2.541656e+01
2.216526e+02	-2.546713e+01
2.229329e+02	-2.551915e+01
2.242205e+02	-2.556664e+01
2.255156e+02	-2.561942e+01
2.268182e+02	-2.566826e+01
2.281283e+02	-2.571505e+01
2.294459e+02	-2.576609e+01
2.307712e+02	-2.581758e+01
2.321041e+02	-2.586939e+01
2.334447e+02	-2.591467e+01
2.347931e+02	-2.596717e+01
2.361493e+02	-2.601743e+01
2.375133e+02	-2.606615e+01
2.388851e+02	-2.612119e+01
2.402649e+02	-2.616905e+01
2.416527e+02	-2.621511e+01
2.430484e+02	-2.626549e+01
2.444523e+02	-2.631520e+01
2.458642e+02	-2.636500e+01
2.472843e+02	-2.641764e+01
2.487126e+02	-2.646554e+01
2.501492e+02	-2.651961e+01
2.515940e+02	-2.656406e+01
2.530472e+02	-2.661425e+01
2.545088e+02	-2.666967e+01
2.559789e+02	-2.671771e+01
2.574574e+02	-2.676628e+01
2.589444e+02	-2.681618e+01
2.604401e+02	-2.686386e+01
2.619444e+02	-2.691541e+01
2.634574e+02	-2.696606e+01
2.649791e+02	-2.701656e+01
2.665096e+02	-2.706748e+01
2.680489e+02	-2.711491e+01
2.695972e+02	-2.716638e+01
2.711544e+02	-2.721614e+01
2.727205e+02	-2.726480e+01
2.742958e+02	-2.731527e+01
2.758801e+02	-2.736715e+01
2.774736e+02	-2.741610e+01
2.790762e+02	-2.746428e+01
2.806882e+02	-2.751352e+01
2.823094e+02	-2.756796e+01
2.839400e+02	-2.761323e+01
2.855800e+02	-2.766883e+01
2.872295e+02	-2.771713e+01
2.888886e+02	-2.776772e+01
2.905572e+02	-2.781661e+01
2.922354e+02	-2.786533e+01
2.939234e+02	-2.791921e+01
2.956211e+02	-2.796206e+01
2.973286e+02	-2.801187e+01
2.990459e+02	-2.806537e+01
3.007732e+02	-2.811851e+01
3.025104e+02	-2.816488e+01
3.042577e+02	-2.821585e+01
3.060151e+02	-2.826439e+01
3.077826e+02	-2.831830e+01
3.095604e+02	-2.836648e+01
3.113484e+02	-2.841935e+01
3.131467e+02	-2.846749e+01
3.149554e+02	-2.851566e+01
3.167746e+02	-2.856594e+01
3.186043e+02	-2.861783e+01
3.204445e+02	-2.866560e+01
3.222954e+02	-2.871851e+01
3.241570e+02	-2.876369e+01
3.260293e+02	-2.881532e+01
3.279124e+02	-2.887038e+01
3.298064e+02	-2.891902e+01
3.317114e+02	-2.896831e+01
3.336273e+02	-2.902032e+01
3.355544e+02	-2.905962e+01
3.374925e+02	-2.911779e+01
3.394418e+02	-2.916570e+01
3.414024e+02	-2.921809e+01
3.433744e+02	-2.926659e+01
3.453577e+02	-2.931801e+01
3.473525e+02	-2.936754e+01
3.493588e+02	-2.941787e+01
3.513766e+02	-2.946782e+01
3.534062e+02	-2.952146e+01
3.554474e+02	-2.956548e+01
3.575005e+02	-2.961892e+01
3.595654e+02	-2.966419e+01
3.616422e+02	-2.971283e+01
3.637311e+02	-2.977120e+01
3.658320e+02	-2.981837e+01
3.679450e+02	-2.986174e+01
3.700702e+02	-2.991312e+01
3.722077e+02	-2.997065e+01
3.743576e+02	-3.001275e+01
3.765199e+02	-3.006641e+01
3.786946e+02	-3.011352e+01
3.808820e+02	-3.016720e+01
3.830819e+02	-3.021771e+01
3.852946e+02	-3.026849e+01
3.875200e+02	-3.032332e+01
3.897583e+02	-3.036948e+01
3.920096e+02	-3.042205e+01
3.942738e+02	-3.047211e+01
3.965511e+02	-3.051499e+01
3.988416e+02	-3.056557e+01
4.011452e+02	-3.061827e+01
4.034622e+02	-3.066924e+01
4.057926e+02	-3.072053e+01
4.081365e+02	-3.076648e+01
4.104938e+02	-3.081855e+01
4.128648e+02	-3.087079e+01
4.152495e+02	-3.092541e+01
4.176480e+02	-3.097761e+01
4.200603e+02	-3.101637e+01
4.224866e+02	-3.106921e+01
4.249268e+02	-3.111545e+01
4.273812e+02	-3.117222e+01
4.298497e+02	-3.121825e+01
4.323325e+02	-3.127200e+01
4.348297e+02	-3.132038e+01
4.373412e+02	-3.137393e+01
4.398673e+02	-3.142034e+01
4.424079e+02	-3.146962e+01
4.449633e+02	-3.151711e+01
4.475334e+02	-3.157397e+01
4.501183e+02	-3.161529e+01
4.527182e+02	-3.166203e+01
4.553330e+02	-3.172657e+01
4.579630e+02	-3.176710e+01
4.606082e+02	-3.182017e+01
4.632687e+02	-3.186937e+01
4.659445e+02	-3.192119e+01
4.686358e+02	-3.197103e+01
4.713426e+02	-3.202527e+01
4.740650e+02	-3.207225e+01
4.768032e+02	-3.212862e+01
4.795572e+02	-3.217159e+01
4.823271e+02	-3.221950e+01
4.851130e+02	-3.226954e+01
4.879150e+02	-3.231914e+01
4.907332e+02	-3.236798e+01
4.935676e+02	-3.242727e+01
4.964185e+02	-3.246947e+01
4.992858e+02	-3.252137e+01
5.021696e+02	-3.257313e+01
5.050701e+02	-3.262352e+01
5.079874e+02	-3.267014e+01
5.109215e+02	-3.271454e+01
5.138726e+02	-3.277272e+01
5.168407e+02	-3.282775e+01
5.198259e+02	-3.287429e+01
5.228284e+02	-3.292866e+01
5.258482e+02	-3.297839e+01
5.288855e+02	-3.302148e+01
5.319403e+02	-3.307213e+01
5.350128e+02	-3.313364e+01
5.381030e+02	-3.317758e+01
5.412111e+02	-3.322402e+01
5.443371e+02	-3.327251e+01
5.474812e+02	-3.332699e+01
5.506434e+02	-3.337325e+01
5.538239e+02	-3.342868e+01
5.570228e+02	-3.347232e+01
5.602401e+02	-3.353026e+01
5.634760e+02	-3.357502e+01
5.667306e+02	-3.363156e+01
5.700040e+02	-3.367565e+01
5.732964e+02	-3.372289e+01
5.766077e+02	-3.377945e+01
5.799382e+02	-3.382480e+01
5.832879e+02	-3.387883e+01
5.866569e+02	-3.392589e+01
5.900454e+02	-3.397580e+01
5.934535e+02	-3.402756e+01
5.968813e+02	-3.408864e+01
6.003288e+02	-3.412597e+01
6.037963e+02	-3.417460e+01
6.072838e+02	-3.423026e+01
6.107914e+02	-3.428373e+01
6.143194e+02	-3.433013e+01
6.178676e+02	-3.438157e+01
6.214364e+02	-3.443382e+01
6.250258e+02	-3.448401e+01
6.286359e+02	-3.453037e+01
6.322669e+02	-3.458714e+01
6.359189e+02	-3.462775e+01
6.395919e+02	-3.468948e+01
6.432862e+02	-3.473057e+01
6.470017e+02	-3.478998e+01
6.507388e+02	-3.482915e+01
6.544974e+02	-3.488556e+01
6.582778e+02	-3.492764e+01
6.620800e+02	-3.497867e+01
6.659041e+02	-3.504317e+01
6.697504e+02	-3.508308e+01
6.736188e+02	-3.513269e+01
6.775096e+02	-3.518546e+01
6.814229e+02	-3.523594e+01
6.853587e+02	-3.528785e+01
6.893173e+02	-3.533780e+01
6.932988e+02	-3.539437e+01
6.973033e+02	-3.543947e+01
7.013309e+02	-3.547864e+01
