Frequency(Hz)	Magnitude(dB)
1.000000e+01	-2.243911e+00
1.005776e+01	-2.264519e+00
1.011585e+01	-2.284754e+00
1.017428e+01	-2.305323e+00
1.023305e+01	-2.326003e+00
1.029215e+01	-2.346791e+00
1.035160e+01	-2.367756e+00
1.041139e+01	-2.388924e+00
1.047153e+01	-2.409911e+00
1.053201e+01	-2.431540e+00
1.059284e+01	-2.452703e+00
1.065403e+01	-2.474808e+00
1.071556e+01	-2.496679e+00
1.077746e+01	-2.518178e+00
1.083971e+01	-2.540466e+00
1.090232e+01	-2.562596e+00
1.096529e+01	-2.584813e+00
1.102862e+01	-2.607378e+00
1.109232e+01	-2.630185e+00
1.115639e+01	-2.652772e+00
1.122083e+01	-2.675771e+00
1.128564e+01	-2.699121e+00
1.135083e+01	-2.722270e+00
1.141639e+01	-2.745584e+00
1.148233e+01	-2.769146e+00
1.154865e+01	-2.792767e+00
1.161536e+01	-2.816640e+00
1.168245e+01	-2.840325e+00
1.174992e+01	-2.864592e+00
1.181779e+01	-2.888702e+00
1.188605e+01	-2.913185e+00
1.195470e+01	-2.937336e+00
1.202375e+01	-2.962344e+00
1.209320e+01	-2.986963e+00
1.216305e+01	-3.012029e+00
1.223330e+01	-3.037279e+00
1.230396e+01	-3.062607e+00
1.237503e+01	-3.087934e+00
1.244651e+01	-3.113274e+00
1.251840e+01	-3.138911e+00
1.259070e+01	-3.164766e+00
1.266343e+01	-3.190930e+00
1.273657e+01	-3.216909e+00
1.281014e+01	-3.243312e+00
1.288413e+01	-3.269617e+00
1.295855e+01	-3.296087e+00
1.303339e+01	-3.322645e+00
1.310867e+01	-3.349382e+00
1.318439e+01	-3.376716e+00
1.326054e+01	-3.403379e+00
1.333713e+01	-3.430978e+00
1.341417e+01	-3.458301e+00
1.349165e+01	-3.485754e+00
1.356958e+01	-3.513378e+00
1.364795e+01	-3.541463e+00
1.372678e+01	-3.569281e+00
1.380607e+01	-3.597419e+00
1.388581e+01	-3.625489e+00
1.396602e+01	-3.653987e+00
1.404668e+01	-3.682408e+00
1.412782e+01	-3.711249e+00
1.420942e+01	-3.740163e+00
1.429149e+01	-3.768963e+00
1.437404e+01	-3.798014e+00
1.445706e+01	-3.827246e+00
1.454057e+01	-3.856782e+00
1.462455e+01	-3.885946e+00
1.470902e+01	-3.915948e+00
1.479398e+01	-3.945755e+00
1.487943e+01	-3.975704e+00
1.496537e+01	-4.005527e+00
1.505181e+01	-4.035776e+00
1.513875e+01	-4.066017e+00
1.522619e+01	-4.096550e+00
1.531414e+01	-4.127157e+00
1.540259e+01	-4.158199e+00
1.549156e+01	-4.188939e+00
1.558103e+01	-4.219880e+00
1.567103e+01	-4.251104e+00
1.576155e+01	-4.282390e+00
1.585258e+01	-4.314054e+00
1.594415e+01	-4.345414e+00
1.603624e+01	-4.377030e+00
1.612886e+01	-4.408913e+00
1.622202e+01	-4.441001e+00
1.631572e+01	-4.473072e+00
1.640996e+01	-4.505229e+00
1.650474e+01	-4.537604e+00
1.660008e+01	-4.570246e+00
1.669596e+01	-4.602861e+00
1.679239e+01	-4.635685e+00
1.688938e+01	-4.668494e+00
1.698694e+01	-4.701378e+00
1.708505e+01	-4.734545e+00
1.718373e+01	-4.767939e+00
1.728299e+01	-4.801151e+00
1.738281e+01	-4.834670e+00
1.748322e+01	-4.868499e+00
1.758420e+01	-4.902215e+00
1.768576e+01	-4.935972e+00
1.778792e+01	-4.970061e+00
1.789066e+01	-5.004334e+00
1.799399e+01	-5.038584e+00
1.809793e+01	-5.073289e+00
1.820246e+01	-5.107560e+00
1.830760e+01	-5.142019e+00
1.841334e+01	-5.176846e+00
1.851969e+01	-5.211668e+00
1.862666e+01	-5.246596e+00
1.873425e+01	-5.281681e+00
1.884246e+01	-5.317289e+00
1.895129e+01	-5.352683e+00
1.906075e+01	-5.388139e+00
1.917085e+01	-5.423802e+00
1.928158e+01	-5.459672e+00
1.939295e+01	-5.495447e+00
1.950496e+01	-5.531154e+00
1.961762e+01	-5.567356e+00
1.973093e+01	-5.603618e+00
1.984490e+01	-5.639842e+00
1.995952e+01	-5.676528e+00
2.007480e+01	-5.713026e+00
2.019076e+01	-5.749398e+00
2.030738e+01	-5.786065e+00
2.042467e+01	-5.823331e+00
2.054264e+01	-5.860072e+00
2.066130e+01	-5.897294e+00
2.078064e+01	-5.934688e+00
2.090066e+01	-5.971698e+00
2.102139e+01	-6.009434e+00
2.114280e+01	-6.046634e+00
2.126492e+01	-6.084269e+00
2.138775e+01	-6.122210e+00
2.151128e+01	-6.160167e+00
2.163553e+01	-6.197642e+00
2.176050e+01	-6.235985e+00
2.188619e+01	-6.274652e+00
2.201260e+01	-6.312905e+00
2.213974e+01	-6.351083e+00
2.226762e+01	-6.389282e+00
2.239624e+01	-6.427995e+00
2.252560e+01	-6.466881e+00
2.265571e+01	-6.505431e+00
2.278656e+01	-6.544565e+00
2.291818e+01	-6.583063e+00
2.305055e+01	-6.622379e+00
2.318369e+01	-6.661669e+00
2.331760e+01	-6.701102e+00
2.345228e+01	-6.740341e+00
2.358774e+01	-6.779663e+00
2.372398e+01	-6.819383e+00
2.386101e+01	-6.859000e+00
2.399883e+01	-6.898603e+00
2.413745e+01	-6.938307e+00
2.427686e+01	-6.978263e+00
2.441709e+01	-7.018838e+00
2.455812e+01	-7.058792e+00
2.469997e+01	-7.099277e+00
2.484263e+01	-7.139036e+00
2.498612e+01	-7.179398e+00
2.513044e+01	-7.220026e+00
2.527559e+01	-7.260832e+00
2.542158e+01	-7.301160e+00
2.556842e+01	-7.342550e+00
2.571610e+01	-7.383081e+00
2.586463e+01	-7.423767e+00
2.601403e+01	-7.464880e+00
2.616428e+01	-7.506053e+00
2.631541e+01	-7.547370e+00
2.646740e+01	-7.588345e+00
2.662028e+01	-7.629766e+00
2.677404e+01	-7.671469e+00
2.692868e+01	-7.712711e+00
2.708422e+01	-7.754366e+00
2.724066e+01	-7.795979e+00
2.739800e+01	-7.837691e+00
2.755625e+01	-7.879666e+00
2.771541e+01	-7.921800e+00
2.787550e+01	-7.963770e+00
2.803650e+01	-8.005702e+00
2.819844e+01	-8.047555e+00
2.836131e+01	-8.090193e+00
2.852513e+01	-8.132428e+00
2.868989e+01	-8.174628e+00
2.885560e+01	-8.217230e+00
2.902227e+01	-8.259589e+00
2.918990e+01	-8.302388e+00
2.935850e+01	-8.345041e+00
2.952807e+01	-8.387472e+00
2.969863e+01	-8.430699e+00
2.987016e+01	-8.473545e+00
3.004269e+01	-8.516022e+00
3.021622e+01	-8.559010e+00
3.039075e+01	-8.602402e+00
3.056628e+01	-8.645518e+00
3.074283e+01	-8.688770e+00
3.092040e+01	-8.732113e+00
3.109900e+01	-8.775735e+00
3.127862e+01	-8.819106e+00
3.145929e+01	-8.862637e+00
3.164099e+01	-8.905721e+00
3.182375e+01	-8.949537e+00
3.200756e+01	-8.993373e+00
3.219244e+01	-9.037380e+00
3.237838e+01	-9.080822e+00
3.256540e+01	-9.125078e+00
3.275349e+01	-9.168228e+00
3.294268e+01	-9.212981e+00
3.313295e+01	-9.256347e+00
3.332433e+01	-9.300726e+00
3.351681e+01	-9.345067e+00
3.371040e+01	-9.389357e+00
3.390511e+01	-9.433747e+00
3.410094e+01	-9.477892e+00
3.429791e+01	-9.522534e+00
3.449601e+01	-9.566388e+00
3.469526e+01	-9.610974e+00
3.489566e+01	-9.656649e+00
3.509721e+01	-9.700420e+00
3.529993e+01	-9.745462e+00
3.550382e+01	-9.789893e+00
3.570889e+01	-9.834718e+00
3.591515e+01	-9.879854e+00
3.612259e+01	-9.923946e+00
3.633123e+01	-9.969593e+00
3.654108e+01	-1.001507e+01
3.675214e+01	-1.005953e+01
3.696442e+01	-1.010462e+01
3.717792e+01	-1.014976e+01
3.739266e+01	-1.019485e+01
3.760864e+01	-1.024021e+01
3.782587e+01	-1.028551e+01
3.804435e+01	-1.033157e+01
3.826409e+01	-1.037612e+01
3.848510e+01	-1.042158e+01
3.870739e+01	-1.046733e+01
3.893096e+01	-1.051283e+01
3.915583e+01	-1.055835e+01
3.938199e+01	-1.060446e+01
3.960946e+01	-1.064947e+01
3.983824e+01	-1.069567e+01
4.006834e+01	-1.074127e+01
4.029978e+01	-1.078720e+01
4.053255e+01	-1.083329e+01
4.076666e+01	-1.087870e+01
4.100213e+01	-1.092543e+01
4.123896e+01	-1.097144e+01
4.147715e+01	-1.101717e+01
4.171672e+01	-1.106323e+01
4.195767e+01	-1.110958e+01
4.220002e+01	-1.115555e+01
4.244377e+01	-1.120160e+01
4.268892e+01	-1.124780e+01
4.293549e+01	-1.129421e+01
4.318348e+01	-1.134049e+01
4.343291e+01	-1.138682e+01
4.368377e+01	-1.143264e+01
4.393609e+01	-1.147982e+01
4.418986e+01	-1.152615e+01
4.444510e+01	-1.157237e+01
4.470182e+01	-1.161981e+01
4.496001e+01	-1.166605e+01
4.521970e+01	-1.171204e+01
4.548089e+01	-1.175864e+01
4.574358e+01	-1.180622e+01
4.600779e+01	-1.185329e+01
4.627353e+01	-1.189903e+01
4.654081e+01	-1.194681e+01
4.680963e+01	-1.199287e+01
4.708000e+01	-1.203987e+01
4.735193e+01	-1.208645e+01
4.762543e+01	-1.213337e+01
4.790051e+01	-1.218085e+01
4.817719e+01	-1.222759e+01
4.845545e+01	-1.227493e+01
4.873533e+01	-1.232242e+01
4.901682e+01	-1.236953e+01
4.929994e+01	-1.241633e+01
4.958470e+01	-1.246363e+01
4.987110e+01	-1.251060e+01
5.015915e+01	-1.255815e+01
5.044887e+01	-1.260502e+01
5.074026e+01	-1.265221e+01
5.103333e+01	-1.269993e+01
5.132810e+01	-1.274706e+01
5.162457e+01	-1.279407e+01
5.192275e+01	-1.284161e+01
5.222265e+01	-1.288931e+01
5.252429e+01	-1.293754e+01
5.282767e+01	-1.298366e+01
5.313280e+01	-1.303273e+01
5.343969e+01	-1.307906e+01
5.374836e+01	-1.312738e+01
5.405880e+01	-1.317445e+01
5.437105e+01	-1.322214e+01
5.468509e+01	-1.327024e+01
5.500095e+01	-1.331818e+01
5.531863e+01	-1.336559e+01
5.563815e+01	-1.341297e+01
5.595951e+01	-1.346092e+01
5.628273e+01	-1.350871e+01
5.660782e+01	-1.355672e+01
5.693479e+01	-1.360363e+01
5.726364e+01	-1.365212e+01
5.759439e+01	-1.369928e+01
5.792705e+01	-1.374814e+01
5.826164e+01	-1.379648e+01
5.859815e+01	-1.384381e+01
5.893662e+01	-1.389194e+01
5.927703e+01	-1.393978e+01
5.961941e+01	-1.398776e+01
5.996377e+01	-1.403572e+01
6.031012e+01	-1.408396e+01
6.065847e+01	-1.413182e+01
6.100883e+01	-1.418013e+01
6.136121e+01	-1.422762e+01
6.171563e+01	-1.427676e+01
6.207210e+01	-1.432418e+01
6.243063e+01	-1.437239e+01
6.279122e+01	-1.442120e+01
6.315390e+01	-1.446866e+01
6.351868e+01	-1.451709e+01
6.388556e+01	-1.456554e+01
6.425456e+01	-1.461412e+01
6.462569e+01	-1.466290e+01
6.499897e+01	-1.471061e+01
6.537440e+01	-1.475892e+01
6.575200e+01	-1.480758e+01
6.613178e+01	-1.485579e+01
6.651375e+01	-1.490374e+01
6.689793e+01	-1.495195e+01
6.728433e+01	-1.500068e+01
6.767297e+01	-1.504964e+01
6.806384e+01	-1.509894e+01
6.845698e+01	-1.514674e+01
6.885238e+01	-1.519427e+01
6.925007e+01	-1.524318e+01
6.965005e+01	-1.529165e+01
7.005235e+01	-1.533998e+01
7.045697e+01	-1.538800e+01
7.086393e+01	-1.543765e+01
7.127323e+01	-1.548630e+01
7.168490e+01	-1.553523e+01
7.209895e+01	-1.558284e+01
7.251539e+01	-1.563304e+01
7.293424e+01	-1.568080e+01
7.335551e+01	-1.572890e+01
7.377920e+01	-1.577932e+01
7.420535e+01	-1.582661e+01
7.463396e+01	-1.587578e+01
7.506504e+01	-1.592598e+01
7.549861e+01	-1.597346e+01
7.593469e+01	-1.602149e+01
7.637328e+01	-1.607077e+01
7.681441e+01	-1.611946e+01
7.725809e+01	-1.616846e+01
7.770433e+01	-1.621746e+01
7.815315e+01	-1.626630e+01
7.860456e+01	-1.631468e+01
7.905857e+01	-1.636424e+01
7.951521e+01	-1.641323e+01
7.997449e+01	-1.646227e+01
8.043642e+01	-1.651113e+01
8.090102e+01	-1.655959e+01
8.136830e+01	-1.660843e+01
8.183828e+01	-1.665688e+01
8.231097e+01	-1.670693e+01
8.278640e+01	-1.675593e+01
8.326457e+01	-1.680378e+01
8.374550e+01	-1.685342e+01
8.422921e+01	-1.690256e+01
8.471572e+01	-1.695159e+01
8.520503e+01	-1.700159e+01
8.569717e+01	-1.704917e+01
8.619215e+01	-1.709880e+01
8.669000e+01	-1.714710e+01
8.719071e+01	-1.719616e+01
8.769432e+01	-1.724473e+01
8.820084e+01	-1.729294e+01
8.871029e+01	-1.734283e+01
8.922267e+01	-1.739407e+01
8.973802e+01	-1.744252e+01
9.025634e+01	-1.749125e+01
9.077766e+01	-1.754017e+01
9.130199e+01	-1.758870e+01
9.182935e+01	-1.763834e+01
9.235975e+01	-1.768731e+01
9.289321e+01	-1.773671e+01
9.342976e+01	-1.778611e+01
9.396941e+01	-1.783535e+01
9.451217e+01	-1.788456e+01
9.505807e+01	-1.793431e+01
9.560712e+01	-1.798323e+01
9.615934e+01	-1.803084e+01
9.671476e+01	-1.808174e+01
9.727338e+01	-1.812995e+01
9.783522e+01	-1.817972e+01
9.840032e+01	-1.822876e+01
9.896867e+01	-1.827930e+01
9.954031e+01	-1.832651e+01
1.001153e+02	-1.837664e+01
1.006935e+02	-1.842680e+01
1.012751e+02	-1.847524e+01
1.018601e+02	-1.852673e+01
1.024484e+02	-1.857601e+01
1.030402e+02	-1.862329e+01
1.036353e+02	-1.867359e+01
1.042339e+02	-1.872342e+01
1.048360e+02	-1.877196e+01
1.054415e+02	-1.882258e+01
1.060505e+02	-1.887069e+01
1.066631e+02	-1.892127e+01
1.072791e+02	-1.896967e+01
1.078988e+02	-1.901866e+01
1.085220e+02	-1.906756e+01
1.091488e+02	-1.911694e+01
1.097793e+02	-1.916714e+01
1.104133e+02	-1.921604e+01
1.110511e+02	-1.926600e+01
1.116925e+02	-1.931675e+01
1.123376e+02	-1.936536e+01
1.129865e+02	-1.941355e+01
1.136391e+02	-1.946415e+01
1.142955e+02	-1.951403e+01
1.149556e+02	-1.956182e+01
1.156196e+02	-1.961313e+01
1.162874e+02	-1.966263e+01
1.169591e+02	-1.970950e+01
1.176347e+02	-1.976047e+01
1.183141e+02	-1.980951e+01
1.189975e+02	-1.985847e+01
1.196848e+02	-1.991016e+01
1.203761e+02	-1.995844e+01
1.210714e+02	-2.000682e+01
1.217707e+02	-2.005791e+01
1.224740e+02	-2.010593e+01
1.231814e+02	-2.015833e+01
1.238929e+02	-2.020751e+01
1.246085e+02	-2.025569e+01
1.253283e+02	-2.030555e+01
1.260522e+02	-2.035429e+01
1.267802e+02	-2.040558e+01
1.275125e+02	-2.045405e+01
1.282490e+02	-2.050367e+01
1.289898e+02	-2.055478e+01
1.297348e+02	-2.060255e+01
1.304842e+02	-2.065452e+01
1.312378e+02	-2.070226e+01
1.319959e+02	-2.075092e+01
1.327583e+02	-2.080186e+01
1.335251e+02	-2.085273e+01
1.342963e+02	-2.090125e+01
1.350720e+02	-2.095000e+01
1.358522e+02	-2.100149e+01
1.366368e+02	-2.104962e+01
1.374260e+02	-2.109815e+01
1.382198e+02	-2.115058e+01
1.390182e+02	-2.119803e+01
1.398211e+02	-2.124924e+01
1.406287e+02	-2.129751e+01
1.414410e+02	-2.134787e+01
1.422579e+02	-2.139869e+01
1.430796e+02	-2.144642e+01
1.439060e+02	-2.149780e+01
1.447372e+02	-2.154864e+01
1.455732e+02	-2.159469e+01
1.464141e+02	-2.164421e+01
1.472597e+02	-2.169591e+01
1.481103e+02	-2.174713e+01
1.489658e+02	-2.179631e+01
1.498262e+02	-2.184493e+01
1.506916e+02	-2.189439e+01
1.515620e+02	-2.194394e+01
1.524374e+02	-2.199507e+01
1.533179e+02	-2.204296e+01
1.542034e+02	-2.209301e+01
1.550941e+02	-2.214304e+01
1.559899e+02	-2.219352e+01
1.568909e+02	-2.224204e+01
1.577971e+02	-2.229216e+01
1.587085e+02	-2.234221e+01
1.596252e+02	-2.239216e+01
1.605472e+02	-2.244356e+01
1.614745e+02	-2.249045e+01
1.624072e+02	-2.253893e+01
1.633453e+02	-2.258943e+01
1.642887e+02	-2.264393e+01
1.652377e+02	-2.269052e+01
1.661921e+02	-2.274228e+01
1.671520e+02	-2.279049e+01
1.681175e+02	-2.284042e+01
1.690885e+02	-2.288837e+01
1.700651e+02	-2.293930e+01
1.710474e+02	-2.298792e+01
1.720354e+02	-2.303852e+01
1.730291e+02	-2.308928e+01
1.740285e+02	-2.313809e+01
1.750337e+02	-2.318954e+01
1.760446e+02	-2.324093e+01
1.770615e+02	-2.328907e+01
1.780842e+02	-2.333744e+01
1.791128e+02	-2.338993e+01
1.801473e+02	-2.343901e+01
1.811878e+02	-2.348777e+01
1.822344e+02	-2.353734e+01
1.832870e+02	-2.358940e+01
1.843456e+02	-2.363686e+01
1.854104e+02	-2.368434e+01
1.864813e+02	-2.373818e+01
1.875584e+02	-2.378546e+01
1.886418e+02	-2.383682e+01
1.897313e+02	-2.388839e+01
1.908272e+02	-2.393795e+01
1.919294e+02	-2.398367e+01
1.930380e+02	-2.403619e+01
1.941530e+02	-2.408382e+01
1.952744e+02	-2.413684e+01
1.964023e+02	-2.418593e+01
1.975367e+02	-2.423296e+01
1.986777e+02	-2.428279e+01
1.998252e+02	-2.433489e+01
2.009794e+02	-2.438653e+01
2.021403e+02	-2.443475e+01
2.033078e+02	-2.448621e+01
2.044821e+02	-2.453319e+01
2.056632e+02	-2.458246e+01
2.068511e+02	-2.463530e+01
2.080459e+02	-2.468594e+01
2.092475e+02	-2.473447e+01
2.104561e+02	-2.478511e+01
2.116717e+02	-2.483108e+01
2.128943e+02	-2.488640e+01
2.141240e+02	-2.493476e+01
2.153608e+02	-2.498355e+01
2.166047e+02	-2.503375e+01
2.178558e+02	-2.508699e+01
2.191141e+02	-2.513271e+01
2.203797e+02	-2.518165e+01
2.216526e+02	-2.523170e+01
2.229329e+02	-2.528514e+01
2.242205e+02	-2.533073e+01
2.255156e+02	-2.538291e+01
2.268182e+02	-2.543195e+01
2.281283e+02	-2.548329e+01
2.294459e+02	-2.553478e+01
2.307712e+02	-2.558579e+01
2.321041e+02	-2.563302e+01
2.334447e+02	-2.568135e+01
2.347931e+02	-2.573118e+01
2.361493e+02	-2.578077e+01
2.375133e+02	-2.583334e+01
2.388851e+02	-2.588059e+01
2.402649e+02	-2.593019e+01
2.416527e+02	-2.598475e+01
2.430484e+02	-2.603230e+01
2.444523e+02	-2.608127e+01
2.458642e+02	-2.613451e+01
2.472843e+02	-2.618194e+01
2.487126e+02	-2.623074e+01
2.501492e+02	-2.628514e+01
2.515940e+02	-2.633497e+01
2.530472e+02	-2.638046e+01
2.545088e+02	-2.643048e+01
2.559789e+02	-2.647742e+01
2.574574e+02	-2.653340e+01
2.589444e+02	-2.658118e+01
2.604401e+02	-2.662841e+01
2.619444e+02	-2.668328e+01
2.634574e+02	-2.673143e+01
2.649791e+02	-2.678371e+01
2.665096e+02	-2.683086e+01
2.680489e+02	-2.688191e+01
2.695972e+02	-2.693082e+01
2.711544e+02	-2.697898e+01
2.727205e+02	-2.702923e+01
2.742958e+02	-2.707804e+01
2.758801e+02	-2.713039e+01
2.774736e+02	-2.718469e+01
2.790762e+02	-2.723327e+01
2.806882e+02	-2.727958e+01
2.823094e+02	-2.733317e+01
2.839400e+02	-2.738305e+01
2.855800e+02	-2.743150e+01
2.872295e+02	-2.748114e+01
2.888886e+02	-2.752926e+01
2.905572e+02	-2.758343e+01
2.922354e+02	-2.762765e+01
2.939234e+02	-2.767913e+01
2.956211e+02	-2.773338e+01
2.973286e+02	-2.778388e+01
2.990459e+02	-2.782906e+01
3.007732e+02	-2.788215e+01
3.025104e+02	-2.793216e+01
3.042577e+02	-2.798287e+01
3.060151e+02	-2.803509e+01
3.077826e+02	-2.808380e+01
3.095604e+02	-2.812850e+01
3.113484e+02	-2.818084e+01
3.131467e+02	-2.822929e+01
3.149554e+02	-2.828029e+01
3.167746e+02	-2.833140e+01
3.186043e+02	-2.838195e+01
3.204445e+02	-2.842841e+01
3.222954e+02	-2.848231e+01
3.241570e+02	-2.853507e+01
3.260293e+02	-2.858397e+01
3.279124e+02	-2.863430e+01
3.298064e+02	-2.868280e+01
3.317114e+02	-2.872992e+01
3.336273e+02	-2.878262e+01
3.355544e+02	-2.883237e+01
3.374925e+02	-2.888356e+01
3.394418e+02	-2.893075e+01
3.414024e+02	-2.898547e+01
3.433744e+02	-2.903114e+01
3.453577e+02	-2.908502e+01
3.473525e+02	-2.913007e+01
3.493588e+02	-2.918142e+01
3.513766e+02	-2.922856e+01
3.534062e+02	-2.928642e+01
3.554474e+02	-2.933214e+01
3.575005e+02	-2.938296e+01
3.595654e+02	-2.943312e+01
3.616422e+02	-2.947761e+01
3.637311e+02	-2.953405e+01
3.658320e+02	-2.958302e+01
3.679450e+02	-2.963778e+01
3.700702e+02	-2.968073e+01
3.722077e+02	-2.973270e+01
3.743576e+02	-2.978577e+01
3.765199e+02	-2.983143e+01
3.786946e+02	-2.988317e+01
3.808820e+02	-2.993370e+01
3.830819e+02	-2.998263e+01
3.852946e+02	-3.003576e+01
3.875200e+02	-3.008409e+01
3.897583e+02	-3.012978e+01
3.920096e+02	-3.018612e+01
3.942738e+02	-3.023232e+01
3.965511e+02	-3.028463e+01
3.988416e+02	-3.033499e+01
4.011452e+02	-3.038030e+01
4.034622e+02	-3.043282e+01
4.057926e+02	-3.048245e+01
4.081365e+02	-3.053530e+01
4.104938e+02	-3.058632e+01
4.128648e+02	-3.063571e+01
4.152495e+02	-3.068480e+01
4.176480e+02	-3.073941e+01
4.200603e+02	-3.078306e+01
4.224866e+02	-3.083694e+01
4.249268e+02	-3.088178e+01
4.273812e+02	-3.093918e+01
4.298497e+02	-3.098578e+01
4.323325e+02	-3.103776e+01
4.348297e+02	-3.108629e+01
4.373412e+02	-3.113336e+01
4.398673e+02	-3.118677e+01
4.424079e+02	-3.123508e+01
4.449633e+02	-3.128862e+01
4.475334e+02	-3.134032e+01
4.501183e+02	-3.138289e+01
4.527182e+02	-3.143578e+01
4.553330e+02	-3.149194e+01
4.579630e+02	-3.153931e+01
4.606082e+02	-3.159212e+01
4.632687e+02	-3.163343e+01
4.659445e+02	-3.168908e+01
4.686358e+02	-3.173715e+01
4.713426e+02	-3.178899e+01
4.740650e+02	-3.184680e+01
4.768032e+02	-3.188588e+01
4.795572e+02	-3.194062e+01
4.823271e+02	-3.199003e+01
4.851130e+02	-3.203965e+01
4.879150e+02	-3.209320e+01
4.907332e+02	-3.213757e+01
4.935676e+02	-3.219060e+01
4.964185e+02	-3.223925e+01
4.992858e+02	-3.229040e+01
5.021696e+02	-3.234367e+01
5.050701e+02	-3.239647e+01
5.079874e+02	-3.244777e+01
5.109215e+02	-3.249143e+01
5.138726e+02	-3.254395e+01
5.168407e+02	-3.259022e+01
5.198259e+02	-3.264460e+01
5.228284e+02	-3.269144e+01
5.258482e+02	-3.274277e+01
5.288855e+02	-3.280115e+01
5.319403e+02	-3.284253e+01
5.350128e+02	-3.288934e+01
5.381030e+02	-3.294462e+01
5.412111e+02	-3.298629e+01
5.443371e+02	-3.304790e+01
5.474812e+02	-3.310307e+01
5.506434e+02	-3.314308e+01
5.538239e+02	-3.319948e+01
5.570228e+02	-3.324703e+01
5.602401e+02	-3.329894e+01
5.634760e+02	-3.334698e+01
5.667306e+02	-3.340446e+01
5.700040e+02	-3.344703e+01
5.732964e+02	-3.350054e+01
5.766077e+02	-3.355686e+01
5.799382e+02	-3.358584e+01
5.832879e+02	-3.364587e+01
5.866569e+02	-3.369995e+01
5.900454e+02	-3.374792e+01
5.934535e+02	-3.380358e+01
5.968813e+02	-3.384560e+01
6.003288e+02	-3.390945e+01
6.037963e+02	-3.395625e+01
6.072838e+02	-3.399443e+01
6.107914e+02	-3.404884e+01
6.143194e+02	-3.410152e+01
6.178676e+02	-3.415966e+01
6.214364e+02	-3.419941e+01
6.250258e+02	-3.425359e+01
6.286359e+02	-3.429978e+01
6.322669e+02	-3.434574e+01
6.359189e+02	-3.439427e+01
6.395919e+02	-3.445664e+01
6.432862e+02	-3.450342e+01
6.470017e+02	-3.455085e+01
6.507388e+02	-3.459459e+01
6.544974e+02	-3.465292e+01
6.582778e+02	-3.470397e+01
6.620800e+02	-3.474873e+01
6.659041e+02	-3.480785e+01
6.697504e+02	-3.485375e+01
6.736188e+02	-3.489917e+01
6.775096e+02	-3.497034e+01
6.814229e+02	-3.501108e+01
6.853587e+02	-3.505614e+01
6.893173e+02	-3.510301e+01
6.932988e+02	-3.516702e+01
6.973033e+02	-3.521053e+01
7.013309e+02	-3.525417e+01
