Frequency(Hz)	Magnitude(dB)
1.000000e+01	-2.314897e+00
1.005776e+01	-2.335812e+00
1.011585e+01	-2.356677e+00
1.017428e+01	-2.377763e+00
1.023305e+01	-2.399209e+00
1.029215e+01	-2.419918e+00
1.035160e+01	-2.441692e+00
1.041139e+01	-2.463289e+00
1.047153e+01	-2.484744e+00
1.053201e+01	-2.506848e+00
1.059284e+01	-2.529023e+00
1.065403e+01	-2.550966e+00
1.071556e+01	-2.573441e+00
1.077746e+01	-2.595817e+00
1.083971e+01	-2.618289e+00
1.090232e+01	-2.641040e+00
1.096529e+01	-2.663849e+00
1.102862e+01	-2.686699e+00
1.109232e+01	-2.710020e+00
1.115639e+01	-2.733402e+00
1.122083e+01	-2.757089e+00
1.128564e+01	-2.780388e+00
1.135083e+01	-2.804002e+00
1.141639e+01	-2.828174e+00
1.148233e+01	-2.851966e+00
1.154865e+01	-2.876252e+00
1.161536e+01	-2.900531e+00
1.168245e+01	-2.924765e+00
1.174992e+01	-2.949579e+00
1.181779e+01	-2.974149e+00
1.188605e+01	-2.998929e+00
1.195470e+01	-3.024076e+00
1.202375e+01	-3.049190e+00
1.209320e+01	-3.074411e+00
1.216305e+01	-3.100165e+00
1.223330e+01	-3.125644e+00
1.230396e+01	-3.151461e+00
1.237503e+01	-3.177297e+00
1.244651e+01	-3.203373e+00
1.251840e+01	-3.229491e+00
1.259070e+01	-3.255759e+00
1.266343e+01	-3.282210e+00
1.273657e+01	-3.309002e+00
1.281014e+01	-3.335615e+00
1.288413e+01	-3.362444e+00
1.295855e+01	-3.389258e+00
1.303339e+01	-3.416884e+00
1.310867e+01	-3.444022e+00
1.318439e+01	-3.471769e+00
1.326054e+01	-3.499086e+00
1.333713e+01	-3.526714e+00
1.341417e+01	-3.554667e+00
1.349165e+01	-3.582829e+00
1.356958e+01	-3.611018e+00
1.364795e+01	-3.639068e+00
1.372678e+01	-3.667694e+00
1.380607e+01	-3.696115e+00
1.388581e+01	-3.724919e+00
1.396602e+01	-3.753694e+00
1.404668e+01	-3.782836e+00
1.412782e+01	-3.811843e+00
1.420942e+01	-3.841568e+00
1.429149e+01	-3.870717e+00
1.437404e+01	-3.900570e+00
1.445706e+01	-3.929845e+00
1.454057e+01	-3.959763e+00
1.462455e+01	-3.989756e+00
1.470902e+01	-4.019965e+00
1.479398e+01	-4.050461e+00
1.487943e+01	-4.080729e+00
1.496537e+01	-4.111113e+00
1.505181e+01	-4.142143e+00
1.513875e+01	-4.172901e+00
1.522619e+01	-4.203627e+00
1.531414e+01	-4.234557e+00
1.540259e+01	-4.265722e+00
1.549156e+01	-4.297466e+00
1.558103e+01	-4.329046e+00
1.567103e+01	-4.360757e+00
1.576155e+01	-4.392316e+00
1.585258e+01	-4.424318e+00
1.594415e+01	-4.456450e+00
1.603624e+01	-4.488350e+00
1.612886e+01	-4.520527e+00
1.622202e+01	-4.553155e+00
1.631572e+01	-4.585544e+00
1.640996e+01	-4.618422e+00
1.650474e+01	-4.651348e+00
1.660008e+01	-4.684274e+00
1.669596e+01	-4.717244e+00
1.679239e+01	-4.750203e+00
1.688938e+01	-4.783999e+00
1.698694e+01	-4.817174e+00
1.708505e+01	-4.850835e+00
1.718373e+01	-4.884415e+00
1.728299e+01	-4.918344e+00
1.738281e+01	-4.952294e+00
1.748322e+01	-4.986589e+00
1.758420e+01	-5.020834e+00
1.768576e+01	-5.055072e+00
1.778792e+01	-5.089420e+00
1.789066e+01	-5.123722e+00
1.799399e+01	-5.158754e+00
1.809793e+01	-5.193388e+00
1.820246e+01	-5.228580e+00
1.830760e+01	-5.263453e+00
1.841334e+01	-5.298814e+00
1.851969e+01	-5.334007e+00
1.862666e+01	-5.369767e+00
1.873425e+01	-5.405264e+00
1.884246e+01	-5.440922e+00
1.895129e+01	-5.476574e+00
1.906075e+01	-5.512417e+00
1.917085e+01	-5.548436e+00
1.928158e+01	-5.584475e+00
1.939295e+01	-5.620710e+00
1.950496e+01	-5.657353e+00
1.961762e+01	-5.693882e+00
1.973093e+01	-5.730411e+00
1.984490e+01	-5.766883e+00
1.995952e+01	-5.804027e+00
2.007480e+01	-5.840873e+00
2.019076e+01	-5.877780e+00
2.030738e+01	-5.914999e+00
2.042467e+01	-5.952081e+00
2.054264e+01	-5.989560e+00
2.066130e+01	-6.027379e+00
2.078064e+01	-6.064695e+00
2.090066e+01	-6.102524e+00
2.102139e+01	-6.140531e+00
2.114280e+01	-6.178371e+00
2.126492e+01	-6.216103e+00
2.138775e+01	-6.254397e+00
2.151128e+01	-6.292470e+00
2.163553e+01	-6.331211e+00
2.176050e+01	-6.368981e+00
2.188619e+01	-6.408002e+00
2.201260e+01	-6.446317e+00
2.213974e+01	-6.485267e+00
2.226762e+01	-6.524061e+00
2.239624e+01	-6.562980e+00
2.252560e+01	-6.602003e+00
2.265571e+01	-6.641215e+00
2.278656e+01	-6.680383e+00
2.291818e+01	-6.719653e+00
2.305055e+01	-6.759331e+00
2.318369e+01	-6.798764e+00
2.331760e+01	-6.838214e+00
2.345228e+01	-6.878081e+00
2.358774e+01	-6.917822e+00
2.372398e+01	-6.957858e+00
2.386101e+01	-6.997587e+00
2.399883e+01	-7.037796e+00
2.413745e+01	-7.078049e+00
2.427686e+01	-7.118329e+00
2.441709e+01	-7.158415e+00
2.455812e+01	-7.199289e+00
2.469997e+01	-7.239483e+00
2.484263e+01	-7.279973e+00
2.498612e+01	-7.320690e+00
2.513044e+01	-7.361705e+00
2.527559e+01	-7.402845e+00
2.542158e+01	-7.443694e+00
2.556842e+01	-7.484695e+00
2.571610e+01	-7.525668e+00
2.586463e+01	-7.567058e+00
2.601403e+01	-7.608480e+00
2.616428e+01	-7.649716e+00
2.631541e+01	-7.691533e+00
2.646740e+01	-7.732818e+00
2.662028e+01	-7.774223e+00
2.677404e+01	-7.815730e+00
2.692868e+01	-7.858067e+00
2.708422e+01	-7.899543e+00
2.724066e+01	-7.941876e+00
2.739800e+01	-7.983604e+00
2.755625e+01	-8.025848e+00
2.771541e+01	-8.068162e+00
2.787550e+01	-8.110180e+00
2.803650e+01	-8.152503e+00
2.819844e+01	-8.194686e+00
2.836131e+01	-8.237521e+00
2.852513e+01	-8.279799e+00
2.868989e+01	-8.322896e+00
2.885560e+01	-8.365864e+00
2.902227e+01	-8.408119e+00
2.918990e+01	-8.450826e+00
2.935850e+01	-8.493552e+00
2.952807e+01	-8.536348e+00
2.969863e+01	-8.579602e+00
2.987016e+01	-8.622754e+00
3.004269e+01	-8.666557e+00
3.021622e+01	-8.709487e+00
3.039075e+01	-8.752854e+00
3.056628e+01	-8.796238e+00
3.074283e+01	-8.839883e+00
3.092040e+01	-8.883366e+00
3.109900e+01	-8.926647e+00
3.127862e+01	-8.970836e+00
3.145929e+01	-9.014604e+00
3.164099e+01	-9.057977e+00
3.182375e+01	-9.101818e+00
3.200756e+01	-9.145706e+00
3.219244e+01	-9.189660e+00
3.237838e+01	-9.233432e+00
3.256540e+01	-9.277677e+00
3.275349e+01	-9.321561e+00
3.294268e+01	-9.365813e+00
3.313295e+01	-9.410313e+00
3.332433e+01	-9.454527e+00
3.351681e+01	-9.499106e+00
3.371040e+01	-9.543426e+00
3.390511e+01	-9.588433e+00
3.410094e+01	-9.632655e+00
3.429791e+01	-9.677560e+00
3.449601e+01	-9.721470e+00
3.469526e+01	-9.766757e+00
3.489566e+01	-9.811123e+00
3.509721e+01	-9.856561e+00
3.529993e+01	-9.900953e+00
3.550382e+01	-9.946046e+00
3.570889e+01	-9.991269e+00
3.591515e+01	-1.003596e+01
3.612259e+01	-1.008135e+01
3.633123e+01	-1.012647e+01
3.654108e+01	-1.017142e+01
3.675214e+01	-1.021662e+01
3.696442e+01	-1.026181e+01
3.717792e+01	-1.030689e+01
3.739266e+01	-1.035283e+01
3.760864e+01	-1.039853e+01
3.782587e+01	-1.044383e+01
3.804435e+01	-1.048898e+01
3.826409e+01	-1.053473e+01
3.848510e+01	-1.058043e+01
3.870739e+01	-1.062620e+01
3.893096e+01	-1.067157e+01
3.915583e+01	-1.071799e+01
3.938199e+01	-1.076356e+01
3.960946e+01	-1.080879e+01
3.983824e+01	-1.085518e+01
4.006834e+01	-1.090107e+01
4.029978e+01	-1.094655e+01
4.053255e+01	-1.099257e+01
4.076666e+01	-1.103906e+01
4.100213e+01	-1.108549e+01
4.123896e+01	-1.113126e+01
4.147715e+01	-1.117749e+01
4.171672e+01	-1.122408e+01
4.195767e+01	-1.127023e+01
4.220002e+01	-1.131628e+01
4.244377e+01	-1.136260e+01
4.268892e+01	-1.140881e+01
4.293549e+01	-1.145507e+01
4.318348e+01	-1.150146e+01
4.343291e+01	-1.154876e+01
4.368377e+01	-1.159578e+01
4.393609e+01	-1.164178e+01
4.418986e+01	-1.168846e+01
4.444510e+01	-1.173572e+01
4.470182e+01	-1.178189e+01
4.496001e+01	-1.182836e+01
4.521970e+01	-1.187506e+01
4.548089e+01	-1.192182e+01
4.574358e+01	-1.196836e+01
4.600779e+01	-1.201615e+01
4.627353e+01	-1.206295e+01
4.654081e+01	-1.210946e+01
4.680963e+01	-1.215596e+01
4.708000e+01	-1.220363e+01
4.735193e+01	-1.225062e+01
4.762543e+01	-1.229795e+01
4.790051e+01	-1.234376e+01
4.817719e+01	-1.239138e+01
4.845545e+01	-1.243909e+01
4.873533e+01	-1.248592e+01
4.901682e+01	-1.253304e+01
4.929994e+01	-1.257987e+01
4.958470e+01	-1.262798e+01
4.987110e+01	-1.267495e+01
5.015915e+01	-1.272227e+01
5.044887e+01	-1.277035e+01
5.074026e+01	-1.281781e+01
5.103333e+01	-1.286459e+01
5.132810e+01	-1.291191e+01
5.162457e+01	-1.296028e+01
5.192275e+01	-1.300734e+01
5.222265e+01	-1.305379e+01
5.252429e+01	-1.310164e+01
5.282767e+01	-1.314999e+01
5.313280e+01	-1.319735e+01
5.343969e+01	-1.324497e+01
5.374836e+01	-1.329230e+01
5.405880e+01	-1.334088e+01
5.437105e+01	-1.338819e+01
5.468509e+01	-1.343569e+01
5.500095e+01	-1.348318e+01
5.531863e+01	-1.353138e+01
5.563815e+01	-1.357854e+01
5.595951e+01	-1.362579e+01
5.628273e+01	-1.367488e+01
5.660782e+01	-1.372409e+01
5.693479e+01	-1.377072e+01
5.726364e+01	-1.381915e+01
5.759439e+01	-1.386659e+01
5.792705e+01	-1.391486e+01
5.826164e+01	-1.396321e+01
5.859815e+01	-1.401050e+01
5.893662e+01	-1.405887e+01
5.927703e+01	-1.410695e+01
5.961941e+01	-1.415487e+01
5.996377e+01	-1.420285e+01
6.031012e+01	-1.425116e+01
6.065847e+01	-1.429961e+01
6.100883e+01	-1.434773e+01
6.136121e+01	-1.439567e+01
6.171563e+01	-1.444354e+01
6.207210e+01	-1.449212e+01
6.243063e+01	-1.454037e+01
6.279122e+01	-1.458885e+01
6.315390e+01	-1.463724e+01
6.351868e+01	-1.468492e+01
6.388556e+01	-1.473476e+01
6.425456e+01	-1.478263e+01
6.462569e+01	-1.483107e+01
6.499897e+01	-1.487833e+01
6.537440e+01	-1.492765e+01
6.575200e+01	-1.497504e+01
6.613178e+01	-1.502350e+01
6.651375e+01	-1.507225e+01
6.689793e+01	-1.512178e+01
6.728433e+01	-1.516894e+01
6.767297e+01	-1.521876e+01
6.806384e+01	-1.526667e+01
6.845698e+01	-1.531588e+01
6.885238e+01	-1.536350e+01
6.925007e+01	-1.541240e+01
6.965005e+01	-1.546091e+01
7.005235e+01	-1.550960e+01
7.045697e+01	-1.555818e+01
7.086393e+01	-1.560686e+01
7.127323e+01	-1.565535e+01
7.168490e+01	-1.570497e+01
7.209895e+01	-1.575302e+01
7.251539e+01	-1.580231e+01
7.293424e+01	-1.585073e+01
7.335551e+01	-1.589848e+01
7.377920e+01	-1.594729e+01
7.420535e+01	-1.599614e+01
7.463396e+01	-1.604572e+01
7.506504e+01	-1.609446e+01
7.549861e+01	-1.614324e+01
7.593469e+01	-1.619097e+01
7.637328e+01	-1.624094e+01
7.681441e+01	-1.628998e+01
7.725809e+01	-1.633786e+01
7.770433e+01	-1.638741e+01
7.815315e+01	-1.643670e+01
7.860456e+01	-1.648492e+01
7.905857e+01	-1.653406e+01
7.951521e+01	-1.658385e+01
7.997449e+01	-1.663172e+01
8.043642e+01	-1.668013e+01
8.090102e+01	-1.672962e+01
8.136830e+01	-1.677946e+01
8.183828e+01	-1.682855e+01
8.231097e+01	-1.687739e+01
8.278640e+01	-1.692484e+01
8.326457e+01	-1.697478e+01
8.374550e+01	-1.702328e+01
8.422921e+01	-1.707169e+01
8.471572e+01	-1.712104e+01
8.520503e+01	-1.717103e+01
8.569717e+01	-1.721954e+01
8.619215e+01	-1.726885e+01
8.669000e+01	-1.731718e+01
8.719071e+01	-1.736669e+01
8.769432e+01	-1.741530e+01
8.820084e+01	-1.746526e+01
8.871029e+01	-1.751559e+01
8.922267e+01	-1.756304e+01
8.973802e+01	-1.761290e+01
9.025634e+01	-1.766284e+01
9.077766e+01	-1.771107e+01
9.130199e+01	-1.776002e+01
9.182935e+01	-1.781058e+01
9.235975e+01	-1.785875e+01
9.289321e+01	-1.790783e+01
9.342976e+01	-1.795651e+01
9.396941e+01	-1.800647e+01
9.451217e+01	-1.805608e+01
9.505807e+01	-1.810468e+01
9.560712e+01	-1.815493e+01
9.615934e+01	-1.820336e+01
9.671476e+01	-1.825286e+01
9.727338e+01	-1.830189e+01
9.783522e+01	-1.835108e+01
9.840032e+01	-1.839997e+01
9.896867e+01	-1.845060e+01
9.954031e+01	-1.849995e+01
1.001153e+02	-1.854921e+01
1.006935e+02	-1.859749e+01
1.012751e+02	-1.864714e+01
1.018601e+02	-1.869633e+01
1.024484e+02	-1.874668e+01
1.030402e+02	-1.879585e+01
1.036353e+02	-1.884429e+01
1.042339e+02	-1.889421e+01
1.048360e+02	-1.894340e+01
1.054415e+02	-1.899348e+01
1.060505e+02	-1.904335e+01
1.066631e+02	-1.909394e+01
1.072791e+02	-1.914007e+01
1.078988e+02	-1.919133e+01
1.085220e+02	-1.924138e+01
1.091488e+02	-1.929122e+01
1.097793e+02	-1.933979e+01
1.104133e+02	-1.938862e+01
1.110511e+02	-1.943776e+01
1.116925e+02	-1.948683e+01
1.123376e+02	-1.953636e+01
1.129865e+02	-1.958466e+01
1.136391e+02	-1.963544e+01
1.142955e+02	-1.968490e+01
1.149556e+02	-1.973486e+01
1.156196e+02	-1.978453e+01
1.162874e+02	-1.983416e+01
1.169591e+02	-1.988443e+01
1.176347e+02	-1.993051e+01
1.183141e+02	-1.998331e+01
1.189975e+02	-2.003237e+01
1.196848e+02	-2.008186e+01
1.203761e+02	-2.013023e+01
1.210714e+02	-2.018111e+01
1.217707e+02	-2.022981e+01
1.224740e+02	-2.027865e+01
1.231814e+02	-2.032959e+01
1.238929e+02	-2.038004e+01
1.246085e+02	-2.042846e+01
1.253283e+02	-2.047912e+01
1.260522e+02	-2.052774e+01
1.267802e+02	-2.057786e+01
1.275125e+02	-2.062556e+01
1.282490e+02	-2.067606e+01
1.289898e+02	-2.072733e+01
1.297348e+02	-2.077543e+01
1.304842e+02	-2.082518e+01
1.312378e+02	-2.087496e+01
1.319959e+02	-2.092743e+01
1.327583e+02	-2.097321e+01
1.335251e+02	-2.102485e+01
1.342963e+02	-2.107495e+01
1.350720e+02	-2.112141e+01
1.358522e+02	-2.117232e+01
1.366368e+02	-2.122251e+01
1.374260e+02	-2.127048e+01
1.382198e+02	-2.132160e+01
1.390182e+02	-2.137020e+01
1.398211e+02	-2.142273e+01
1.406287e+02	-2.146934e+01
1.414410e+02	-2.152160e+01
1.422579e+02	-2.157011e+01
1.430796e+02	-2.161997e+01
1.439060e+02	-2.166821e+01
1.447372e+02	-2.171954e+01
1.455732e+02	-2.176969e+01
1.464141e+02	-2.181845e+01
1.472597e+02	-2.186793e+01
1.481103e+02	-2.191737e+01
1.489658e+02	-2.196805e+01
1.498262e+02	-2.201815e+01
1.506916e+02	-2.206644e+01
1.515620e+02	-2.211796e+01
1.524374e+02	-2.216700e+01
1.533179e+02	-2.221652e+01
1.542034e+02	-2.226721e+01
1.550941e+02	-2.231609e+01
1.559899e+02	-2.236752e+01
1.568909e+02	-2.241474e+01
1.577971e+02	-2.246530e+01
1.587085e+02	-2.251440e+01
1.596252e+02	-2.256512e+01
1.605472e+02	-2.261665e+01
1.614745e+02	-2.266449e+01
1.624072e+02	-2.271101e+01
1.633453e+02	-2.276416e+01
1.642887e+02	-2.281362e+01
1.652377e+02	-2.286394e+01
1.661921e+02	-2.291506e+01
1.671520e+02	-2.296360e+01
1.681175e+02	-2.301320e+01
1.690885e+02	-2.306480e+01
1.700651e+02	-2.311476e+01
1.710474e+02	-2.316209e+01
1.720354e+02	-2.321224e+01
1.730291e+02	-2.326222e+01
1.740285e+02	-2.331017e+01
1.750337e+02	-2.336024e+01
1.760446e+02	-2.341266e+01
1.770615e+02	-2.345999e+01
1.780842e+02	-2.351164e+01
1.791128e+02	-2.356223e+01
1.801473e+02	-2.361155e+01
1.811878e+02	-2.365926e+01
1.822344e+02	-2.371152e+01
1.832870e+02	-2.376031e+01
1.843456e+02	-2.381205e+01
1.854104e+02	-2.386087e+01
1.864813e+02	-2.390749e+01
1.875584e+02	-2.395977e+01
1.886418e+02	-2.400722e+01
1.897313e+02	-2.406074e+01
1.908272e+02	-2.410706e+01
1.919294e+02	-2.416131e+01
1.930380e+02	-2.420706e+01
1.941530e+02	-2.426010e+01
1.952744e+02	-2.430910e+01
1.964023e+02	-2.435951e+01
1.975367e+02	-2.440673e+01
1.986777e+02	-2.446022e+01
1.998252e+02	-2.450841e+01
2.009794e+02	-2.455819e+01
2.021403e+02	-2.460817e+01
2.033078e+02	-2.465925e+01
2.044821e+02	-2.470722e+01
2.056632e+02	-2.475741e+01
2.068511e+02	-2.481186e+01
2.080459e+02	-2.485689e+01
2.092475e+02	-2.490505e+01
2.104561e+02	-2.495463e+01
2.116717e+02	-2.500522e+01
2.128943e+02	-2.505706e+01
2.141240e+02	-2.510508e+01
2.153608e+02	-2.515596e+01
2.166047e+02	-2.520611e+01
2.178558e+02	-2.525779e+01
2.191141e+02	-2.531115e+01
2.203797e+02	-2.535862e+01
2.216526e+02	-2.540686e+01
2.229329e+02	-2.545652e+01
2.242205e+02	-2.550618e+01
2.255156e+02	-2.555720e+01
2.268182e+02	-2.560437e+01
2.281283e+02	-2.565629e+01
2.294459e+02	-2.570635e+01
2.307712e+02	-2.575798e+01
2.321041e+02	-2.580542e+01
2.334447e+02	-2.585710e+01
2.347931e+02	-2.590582e+01
2.361493e+02	-2.595668e+01
2.375133e+02	-2.600571e+01
2.388851e+02	-2.605458e+01
2.402649e+02	-2.610722e+01
2.416527e+02	-2.615876e+01
2.430484e+02	-2.620761e+01
2.444523e+02	-2.625260e+01
2.458642e+02	-2.630671e+01
2.472843e+02	-2.635385e+01
2.487126e+02	-2.640464e+01
2.501492e+02	-2.645203e+01
2.515940e+02	-2.650403e+01
2.530472e+02	-2.655384e+01
2.545088e+02	-2.660483e+01
2.559789e+02	-2.665824e+01
2.574574e+02	-2.670194e+01
2.589444e+02	-2.675173e+01
2.604401e+02	-2.680382e+01
2.619444e+02	-2.685594e+01
2.634574e+02	-2.690414e+01
2.649791e+02	-2.695427e+01
2.665096e+02	-2.700913e+01
2.680489e+02	-2.705669e+01
2.695972e+02	-2.710704e+01
2.711544e+02	-2.715093e+01
2.727205e+02	-2.720535e+01
2.742958e+02	-2.725667e+01
2.758801e+02	-2.730754e+01
2.774736e+02	-2.735296e+01
2.790762e+02	-2.740369e+01
2.806882e+02	-2.745441e+01
2.823094e+02	-2.750568e+01
2.839400e+02	-2.755302e+01
2.855800e+02	-2.760449e+01
2.872295e+02	-2.765694e+01
2.888886e+02	-2.770555e+01
2.905572e+02	-2.775730e+01
2.922354e+02	-2.780549e+01
2.939234e+02	-2.785938e+01
2.956211e+02	-2.790550e+01
2.973286e+02	-2.795606e+01
2.990459e+02	-2.800589e+01
3.007732e+02	-2.805309e+01
3.025104e+02	-2.810163e+01
3.042577e+02	-2.815598e+01
3.060151e+02	-2.820448e+01
3.077826e+02	-2.825467e+01
3.095604e+02	-2.830326e+01
3.113484e+02	-2.835317e+01
3.131467e+02	-2.840430e+01
3.149554e+02	-2.845888e+01
3.167746e+02	-2.850454e+01
3.186043e+02	-2.855812e+01
3.204445e+02	-2.860693e+01
3.222954e+02	-2.865681e+01
3.241570e+02	-2.870521e+01
3.260293e+02	-2.875390e+01
3.279124e+02	-2.880498e+01
3.298064e+02	-2.885795e+01
3.317114e+02	-2.890574e+01
3.336273e+02	-2.895773e+01
3.355544e+02	-2.900696e+01
3.374925e+02	-2.905289e+01
3.394418e+02	-2.910229e+01
3.414024e+02	-2.915474e+01
3.433744e+02	-2.920727e+01
3.453577e+02	-2.925889e+01
3.473525e+02	-2.930670e+01
3.493588e+02	-2.935511e+01
3.513766e+02	-2.940600e+01
3.534062e+02	-2.945961e+01
3.554474e+02	-2.950739e+01
3.575005e+02	-2.956024e+01
3.595654e+02	-2.960506e+01
3.616422e+02	-2.966147e+01
3.637311e+02	-2.970625e+01
3.658320e+02	-2.975802e+01
3.679450e+02	-2.980947e+01
3.700702e+02	-2.985631e+01
3.722077e+02	-2.990806e+01
3.743576e+02	-2.995978e+01
3.765199e+02	-3.001093e+01
3.786946e+02	-3.005751e+01
3.808820e+02	-3.010478e+01
3.830819e+02	-3.015225e+01
3.852946e+02	-3.021267e+01
3.875200e+02	-3.026046e+01
3.897583e+02	-3.030502e+01
3.920096e+02	-3.036582e+01
3.942738e+02	-3.040662e+01
3.965511e+02	-3.045505e+01
3.988416e+02	-3.051019e+01
4.011452e+02	-3.055671e+01
4.034622e+02	-3.061304e+01
4.057926e+02	-3.065769e+01
4.081365e+02	-3.071072e+01
4.104938e+02	-3.075480e+01
4.128648e+02	-3.080451e+01
4.152495e+02	-3.085683e+01
4.176480e+02	-3.091420e+01
4.200603e+02	-3.096050e+01
4.224866e+02	-3.101107e+01
4.249268e+02	-3.105960e+01
4.273812e+02	-3.111102e+01
4.298497e+02	-3.116256e+01
4.323325e+02	-3.120749e+01
4.348297e+02	-3.125701e+01
4.373412e+02	-3.131008e+01
4.398673e+02	-3.136101e+01
4.424079e+02	-3.141071e+01
4.449633e+02	-3.146803e+01
4.475334e+02	-3.151352e+01
4.501183e+02	-3.156515e+01
4.527182e+02	-3.161416e+01
4.553330e+02	-3.165614e+01
4.579630e+02	-3.170930e+01
4.606082e+02	-3.175812e+01
4.632687e+02	-3.181661e+01
4.659445e+02	-3.186034e+01
4.686358e+02	-3.191464e+01
4.713426e+02	-3.196133e+01
4.740650e+02	-3.201200e+01
4.768032e+02	-3.206064e+01
4.795572e+02	-3.211252e+01
4.823271e+02	-3.216317e+01
4.851130e+02	-3.221477e+01
4.879150e+02	-3.225523e+01
4.907332e+02	-3.231678e+01
4.935676e+02	-3.236850e+01
4.964185e+02	-3.241036e+01
4.992858e+02	-3.246142e+01
5.021696e+02	-3.251671e+01
5.050701e+02	-3.256772e+01
5.079874e+02	-3.262564e+01
5.109215e+02	-3.266899e+01
5.138726e+02	-3.271938e+01
5.168407e+02	-3.276314e+01
5.198259e+02	-3.282014e+01
5.228284e+02	-3.286239e+01
5.258482e+02	-3.292190e+01
5.288855e+02	-3.296966e+01
5.319403e+02	-3.302197e+01
5.350128e+02	-3.307175e+01
5.381030e+02	-3.312159e+01
5.412111e+02	-3.316496e+01
5.443371e+02	-3.322095e+01
5.474812e+02	-3.327292e+01
5.506434e+02	-3.331884e+01
5.538239e+02	-3.337151e+01
5.570228e+02	-3.342211e+01
5.602401e+02	-3.346552e+01
5.634760e+02	-3.352507e+01
5.667306e+02	-3.357039e+01
5.700040e+02	-3.362959e+01
5.732964e+02	-3.367124e+01
5.766077e+02	-3.372011e+01
5.799382e+02	-3.377128e+01
5.832879e+02	-3.382685e+01
5.866569e+02	-3.387490e+01
5.900454e+02	-3.392652e+01
5.934535e+02	-3.398025e+01
5.968813e+02	-3.401440e+01
6.003288e+02	-3.407220e+01
6.037963e+02	-3.412320e+01
6.072838e+02	-3.417180e+01
6.107914e+02	-3.421760e+01
6.143194e+02	-3.426831e+01
6.178676e+02	-3.433237e+01
6.214364e+02	-3.437293e+01
6.250258e+02	-3.442514e+01
6.286359e+02	-3.447164e+01
6.322669e+02	-3.452903e+01
6.359189e+02	-3.458907e+01
6.395919e+02	-3.462664e+01
6.432862e+02	-3.467867e+01
6.470017e+02	-3.473629e+01
6.507388e+02	-3.477070e+01
6.544974e+02	-3.482525e+01
6.582778e+02	-3.488651e+01
6.620800e+02	-3.492359e+01
6.659041e+02	-3.498582e+01
6.697504e+02	-3.503809e+01
6.736188e+02	-3.508881e+01
6.775096e+02	-3.513547e+01
6.814229e+02	-3.517857e+01
6.853587e+02	-3.522755e+01
6.893173e+02	-3.527455e+01
6.932988e+02	-3.533369e+01
6.973033e+02	-3.537381e+01
7.013309e+02	-3.544043e+01
