Frequency(Hz)	Magnitude(dB)
1.000000e+01	-2.036304e+00
1.005776e+01	-2.055109e+00
1.011585e+01	-2.074130e+00
1.017428e+01	-2.093157e+00
1.023305e+01	-2.112208e+00
1.029215e+01	-2.131722e+00
1.035160e+01	-2.151298e+00
1.041139e+01	-2.170882e+00
1.047153e+01	-2.190534e+00
1.053201e+01	-2.210259e+00
1.059284e+01	-2.230574e+00
1.065403e+01	-2.250592e+00
1.071556e+01	-2.270853e+00
1.077746e+01	-2.291162e+00
1.083971e+01	-2.311766e+00
1.090232e+01	-2.332666e+00
1.096529e+01	-2.353431e+00
1.102862e+01	-2.374395e+00
1.109232e+01	-2.395482e+00
1.115639e+01	-2.416746e+00
1.122083e+01	-2.438292e+00
1.128564e+01	-2.459910e+00
1.135083e+01	-2.481556e+00
1.141639e+01	-2.503536e+00
1.148233e+01	-2.525372e+00
1.154865e+01	-2.547647e+00
1.161536e+01	-2.569712e+00
1.168245e+01	-2.592099e+00
1.174992e+01	-2.614534e+00
1.181779e+01	-2.637396e+00
1.188605e+01	-2.660189e+00
1.195470e+01	-2.683409e+00
1.202375e+01	-2.706370e+00
1.209320e+01	-2.729519e+00
1.216305e+01	-2.753334e+00
1.223330e+01	-2.776494e+00
1.230396e+01	-2.800383e+00
1.237503e+01	-2.824014e+00
1.244651e+01	-2.848306e+00
1.251840e+01	-2.872533e+00
1.259070e+01	-2.896750e+00
1.266343e+01	-2.920968e+00
1.273657e+01	-2.945621e+00
1.281014e+01	-2.970111e+00
1.288413e+01	-2.995043e+00
1.295855e+01	-3.020099e+00
1.303339e+01	-3.045340e+00
1.310867e+01	-3.070632e+00
1.318439e+01	-3.095896e+00
1.326054e+01	-3.121712e+00
1.333713e+01	-3.147453e+00
1.341417e+01	-3.173006e+00
1.349165e+01	-3.199383e+00
1.356958e+01	-3.225387e+00
1.364795e+01	-3.251513e+00
1.372678e+01	-3.278248e+00
1.380607e+01	-3.304842e+00
1.388581e+01	-3.331220e+00
1.396602e+01	-3.358281e+00
1.404668e+01	-3.385263e+00
1.412782e+01	-3.412103e+00
1.420942e+01	-3.439461e+00
1.429149e+01	-3.467025e+00
1.437404e+01	-3.494686e+00
1.445706e+01	-3.522403e+00
1.454057e+01	-3.550487e+00
1.462455e+01	-3.578078e+00
1.470902e+01	-3.606392e+00
1.479398e+01	-3.634721e+00
1.487943e+01	-3.663187e+00
1.496537e+01	-3.691690e+00
1.505181e+01	-3.720375e+00
1.513875e+01	-3.749433e+00
1.522619e+01	-3.778153e+00
1.531414e+01	-3.807538e+00
1.540259e+01	-3.836676e+00
1.549156e+01	-3.866393e+00
1.558103e+01	-3.895670e+00
1.567103e+01	-3.925525e+00
1.576155e+01	-3.955314e+00
1.585258e+01	-3.985137e+00
1.594415e+01	-4.015334e+00
1.603624e+01	-4.045595e+00
1.612886e+01	-4.075729e+00
1.622202e+01	-4.106443e+00
1.631572e+01	-4.137250e+00
1.640996e+01	-4.167861e+00
1.650474e+01	-4.198779e+00
1.660008e+01	-4.229913e+00
1.669596e+01	-4.260976e+00
1.679239e+01	-4.292433e+00
1.688938e+01	-4.323923e+00
1.698694e+01	-4.355656e+00
1.708505e+01	-4.387132e+00
1.718373e+01	-4.419378e+00
1.728299e+01	-4.451341e+00
1.738281e+01	-4.483389e+00
1.748322e+01	-4.515608e+00
1.758420e+01	-4.547730e+00
1.768576e+01	-4.580393e+00
1.778792e+01	-4.612970e+00
1.789066e+01	-4.646060e+00
1.799399e+01	-4.678999e+00
1.809793e+01	-4.712009e+00
1.820246e+01	-4.745385e+00
1.830760e+01	-4.778401e+00
1.841334e+01	-4.811873e+00
1.851969e+01	-4.845430e+00
1.862666e+01	-4.879257e+00
1.873425e+01	-4.912786e+00
1.884246e+01	-4.946875e+00
1.895129e+01	-4.980923e+00
1.906075e+01	-5.015088e+00
1.917085e+01	-5.049247e+00
1.928158e+01	-5.084106e+00
1.939295e+01	-5.118489e+00
1.950496e+01	-5.153285e+00
1.961762e+01	-5.188417e+00
1.973093e+01	-5.222881e+00
1.984490e+01	-5.258149e+00
1.995952e+01	-5.293265e+00
2.007480e+01	-5.328451e+00
2.019076e+01	-5.364201e+00
2.030738e+01	-5.399681e+00
2.042467e+01	-5.435130e+00
2.054264e+01	-5.471002e+00
2.066130e+01	-5.506855e+00
2.078064e+01	-5.542839e+00
2.090066e+01	-5.578859e+00
2.102139e+01	-5.615206e+00
2.114280e+01	-5.651570e+00
2.126492e+01	-5.688251e+00
2.138775e+01	-5.724792e+00
2.151128e+01	-5.761043e+00
2.163553e+01	-5.798084e+00
2.176050e+01	-5.834968e+00
2.188619e+01	-5.871829e+00
2.201260e+01	-5.909210e+00
2.213974e+01	-5.946317e+00
2.226762e+01	-5.983738e+00
2.239624e+01	-6.021093e+00
2.252560e+01	-6.058638e+00
2.265571e+01	-6.096608e+00
2.278656e+01	-6.133870e+00
2.291818e+01	-6.171882e+00
2.305055e+01	-6.210166e+00
2.318369e+01	-6.248322e+00
2.331760e+01	-6.286439e+00
2.345228e+01	-6.324898e+00
2.358774e+01	-6.363276e+00
2.372398e+01	-6.401673e+00
2.386101e+01	-6.440583e+00
2.399883e+01	-6.479078e+00
2.413745e+01	-6.517899e+00
2.427686e+01	-6.556954e+00
2.441709e+01	-6.595512e+00
2.455812e+01	-6.635108e+00
2.469997e+01	-6.674677e+00
2.484263e+01	-6.713599e+00
2.498612e+01	-6.753064e+00
2.513044e+01	-6.792390e+00
2.527559e+01	-6.832398e+00
2.542158e+01	-6.871664e+00
2.556842e+01	-6.911654e+00
2.571610e+01	-6.951376e+00
2.586463e+01	-6.991096e+00
2.601403e+01	-7.031456e+00
2.616428e+01	-7.071660e+00
2.631541e+01	-7.111825e+00
2.646740e+01	-7.152458e+00
2.662028e+01	-7.192835e+00
2.677404e+01	-7.233140e+00
2.692868e+01	-7.273830e+00
2.708422e+01	-7.314449e+00
2.724066e+01	-7.355274e+00
2.739800e+01	-7.396315e+00
2.755625e+01	-7.437095e+00
2.771541e+01	-7.478130e+00
2.787550e+01	-7.519098e+00
2.803650e+01	-7.560466e+00
2.819844e+01	-7.601628e+00
2.836131e+01	-7.643082e+00
2.852513e+01	-7.684707e+00
2.868989e+01	-7.725994e+00
2.885560e+01	-7.767952e+00
2.902227e+01	-7.809568e+00
2.918990e+01	-7.851130e+00
2.935850e+01	-7.893131e+00
2.952807e+01	-7.935210e+00
2.969863e+01	-7.976953e+00
2.987016e+01	-8.019211e+00
3.004269e+01	-8.060961e+00
3.021622e+01	-8.103527e+00
3.039075e+01	-8.145872e+00
3.056628e+01	-8.188378e+00
3.074283e+01	-8.230874e+00
3.092040e+01	-8.273571e+00
3.109900e+01	-8.315674e+00
3.127862e+01	-8.358515e+00
3.145929e+01	-8.401217e+00
3.164099e+01	-8.444131e+00
3.182375e+01	-8.487037e+00
3.200756e+01	-8.529905e+00
3.219244e+01	-8.572935e+00
3.237838e+01	-8.615825e+00
3.256540e+01	-8.659537e+00
3.275349e+01	-8.702418e+00
3.294268e+01	-8.746044e+00
3.313295e+01	-8.788954e+00
3.332433e+01	-8.832627e+00
3.351681e+01	-8.876545e+00
3.371040e+01	-8.919951e+00
3.390511e+01	-8.964144e+00
3.410094e+01	-9.007459e+00
3.429791e+01	-9.051199e+00
3.449601e+01	-9.094515e+00
3.469526e+01	-9.138545e+00
3.489566e+01	-9.182471e+00
3.509721e+01	-9.226467e+00
3.529993e+01	-9.270542e+00
3.550382e+01	-9.315000e+00
3.570889e+01	-9.359101e+00
3.591515e+01	-9.403560e+00
3.612259e+01	-9.447422e+00
3.633123e+01	-9.491822e+00
3.654108e+01	-9.536253e+00
3.675214e+01	-9.581016e+00
3.696442e+01	-9.626021e+00
3.717792e+01	-9.670375e+00
3.739266e+01	-9.715098e+00
3.760864e+01	-9.759751e+00
3.782587e+01	-9.804956e+00
3.804435e+01	-9.849080e+00
3.826409e+01	-9.893775e+00
3.848510e+01	-9.939065e+00
3.870739e+01	-9.983806e+00
3.893096e+01	-1.002887e+01
3.915583e+01	-1.007403e+01
3.938199e+01	-1.011905e+01
3.960946e+01	-1.016421e+01
3.983824e+01	-1.020966e+01
4.006834e+01	-1.025462e+01
4.029978e+01	-1.030016e+01
4.053255e+01	-1.034544e+01
4.076666e+01	-1.039103e+01
4.100213e+01	-1.043660e+01
4.123896e+01	-1.048218e+01
4.147715e+01	-1.052817e+01
4.171672e+01	-1.057331e+01
4.195767e+01	-1.061917e+01
4.220002e+01	-1.066468e+01
4.244377e+01	-1.071045e+01
4.268892e+01	-1.075599e+01
4.293549e+01	-1.080137e+01
4.318348e+01	-1.084781e+01
4.343291e+01	-1.089380e+01
4.368377e+01	-1.093985e+01
4.393609e+01	-1.098543e+01
4.418986e+01	-1.103237e+01
4.444510e+01	-1.107768e+01
4.470182e+01	-1.112361e+01
4.496001e+01	-1.117017e+01
4.521970e+01	-1.121629e+01
4.548089e+01	-1.126290e+01
4.574358e+01	-1.130876e+01
4.600779e+01	-1.135541e+01
4.627353e+01	-1.140111e+01
4.654081e+01	-1.144837e+01
4.680963e+01	-1.149455e+01
4.708000e+01	-1.154061e+01
4.735193e+01	-1.158757e+01
4.762543e+01	-1.163415e+01
4.790051e+01	-1.168100e+01
4.817719e+01	-1.172754e+01
4.845545e+01	-1.177484e+01
4.873533e+01	-1.182090e+01
4.901682e+01	-1.186841e+01
4.929994e+01	-1.191436e+01
4.958470e+01	-1.196088e+01
4.987110e+01	-1.200811e+01
5.015915e+01	-1.205464e+01
5.044887e+01	-1.210201e+01
5.074026e+01	-1.214879e+01
5.103333e+01	-1.219635e+01
5.132810e+01	-1.224323e+01
5.162457e+01	-1.228909e+01
5.192275e+01	-1.233709e+01
5.222265e+01	-1.238387e+01
5.252429e+01	-1.243106e+01
5.282767e+01	-1.247845e+01
5.313280e+01	-1.252612e+01
5.343969e+01	-1.257271e+01
5.374836e+01	-1.261997e+01
5.405880e+01	-1.266727e+01
5.437105e+01	-1.271499e+01
5.468509e+01	-1.276257e+01
5.500095e+01	-1.280966e+01
5.531863e+01	-1.285758e+01
5.563815e+01	-1.290445e+01
5.595951e+01	-1.295259e+01
5.628273e+01	-1.300017e+01
5.660782e+01	-1.304656e+01
5.693479e+01	-1.309503e+01
5.726364e+01	-1.314226e+01
5.759439e+01	-1.318884e+01
5.792705e+01	-1.323750e+01
5.826164e+01	-1.328581e+01
5.859815e+01	-1.333260e+01
5.893662e+01	-1.338043e+01
5.927703e+01	-1.342841e+01
5.961941e+01	-1.347611e+01
5.996377e+01	-1.352451e+01
6.031012e+01	-1.357132e+01
6.065847e+01	-1.361954e+01
6.100883e+01	-1.366794e+01
6.136121e+01	-1.371515e+01
6.171563e+01	-1.376274e+01
6.207210e+01	-1.381141e+01
6.243063e+01	-1.385886e+01
6.279122e+01	-1.390712e+01
6.315390e+01	-1.395510e+01
6.351868e+01	-1.400226e+01
6.388556e+01	-1.405041e+01
6.425456e+01	-1.409976e+01
6.462569e+01	-1.414753e+01
6.499897e+01	-1.419471e+01
6.537440e+01	-1.424362e+01
6.575200e+01	-1.429189e+01
6.613178e+01	-1.433970e+01
6.651375e+01	-1.438857e+01
6.689793e+01	-1.443645e+01
6.728433e+01	-1.448467e+01
6.767297e+01	-1.453321e+01
6.806384e+01	-1.458087e+01
6.845698e+01	-1.462944e+01
6.885238e+01	-1.467684e+01
6.925007e+01	-1.472610e+01
6.965005e+01	-1.477495e+01
7.005235e+01	-1.482192e+01
7.045697e+01	-1.487072e+01
7.086393e+01	-1.492018e+01
7.127323e+01	-1.496754e+01
7.168490e+01	-1.501589e+01
7.209895e+01	-1.506478e+01
7.251539e+01	-1.511356e+01
7.293424e+01	-1.516170e+01
7.335551e+01	-1.521027e+01
7.377920e+01	-1.526009e+01
7.420535e+01	-1.530675e+01
7.463396e+01	-1.535560e+01
7.506504e+01	-1.540480e+01
7.549861e+01	-1.545346e+01
7.593469e+01	-1.550219e+01
7.637328e+01	-1.555127e+01
7.681441e+01	-1.559924e+01
7.725809e+01	-1.564768e+01
7.770433e+01	-1.569715e+01
7.815315e+01	-1.574520e+01
7.860456e+01	-1.579365e+01
7.905857e+01	-1.584259e+01
7.951521e+01	-1.589168e+01
7.997449e+01	-1.594049e+01
8.043642e+01	-1.598853e+01
8.090102e+01	-1.603787e+01
8.136830e+01	-1.608497e+01
8.183828e+01	-1.613515e+01
8.231097e+01	-1.618334e+01
8.278640e+01	-1.623278e+01
8.326457e+01	-1.628071e+01
8.374550e+01	-1.633071e+01
8.422921e+01	-1.638055e+01
8.471572e+01	-1.642727e+01
8.520503e+01	-1.647792e+01
8.569717e+01	-1.652549e+01
8.619215e+01	-1.657396e+01
8.669000e+01	-1.662333e+01
8.719071e+01	-1.667309e+01
8.769432e+01	-1.672205e+01
8.820084e+01	-1.677162e+01
8.871029e+01	-1.681937e+01
8.922267e+01	-1.686931e+01
8.973802e+01	-1.691780e+01
9.025634e+01	-1.696544e+01
9.077766e+01	-1.701521e+01
9.130199e+01	-1.706599e+01
9.182935e+01	-1.711324e+01
9.235975e+01	-1.716329e+01
9.289321e+01	-1.721134e+01
9.342976e+01	-1.726087e+01
9.396941e+01	-1.731114e+01
9.451217e+01	-1.735835e+01
9.505807e+01	-1.740787e+01
9.560712e+01	-1.745869e+01
9.615934e+01	-1.750781e+01
9.671476e+01	-1.755480e+01
9.727338e+01	-1.760553e+01
9.783522e+01	-1.765369e+01
9.840032e+01	-1.770362e+01
9.896867e+01	-1.775227e+01
9.954031e+01	-1.780235e+01
1.001153e+02	-1.784995e+01
1.006935e+02	-1.789985e+01
1.012751e+02	-1.794953e+01
1.018601e+02	-1.799746e+01
1.024484e+02	-1.804713e+01
1.030402e+02	-1.809777e+01
1.036353e+02	-1.814721e+01
1.042339e+02	-1.819579e+01
1.048360e+02	-1.824521e+01
1.054415e+02	-1.829386e+01
1.060505e+02	-1.834360e+01
1.066631e+02	-1.839250e+01
1.072791e+02	-1.844234e+01
1.078988e+02	-1.849134e+01
1.085220e+02	-1.854131e+01
1.091488e+02	-1.858953e+01
1.097793e+02	-1.863869e+01
1.104133e+02	-1.868757e+01
1.110511e+02	-1.873849e+01
1.116925e+02	-1.878760e+01
1.123376e+02	-1.883696e+01
1.129865e+02	-1.888453e+01
1.136391e+02	-1.893488e+01
1.142955e+02	-1.898703e+01
1.149556e+02	-1.903458e+01
1.156196e+02	-1.908336e+01
1.162874e+02	-1.913316e+01
1.169591e+02	-1.918091e+01
1.176347e+02	-1.923246e+01
1.183141e+02	-1.928385e+01
1.189975e+02	-1.933123e+01
1.196848e+02	-1.938046e+01
1.203761e+02	-1.942952e+01
1.210714e+02	-1.947820e+01
1.217707e+02	-1.952805e+01
1.224740e+02	-1.957991e+01
1.231814e+02	-1.963018e+01
1.238929e+02	-1.967907e+01
1.246085e+02	-1.972734e+01
1.253283e+02	-1.977750e+01
1.260522e+02	-1.982273e+01
1.267802e+02	-1.987534e+01
1.275125e+02	-1.992524e+01
1.282490e+02	-1.997394e+01
1.289898e+02	-2.002320e+01
1.297348e+02	-2.007300e+01
1.304842e+02	-2.012340e+01
1.312378e+02	-2.017213e+01
1.319959e+02	-2.022366e+01
1.327583e+02	-2.027105e+01
1.335251e+02	-2.031997e+01
1.342963e+02	-2.037059e+01
1.350720e+02	-2.041947e+01
1.358522e+02	-2.047112e+01
1.366368e+02	-2.051837e+01
1.374260e+02	-2.056915e+01
1.382198e+02	-2.061932e+01
1.390182e+02	-2.066727e+01
1.398211e+02	-2.071767e+01
1.406287e+02	-2.076717e+01
1.414410e+02	-2.081874e+01
1.422579e+02	-2.086739e+01
1.430796e+02	-2.091682e+01
1.439060e+02	-2.096509e+01
1.447372e+02	-2.101725e+01
1.455732e+02	-2.106552e+01
1.464141e+02	-2.111390e+01
1.472597e+02	-2.116490e+01
1.481103e+02	-2.121513e+01
1.489658e+02	-2.126422e+01
1.498262e+02	-2.131187e+01
1.506916e+02	-2.136580e+01
1.515620e+02	-2.141344e+01
1.524374e+02	-2.146242e+01
1.533179e+02	-2.151374e+01
1.542034e+02	-2.156372e+01
1.550941e+02	-2.161350e+01
1.559899e+02	-2.166372e+01
1.568909e+02	-2.171233e+01
1.577971e+02	-2.176183e+01
1.587085e+02	-2.181031e+01
1.596252e+02	-2.185920e+01
1.605472e+02	-2.190983e+01
1.614745e+02	-2.195823e+01
1.624072e+02	-2.201018e+01
1.633453e+02	-2.206039e+01
1.642887e+02	-2.210989e+01
1.652377e+02	-2.215732e+01
1.661921e+02	-2.221066e+01
1.671520e+02	-2.225831e+01
1.681175e+02	-2.230763e+01
1.690885e+02	-2.235978e+01
1.700651e+02	-2.240773e+01
1.710474e+02	-2.245921e+01
1.720354e+02	-2.250913e+01
1.730291e+02	-2.255722e+01
1.740285e+02	-2.260722e+01
1.750337e+02	-2.265643e+01
1.760446e+02	-2.270822e+01
1.770615e+02	-2.275692e+01
1.780842e+02	-2.280539e+01
1.791128e+02	-2.285734e+01
1.801473e+02	-2.290403e+01
1.811878e+02	-2.295590e+01
1.822344e+02	-2.300449e+01
1.832870e+02	-2.305543e+01
1.843456e+02	-2.310593e+01
1.854104e+02	-2.315434e+01
1.864813e+02	-2.320571e+01
1.875584e+02	-2.325614e+01
1.886418e+02	-2.330370e+01
1.897313e+02	-2.335318e+01
1.908272e+02	-2.340280e+01
1.919294e+02	-2.345363e+01
1.930380e+02	-2.350205e+01
1.941530e+02	-2.355351e+01
1.952744e+02	-2.360300e+01
1.964023e+02	-2.365567e+01
1.975367e+02	-2.370362e+01
1.986777e+02	-2.374968e+01
1.998252e+02	-2.380365e+01
2.009794e+02	-2.385252e+01
2.021403e+02	-2.390176e+01
2.033078e+02	-2.395249e+01
2.044821e+02	-2.400287e+01
2.056632e+02	-2.405237e+01
2.068511e+02	-2.410095e+01
2.080459e+02	-2.415209e+01
2.092475e+02	-2.420020e+01
2.104561e+02	-2.424923e+01
2.116717e+02	-2.430130e+01
2.128943e+02	-2.435099e+01
2.141240e+02	-2.440146e+01
2.153608e+02	-2.445185e+01
2.166047e+02	-2.449906e+01
2.178558e+02	-2.454960e+01
2.191141e+02	-2.459938e+01
2.203797e+02	-2.464953e+01
2.216526e+02	-2.470020e+01
2.229329e+02	-2.475101e+01
2.242205e+02	-2.479980e+01
2.255156e+02	-2.485159e+01
2.268182e+02	-2.489898e+01
2.281283e+02	-2.494953e+01
2.294459e+02	-2.500125e+01
2.307712e+02	-2.504943e+01
2.321041e+02	-2.509950e+01
2.334447e+02	-2.515083e+01
2.347931e+02	-2.519786e+01
2.361493e+02	-2.524587e+01
2.375133e+02	-2.529939e+01
2.388851e+02	-2.534985e+01
2.402649e+02	-2.539941e+01
2.416527e+02	-2.545101e+01
2.430484e+02	-2.549907e+01
2.444523e+02	-2.554941e+01
2.458642e+02	-2.559861e+01
2.472843e+02	-2.564900e+01
2.487126e+02	-2.569856e+01
2.501492e+02	-2.574665e+01
2.515940e+02	-2.579614e+01
2.530472e+02	-2.585068e+01
2.545088e+02	-2.589826e+01
2.559789e+02	-2.594702e+01
2.574574e+02	-2.599764e+01
2.589444e+02	-2.605075e+01
2.604401e+02	-2.609774e+01
2.619444e+02	-2.614834e+01
2.634574e+02	-2.619889e+01
2.649791e+02	-2.624956e+01
2.665096e+02	-2.629494e+01
2.680489e+02	-2.634861e+01
2.695972e+02	-2.639715e+01
2.711544e+02	-2.644498e+01
2.727205e+02	-2.649730e+01
2.742958e+02	-2.654977e+01
2.758801e+02	-2.659806e+01
2.774736e+02	-2.664824e+01
2.790762e+02	-2.669888e+01
2.806882e+02	-2.674868e+01
2.823094e+02	-2.679819e+01
2.839400e+02	-2.684979e+01
2.855800e+02	-2.689765e+01
2.872295e+02	-2.695095e+01
2.888886e+02	-2.699470e+01
2.905572e+02	-2.704538e+01
2.922354e+02	-2.709941e+01
2.939234e+02	-2.714689e+01
2.956211e+02	-2.719395e+01
2.973286e+02	-2.724962e+01
2.990459e+02	-2.729564e+01
3.007732e+02	-2.734922e+01
3.025104e+02	-2.739972e+01
3.042577e+02	-2.744802e+01
3.060151e+02	-2.749729e+01
3.077826e+02	-2.754766e+01
3.095604e+02	-2.759609e+01
3.113484e+02	-2.764335e+01
3.131467e+02	-2.769295e+01
3.149554e+02	-2.774597e+01
3.167746e+02	-2.779451e+01
3.186043e+02	-2.784948e+01
3.204445e+02	-2.789457e+01
3.222954e+02	-2.795098e+01
3.241570e+02	-2.800203e+01
3.260293e+02	-2.804729e+01
3.279124e+02	-2.809429e+01
3.298064e+02	-2.814934e+01
3.317114e+02	-2.819659e+01
3.336273e+02	-2.825020e+01
3.355544e+02	-2.830206e+01
3.374925e+02	-2.834579e+01
3.394418e+02	-2.839800e+01
3.414024e+02	-2.844517e+01
3.433744e+02	-2.849719e+01
3.453577e+02	-2.854852e+01
3.473525e+02	-2.860307e+01
3.493588e+02	-2.865189e+01
3.513766e+02	-2.869809e+01
3.534062e+02	-2.874897e+01
3.554474e+02	-2.880073e+01
3.575005e+02	-2.884340e+01
3.595654e+02	-2.889586e+01
3.616422e+02	-2.895197e+01
3.637311e+02	-2.899681e+01
3.658320e+02	-2.904677e+01
3.679450e+02	-2.909827e+01
3.700702e+02	-2.914879e+01
3.722077e+02	-2.920402e+01
3.743576e+02	-2.924962e+01
3.765199e+02	-2.929515e+01
3.786946e+02	-2.934890e+01
3.808820e+02	-2.939815e+01
3.830819e+02	-2.944837e+01
3.852946e+02	-2.950255e+01
3.875200e+02	-2.955078e+01
3.897583e+02	-2.960352e+01
3.920096e+02	-2.965691e+01
3.942738e+02	-2.969495e+01
3.965511e+02	-2.974666e+01
3.988416e+02	-2.980377e+01
4.011452e+02	-2.985106e+01
4.034622e+02	-2.990063e+01
4.057926e+02	-2.995666e+01
4.081365e+02	-2.999822e+01
4.104938e+02	-3.005182e+01
4.128648e+02	-3.009912e+01
4.152495e+02	-3.015080e+01
4.176480e+02	-3.020302e+01
4.200603e+02	-3.025055e+01
4.224866e+02	-3.030018e+01
4.249268e+02	-3.035529e+01
4.273812e+02	-3.039620e+01
4.298497e+02	-3.045036e+01
4.323325e+02	-3.049956e+01
4.348297e+02	-3.054653e+01
4.373412e+02	-3.060243e+01
4.398673e+02	-3.065450e+01
4.424079e+02	-3.070284e+01
4.449633e+02	-3.075046e+01
4.475334e+02	-3.080194e+01
4.501183e+02	-3.085297e+01
4.527182e+02	-3.090567e+01
4.553330e+02	-3.095368e+01
4.579630e+02	-3.100528e+01
4.606082e+02	-3.105167e+01
4.632687e+02	-3.110659e+01
4.659445e+02	-3.115330e+01
4.686358e+02	-3.119956e+01
4.713426e+02	-3.125488e+01
4.740650e+02	-3.130520e+01
4.768032e+02	-3.135496e+01
4.795572e+02	-3.140542e+01
4.823271e+02	-3.145727e+01
4.851130e+02	-3.151033e+01
4.879150e+02	-3.155245e+01
4.907332e+02	-3.160204e+01
4.935676e+02	-3.165967e+01
4.964185e+02	-3.170507e+01
4.992858e+02	-3.175583e+01
5.021696e+02	-3.180353e+01
5.050701e+02	-3.186178e+01
5.079874e+02	-3.190742e+01
5.109215e+02	-3.195803e+01
5.138726e+02	-3.199988e+01
5.168407e+02	-3.205670e+01
5.198259e+02	-3.210444e+01
5.228284e+02	-3.216036e+01
5.258482e+02	-3.220654e+01
5.288855e+02	-3.225901e+01
5.319403e+02	-3.230361e+01
5.350128e+02	-3.235981e+01
5.381030e+02	-3.241492e+01
5.412111e+02	-3.245941e+01
5.443371e+02	-3.250803e+01
5.474812e+02	-3.256028e+01
5.506434e+02	-3.260527e+01
5.538239e+02	-3.265934e+01
5.570228e+02	-3.270697e+01
5.602401e+02	-3.275780e+01
5.634760e+02	-3.280945e+01
5.667306e+02	-3.285554e+01
5.700040e+02	-3.290987e+01
5.732964e+02	-3.295810e+01
5.766077e+02	-3.301149e+01
5.799382e+02	-3.306147e+01
5.832879e+02	-3.310786e+01
5.866569e+02	-3.315947e+01
5.900454e+02	-3.321268e+01
5.934535e+02	-3.325737e+01
5.968813e+02	-3.331348e+01
6.003288e+02	-3.336871e+01
6.037963e+02	-3.342002e+01
6.072838e+02	-3.346128e+01
6.107914e+02	-3.351730e+01
6.143194e+02	-3.356265e+01
6.178676e+02	-3.360822e+01
6.214364e+02	-3.366201e+01
6.250258e+02	-3.371605e+01
6.286359e+02	-3.377211e+01
6.322669e+02	-3.381384e+01
6.359189e+02	-3.386961e+01
6.395919e+02	-3.392452e+01
6.432862e+02	-3.397826e+01
6.470017e+02	-3.401782e+01
6.507388e+02	-3.406926e+01
6.544974e+02	-3.411668e+01
6.582778e+02	-3.416796e+01
6.620800e+02	-3.421982e+01
6.659041e+02	-3.426480e+01
6.697504e+02	-3.432044e+01
6.736188e+02	-3.435716e+01
6.775096e+02	-3.441373e+01
6.814229e+02	-3.447695e+01
6.853587e+02	-3.453039e+01
6.893173e+02	-3.457314e+01
6.932988e+02	-3.460894e+01
6.973033e+02	-3.466902e+01
7.013309e+02	-3.472152e+01
