Frequency(Hz)	Magnitude(dB)
1.000000e+01	-1.636398e-05
1.005776e+01	-1.655356e-05
1.011585e+01	-1.674534e-05
1.017428e+01	-1.693934e-05
1.023305e+01	-1.713558e-05
1.029215e+01	-1.733410e-05
1.035160e+01	-1.753492e-05
1.041139e+01	-1.773807e-05
1.047153e+01	-1.794357e-05
1.053201e+01	-1.815145e-05
1.059284e+01	-1.836174e-05
1.065403e+01	-1.857446e-05
1.071556e+01	-1.878965e-05
1.077746e+01	-1.900734e-05
1.083971e+01	-1.922754e-05
1.090232e+01	-1.945030e-05
1.096529e+01	-1.967563e-05
1.102862e+01	-1.990358e-05
1.109232e+01	-2.013417e-05
1.115639e+01	-2.036743e-05
1.122083e+01	-2.060339e-05
1.128564e+01	-2.084209e-05
1.135083e+01	-2.108355e-05
1.141639e+01	-2.132781e-05
1.148233e+01	-2.157489e-05
1.154865e+01	-2.182484e-05
1.161536e+01	-2.207769e-05
1.168245e+01	-2.233347e-05
1.174992e+01	-2.259220e-05
1.181779e+01	-2.285394e-05
1.188605e+01	-2.311871e-05
1.195470e+01	-2.338655e-05
1.202375e+01	-2.365748e-05
1.209320e+01	-2.393156e-05
1.216305e+01	-2.420882e-05
1.223330e+01	-2.448928e-05
1.230396e+01	-2.477300e-05
1.237503e+01	-2.506000e-05
1.244651e+01	-2.535032e-05
1.251840e+01	-2.564401e-05
1.259070e+01	-2.594110e-05
1.266343e+01	-2.624164e-05
1.273657e+01	-2.654565e-05
1.281014e+01	-2.685319e-05
1.288413e+01	-2.716429e-05
1.295855e+01	-2.747900e-05
1.303339e+01	-2.779735e-05
1.310867e+01	-2.811939e-05
1.318439e+01	-2.844516e-05
1.326054e+01	-2.877470e-05
1.333713e+01	-2.910806e-05
1.341417e+01	-2.944529e-05
1.349165e+01	-2.978642e-05
1.356958e+01	-3.013150e-05
1.364795e+01	-3.048058e-05
1.372678e+01	-3.083371e-05
1.380607e+01	-3.119092e-05
1.388581e+01	-3.155228e-05
1.396602e+01	-3.191782e-05
1.404668e+01	-3.228759e-05
1.412782e+01	-3.266165e-05
1.420942e+01	-3.304004e-05
1.429149e+01	-3.342282e-05
1.437404e+01	-3.381003e-05
1.445706e+01	-3.420173e-05
1.454057e+01	-3.459796e-05
1.462455e+01	-3.499879e-05
1.470902e+01	-3.540426e-05
1.479398e+01	-3.581443e-05
1.487943e+01	-3.622934e-05
1.496537e+01	-3.664907e-05
1.505181e+01	-3.707366e-05
1.513875e+01	-3.750316e-05
1.522619e+01	-3.793765e-05
1.531414e+01	-3.837716e-05
1.540259e+01	-3.882177e-05
1.549156e+01	-3.927153e-05
1.558103e+01	-3.972650e-05
1.567103e+01	-4.018674e-05
1.576155e+01	-4.065231e-05
1.585258e+01	-4.112328e-05
1.594415e+01	-4.159970e-05
1.603624e+01	-4.208164e-05
1.612886e+01	-4.256917e-05
1.622202e+01	-4.306234e-05
1.631572e+01	-4.356123e-05
1.640996e+01	-4.406590e-05
1.650474e+01	-4.457641e-05
1.660008e+01	-4.509284e-05
1.669596e+01	-4.561525e-05
1.679239e+01	-4.614371e-05
1.688938e+01	-4.667829e-05
1.698694e+01	-4.721907e-05
1.708505e+01	-4.776612e-05
1.718373e+01	-4.831950e-05
1.728299e+01	-4.887929e-05
1.738281e+01	-4.944557e-05
1.748322e+01	-5.001840e-05
1.758420e+01	-5.059788e-05
1.768576e+01	-5.118406e-05
1.778792e+01	-5.177704e-05
1.789066e+01	-5.237689e-05
1.799399e+01	-5.298369e-05
1.809793e+01	-5.359751e-05
1.820246e+01	-5.421845e-05
1.830760e+01	-5.484658e-05
1.841334e+01	-5.548199e-05
1.851969e+01	-5.612476e-05
1.862666e+01	-5.677498e-05
1.873425e+01	-5.743273e-05
1.884246e+01	-5.809810e-05
1.895129e+01	-5.877118e-05
1.906075e+01	-5.945205e-05
1.917085e+01	-6.014082e-05
1.928158e+01	-6.083756e-05
1.939295e+01	-6.154238e-05
1.950496e+01	-6.225536e-05
1.961762e+01	-6.297660e-05
1.973093e+01	-6.370619e-05
1.984490e+01	-6.444424e-05
1.995952e+01	-6.519084e-05
2.007480e+01	-6.594609e-05
2.019076e+01	-6.671009e-05
2.030738e+01	-6.748294e-05
2.042467e+01	-6.826474e-05
2.054264e+01	-6.905560e-05
2.066130e+01	-6.985562e-05
2.078064e+01	-7.066491e-05
2.090066e+01	-7.148358e-05
2.102139e+01	-7.231173e-05
2.114280e+01	-7.314947e-05
2.126492e+01	-7.399692e-05
2.138775e+01	-7.485419e-05
2.151128e+01	-7.572139e-05
2.163553e+01	-7.659863e-05
2.176050e+01	-7.748604e-05
2.188619e+01	-7.838373e-05
2.201260e+01	-7.929182e-05
2.213974e+01	-8.021043e-05
2.226762e+01	-8.113968e-05
2.239624e+01	-8.207970e-05
2.252560e+01	-8.303061e-05
2.265571e+01	-8.399253e-05
2.278656e+01	-8.496560e-05
2.291818e+01	-8.594994e-05
2.305055e+01	-8.694568e-05
2.318369e+01	-8.795296e-05
2.331760e+01	-8.897191e-05
2.345228e+01	-9.000267e-05
2.358774e+01	-9.104536e-05
2.372398e+01	-9.210013e-05
2.386101e+01	-9.316713e-05
2.399883e+01	-9.424648e-05
2.413745e+01	-9.533834e-05
2.427686e+01	-9.644285e-05
2.441709e+01	-9.756016e-05
2.455812e+01	-9.869041e-05
2.469997e+01	-9.983375e-05
2.484263e+01	-1.009903e-04
2.498612e+01	-1.021603e-04
2.513044e+01	-1.033439e-04
2.527559e+01	-1.045411e-04
2.542158e+01	-1.057522e-04
2.556842e+01	-1.069774e-04
2.571610e+01	-1.082167e-04
2.586463e+01	-1.094705e-04
2.601403e+01	-1.107387e-04
2.616428e+01	-1.120216e-04
2.631541e+01	-1.133194e-04
2.646740e+01	-1.146322e-04
2.662028e+01	-1.159602e-04
2.677404e+01	-1.173036e-04
2.692868e+01	-1.186626e-04
2.708422e+01	-1.200373e-04
2.724066e+01	-1.214280e-04
2.739800e+01	-1.228348e-04
2.755625e+01	-1.242578e-04
2.771541e+01	-1.256973e-04
2.787550e+01	-1.271536e-04
2.803650e+01	-1.286267e-04
2.819844e+01	-1.301168e-04
2.836131e+01	-1.316242e-04
2.852513e+01	-1.331491e-04
2.868989e+01	-1.346916e-04
2.885560e+01	-1.362521e-04
2.902227e+01	-1.378306e-04
2.918990e+01	-1.394273e-04
2.935850e+01	-1.410426e-04
2.952807e+01	-1.426766e-04
2.969863e+01	-1.443295e-04
2.987016e+01	-1.460016e-04
3.004269e+01	-1.476930e-04
3.021622e+01	-1.494041e-04
3.039075e+01	-1.511349e-04
3.056628e+01	-1.528858e-04
3.074283e+01	-1.546570e-04
3.092040e+01	-1.564487e-04
3.109900e+01	-1.582612e-04
3.127862e+01	-1.600947e-04
3.145929e+01	-1.619494e-04
3.164099e+01	-1.638256e-04
3.182375e+01	-1.657235e-04
3.200756e+01	-1.676434e-04
3.219244e+01	-1.695856e-04
3.237838e+01	-1.715502e-04
3.256540e+01	-1.735377e-04
3.275349e+01	-1.755481e-04
3.294268e+01	-1.775818e-04
3.313295e+01	-1.796391e-04
3.332433e+01	-1.817203e-04
3.351681e+01	-1.838255e-04
3.371040e+01	-1.859551e-04
3.390511e+01	-1.881094e-04
3.410094e+01	-1.902887e-04
3.429791e+01	-1.924932e-04
3.449601e+01	-1.947232e-04
3.469526e+01	-1.969791e-04
3.489566e+01	-1.992611e-04
3.509721e+01	-2.015695e-04
3.529993e+01	-2.039047e-04
3.550382e+01	-2.062669e-04
3.570889e+01	-2.086565e-04
3.591515e+01	-2.110738e-04
3.612259e+01	-2.135191e-04
3.633123e+01	-2.159927e-04
3.654108e+01	-2.184950e-04
3.675214e+01	-2.210263e-04
3.696442e+01	-2.235868e-04
3.717792e+01	-2.261771e-04
3.739266e+01	-2.287973e-04
3.760864e+01	-2.314480e-04
3.782587e+01	-2.341293e-04
3.804435e+01	-2.368417e-04
3.826409e+01	-2.395855e-04
3.848510e+01	-2.423610e-04
3.870739e+01	-2.451688e-04
3.893096e+01	-2.480091e-04
3.915583e+01	-2.508822e-04
3.938199e+01	-2.537887e-04
3.960946e+01	-2.567288e-04
3.983824e+01	-2.597030e-04
4.006834e+01	-2.627116e-04
4.029978e+01	-2.657551e-04
4.053255e+01	-2.688339e-04
4.076666e+01	-2.719483e-04
4.100213e+01	-2.750988e-04
4.123896e+01	-2.782858e-04
4.147715e+01	-2.815097e-04
4.171672e+01	-2.847710e-04
4.195767e+01	-2.880700e-04
4.220002e+01	-2.914073e-04
4.244377e+01	-2.947832e-04
4.268892e+01	-2.981982e-04
4.293549e+01	-3.016528e-04
4.318348e+01	-3.051474e-04
4.343291e+01	-3.086825e-04
4.368377e+01	-3.122585e-04
4.393609e+01	-3.158760e-04
4.418986e+01	-3.195354e-04
4.444510e+01	-3.232372e-04
4.470182e+01	-3.269818e-04
4.496001e+01	-3.307698e-04
4.521970e+01	-3.346017e-04
4.548089e+01	-3.384781e-04
4.574358e+01	-3.423993e-04
4.600779e+01	-3.463659e-04
4.627353e+01	-3.503785e-04
4.654081e+01	-3.544375e-04
4.680963e+01	-3.585436e-04
4.708000e+01	-3.626973e-04
4.735193e+01	-3.668991e-04
4.762543e+01	-3.711495e-04
4.790051e+01	-3.754492e-04
4.817719e+01	-3.797987e-04
4.845545e+01	-3.841986e-04
4.873533e+01	-3.886494e-04
4.901682e+01	-3.931518e-04
4.929994e+01	-3.977064e-04
4.958470e+01	-4.023137e-04
4.987110e+01	-4.069744e-04
5.015915e+01	-4.116891e-04
5.044887e+01	-4.164584e-04
5.074026e+01	-4.212829e-04
5.103333e+01	-4.261634e-04
5.132810e+01	-4.311004e-04
5.162457e+01	-4.360945e-04
5.192275e+01	-4.411465e-04
5.222265e+01	-4.462571e-04
5.252429e+01	-4.514268e-04
5.282767e+01	-4.566565e-04
5.313280e+01	-4.619467e-04
5.343969e+01	-4.672982e-04
5.374836e+01	-4.727116e-04
5.405880e+01	-4.781878e-04
5.437105e+01	-4.837275e-04
5.468509e+01	-4.893313e-04
5.500095e+01	-4.950000e-04
5.531863e+01	-5.007344e-04
5.563815e+01	-5.065352e-04
5.595951e+01	-5.124032e-04
5.628273e+01	-5.183391e-04
5.660782e+01	-5.243439e-04
5.693479e+01	-5.304182e-04
5.726364e+01	-5.365628e-04
5.759439e+01	-5.427787e-04
5.792705e+01	-5.490665e-04
5.826164e+01	-5.554272e-04
5.859815e+01	-5.618616e-04
5.893662e+01	-5.683705e-04
5.927703e+01	-5.749548e-04
5.961941e+01	-5.816153e-04
5.996377e+01	-5.883530e-04
6.031012e+01	-5.951688e-04
6.065847e+01	-6.020635e-04
6.100883e+01	-6.090381e-04
6.136121e+01	-6.160935e-04
6.171563e+01	-6.232306e-04
6.207210e+01	-6.304504e-04
6.243063e+01	-6.377538e-04
6.279122e+01	-6.451418e-04
6.315390e+01	-6.526153e-04
6.351868e+01	-6.601755e-04
6.388556e+01	-6.678232e-04
6.425456e+01	-6.755595e-04
6.462569e+01	-6.833855e-04
6.499897e+01	-6.913020e-04
6.537440e+01	-6.993103e-04
6.575200e+01	-7.074114e-04
6.613178e+01	-7.156062e-04
6.651375e+01	-7.238961e-04
6.689793e+01	-7.322819e-04
6.728433e+01	-7.407648e-04
6.767297e+01	-7.493461e-04
6.806384e+01	-7.580267e-04
6.845698e+01	-7.668079e-04
6.885238e+01	-7.756907e-04
6.925007e+01	-7.846765e-04
6.965005e+01	-7.937664e-04
7.005235e+01	-8.029615e-04
7.045697e+01	-8.122632e-04
7.086393e+01	-8.216726e-04
7.127323e+01	-8.311910e-04
7.168490e+01	-8.408196e-04
7.209895e+01	-8.505598e-04
7.251539e+01	-8.604128e-04
7.293424e+01	-8.703799e-04
7.335551e+01	-8.804625e-04
7.377920e+01	-8.906618e-04
7.420535e+01	-9.009793e-04
7.463396e+01	-9.114163e-04
7.506504e+01	-9.219742e-04
7.549861e+01	-9.326544e-04
7.593469e+01	-9.434583e-04
7.637328e+01	-9.543873e-04
7.681441e+01	-9.654429e-04
7.725809e+01	-9.766265e-04
7.770433e+01	-9.879397e-04
7.815315e+01	-9.993840e-04
7.860456e+01	-1.010961e-03
7.905857e+01	-1.022672e-03
7.951521e+01	-1.034518e-03
7.997449e+01	-1.046502e-03
8.043642e+01	-1.058624e-03
8.090102e+01	-1.070887e-03
8.136830e+01	-1.083292e-03
8.183828e+01	-1.095841e-03
8.231097e+01	-1.108535e-03
8.278640e+01	-1.121376e-03
8.326457e+01	-1.134366e-03
8.374550e+01	-1.147506e-03
8.422921e+01	-1.160798e-03
8.471572e+01	-1.174245e-03
8.520503e+01	-1.187847e-03
8.569717e+01	-1.201606e-03
8.619215e+01	-1.215525e-03
8.669000e+01	-1.229606e-03
8.719071e+01	-1.243849e-03
8.769432e+01	-1.258257e-03
8.820084e+01	-1.272832e-03
8.871029e+01	-1.287576e-03
8.922267e+01	-1.302491e-03
8.973802e+01	-1.317578e-03
9.025634e+01	-1.332840e-03
9.077766e+01	-1.348279e-03
9.130199e+01	-1.363897e-03
9.182935e+01	-1.379696e-03
9.235975e+01	-1.395677e-03
9.289321e+01	-1.411844e-03
9.342976e+01	-1.428198e-03
9.396941e+01	-1.444741e-03
9.451217e+01	-1.461476e-03
9.505807e+01	-1.478405e-03
9.560712e+01	-1.495529e-03
9.615934e+01	-1.512853e-03
9.671476e+01	-1.530376e-03
9.727338e+01	-1.548103e-03
9.783522e+01	-1.566035e-03
9.840032e+01	-1.584174e-03
9.896867e+01	-1.602524e-03
9.954031e+01	-1.621086e-03
1.001153e+02	-1.639864e-03
1.006935e+02	-1.658858e-03
1.012751e+02	-1.678073e-03
1.018601e+02	-1.697510e-03
1.024484e+02	-1.717172e-03
1.030402e+02	-1.737062e-03
1.036353e+02	-1.757182e-03
1.042339e+02	-1.777536e-03
1.048360e+02	-1.798125e-03
1.054415e+02	-1.818952e-03
1.060505e+02	-1.840020e-03
1.066631e+02	-1.861333e-03
1.072791e+02	-1.882892e-03
1.078988e+02	-1.904701e-03
1.085220e+02	-1.926763e-03
1.091488e+02	-1.949080e-03
1.097793e+02	-1.971656e-03
1.104133e+02	-1.994492e-03
1.110511e+02	-2.017594e-03
1.116925e+02	-2.040963e-03
1.123376e+02	-2.064602e-03
1.129865e+02	-2.088515e-03
1.136391e+02	-2.112705e-03
1.142955e+02	-2.137176e-03
1.149556e+02	-2.161929e-03
1.156196e+02	-2.186969e-03
1.162874e+02	-2.212300e-03
1.169591e+02	-2.237923e-03
1.176347e+02	-2.263843e-03
1.183141e+02	-2.290064e-03
1.189975e+02	-2.316587e-03
1.196848e+02	-2.343419e-03
1.203761e+02	-2.370560e-03
1.210714e+02	-2.398016e-03
1.217707e+02	-2.425790e-03
1.224740e+02	-2.453886e-03
1.231814e+02	-2.482306e-03
1.238929e+02	-2.511056e-03
1.246085e+02	-2.540139e-03
1.253283e+02	-2.569558e-03
1.260522e+02	-2.599318e-03
1.267802e+02	-2.629423e-03
1.275125e+02	-2.659876e-03
1.282490e+02	-2.690682e-03
1.289898e+02	-2.721845e-03
1.297348e+02	-2.753368e-03
1.304842e+02	-2.785256e-03
1.312378e+02	-2.817514e-03
1.319959e+02	-2.850145e-03
1.327583e+02	-2.883153e-03
1.335251e+02	-2.916544e-03
1.342963e+02	-2.950322e-03
1.350720e+02	-2.984490e-03
1.358522e+02	-3.019054e-03
1.366368e+02	-3.054018e-03
1.374260e+02	-3.089387e-03
1.382198e+02	-3.125166e-03
1.390182e+02	-3.161358e-03
1.398211e+02	-3.197970e-03
1.406287e+02	-3.235006e-03
1.414410e+02	-3.272470e-03
1.422579e+02	-3.310368e-03
1.430796e+02	-3.348704e-03
1.439060e+02	-3.387485e-03
1.447372e+02	-3.426714e-03
1.455732e+02	-3.466398e-03
1.464141e+02	-3.506541e-03
1.472597e+02	-3.547148e-03
1.481103e+02	-3.588226e-03
1.489658e+02	-3.629779e-03
1.498262e+02	-3.671813e-03
1.506916e+02	-3.714334e-03
1.515620e+02	-3.757347e-03
1.524374e+02	-3.800857e-03
1.533179e+02	-3.844872e-03
1.542034e+02	-3.889396e-03
1.550941e+02	-3.934435e-03
1.559899e+02	-3.979995e-03
1.568909e+02	-4.026083e-03
1.577971e+02	-4.072705e-03
1.587085e+02	-4.119866e-03
1.596252e+02	-4.167572e-03
1.605472e+02	-4.215831e-03
1.614745e+02	-4.264649e-03
1.624072e+02	-4.314031e-03
1.633453e+02	-4.363985e-03
1.642887e+02	-4.414517e-03
1.652377e+02	-4.465634e-03
1.661921e+02	-4.517343e-03
1.671520e+02	-4.569650e-03
1.681175e+02	-4.622562e-03
1.690885e+02	-4.676087e-03
1.700651e+02	-4.730231e-03
1.710474e+02	-4.785002e-03
1.720354e+02	-4.840406e-03
1.730291e+02	-4.896452e-03
1.740285e+02	-4.953146e-03
1.750337e+02	-5.010496e-03
1.760446e+02	-5.068510e-03
1.770615e+02	-5.127196e-03
1.780842e+02	-5.186560e-03
1.791128e+02	-5.246611e-03
1.801473e+02	-5.307357e-03
1.811878e+02	-5.368806e-03
1.822344e+02	-5.430966e-03
1.832870e+02	-5.493845e-03
1.843456e+02	-5.557452e-03
1.854104e+02	-5.621795e-03
1.864813e+02	-5.686882e-03
1.875584e+02	-5.752722e-03
1.886418e+02	-5.819324e-03
1.897313e+02	-5.886697e-03
1.908272e+02	-5.954849e-03
1.919294e+02	-6.023789e-03
1.930380e+02	-6.093527e-03
1.941530e+02	-6.164072e-03
1.952744e+02	-6.235433e-03
1.964023e+02	-6.307620e-03
1.975367e+02	-6.380641e-03
1.986777e+02	-6.454508e-03
1.998252e+02	-6.529228e-03
2.009794e+02	-6.604813e-03
2.021403e+02	-6.681273e-03
2.033078e+02	-6.758617e-03
2.044821e+02	-6.836855e-03
2.056632e+02	-6.915999e-03
2.068511e+02	-6.996058e-03
2.080459e+02	-7.077042e-03
2.092475e+02	-7.158964e-03
2.104561e+02	-7.241833e-03
2.116717e+02	-7.325661e-03
2.128943e+02	-7.410458e-03
2.141240e+02	-7.496235e-03
2.153608e+02	-7.583005e-03
2.166047e+02	-7.670778e-03
2.178558e+02	-7.759567e-03
2.191141e+02	-7.849382e-03
2.203797e+02	-7.940235e-03
2.216526e+02	-8.032140e-03
2.229329e+02	-8.125107e-03
2.242205e+02	-8.219149e-03
2.255156e+02	-8.314278e-03
2.268182e+02	-8.410508e-03
2.281283e+02	-8.507850e-03
2.294459e+02	-8.606318e-03
2.307712e+02	-8.705924e-03
2.321041e+02	-8.806681e-03
2.334447e+02	-8.908604e-03
2.347931e+02	-9.011705e-03
2.361493e+02	-9.115998e-03
2.375133e+02	-9.221497e-03
2.388851e+02	-9.328215e-03
2.402649e+02	-9.436167e-03
2.416527e+02	-9.545367e-03
2.430484e+02	-9.655829e-03
2.444523e+02	-9.767568e-03
2.458642e+02	-9.880599e-03
2.472843e+02	-9.994936e-03
2.487126e+02	-1.011059e-02
2.501492e+02	-1.022759e-02
2.515940e+02	-1.034594e-02
2.530472e+02	-1.046565e-02
2.545088e+02	-1.058675e-02
2.559789e+02	-1.070925e-02
2.574574e+02	-1.083316e-02
2.589444e+02	-1.095851e-02
2.604401e+02	-1.108530e-02
2.619444e+02	-1.121356e-02
2.634574e+02	-1.134331e-02
2.649791e+02	-1.147455e-02
2.665096e+02	-1.160730e-02
2.680489e+02	-1.174160e-02
2.695972e+02	-1.187744e-02
2.711544e+02	-1.201485e-02
2.727205e+02	-1.215385e-02
2.742958e+02	-1.229446e-02
2.758801e+02	-1.243669e-02
2.774736e+02	-1.258056e-02
2.790762e+02	-1.272609e-02
2.806882e+02	-1.287331e-02
2.823094e+02	-1.302222e-02
2.839400e+02	-1.317286e-02
2.855800e+02	-1.332524e-02
2.872295e+02	-1.347937e-02
2.888886e+02	-1.363529e-02
2.905572e+02	-1.379300e-02
2.922354e+02	-1.395254e-02
2.939234e+02	-1.411392e-02
2.956211e+02	-1.427717e-02
2.973286e+02	-1.444229e-02
2.990459e+02	-1.460933e-02
3.007732e+02	-1.477829e-02
3.025104e+02	-1.494921e-02
3.042577e+02	-1.512210e-02
3.060151e+02	-1.529698e-02
3.077826e+02	-1.547388e-02
3.095604e+02	-1.565283e-02
3.113484e+02	-1.583384e-02
3.131467e+02	-1.601694e-02
3.149554e+02	-1.620215e-02
3.167746e+02	-1.638950e-02
3.186043e+02	-1.657901e-02
3.204445e+02	-1.677071e-02
3.222954e+02	-1.696462e-02
3.241570e+02	-1.716077e-02
3.260293e+02	-1.735919e-02
3.279124e+02	-1.755989e-02
3.298064e+02	-1.776291e-02
3.317114e+02	-1.796827e-02
3.336273e+02	-1.817600e-02
3.355544e+02	-1.838612e-02
3.374925e+02	-1.859867e-02
3.394418e+02	-1.881368e-02
3.414024e+02	-1.903116e-02
3.433744e+02	-1.925115e-02
3.453577e+02	-1.947368e-02
3.473525e+02	-1.969877e-02
3.493588e+02	-1.992646e-02
3.513766e+02	-2.015678e-02
3.534062e+02	-2.038975e-02
3.554474e+02	-2.062540e-02
3.575005e+02	-2.086378e-02
3.595654e+02	-2.110490e-02
3.616422e+02	-2.134880e-02
3.637311e+02	-2.159552e-02
3.658320e+02	-2.184508e-02
3.679450e+02	-2.209751e-02
3.700702e+02	-2.235286e-02
3.722077e+02	-2.261114e-02
3.743576e+02	-2.287241e-02
3.765199e+02	-2.313668e-02
3.786946e+02	-2.340400e-02
3.808820e+02	-2.367440e-02
3.830819e+02	-2.394791e-02
3.852946e+02	-2.422458e-02
3.875200e+02	-2.450443e-02
3.897583e+02	-2.478751e-02
3.920096e+02	-2.507385e-02
3.942738e+02	-2.536348e-02
3.965511e+02	-2.565646e-02
3.988416e+02	-2.595280e-02
4.011452e+02	-2.625256e-02
4.034622e+02	-2.655577e-02
4.057926e+02	-2.686247e-02
4.081365e+02	-2.717270e-02
4.104938e+02	-2.748651e-02
4.128648e+02	-2.780392e-02
4.152495e+02	-2.812499e-02
4.176480e+02	-2.844975e-02
4.200603e+02	-2.877826e-02
4.224866e+02	-2.911054e-02
4.249268e+02	-2.944664e-02
4.273812e+02	-2.978662e-02
4.298497e+02	-3.013050e-02
4.323325e+02	-3.047834e-02
4.348297e+02	-3.083019e-02
4.373412e+02	-3.118607e-02
4.398673e+02	-3.154606e-02
4.424079e+02	-3.191018e-02
4.449633e+02	-3.227849e-02
4.475334e+02	-3.265103e-02
4.501183e+02	-3.302786e-02
4.527182e+02	-3.340902e-02
4.553330e+02	-3.379456e-02
4.579630e+02	-3.418454e-02
4.606082e+02	-3.457899e-02
4.632687e+02	-3.497798e-02
4.659445e+02	-3.538155e-02
4.686358e+02	-3.578976e-02
4.713426e+02	-3.620266e-02
4.740650e+02	-3.662031e-02
4.768032e+02	-3.704275e-02
4.795572e+02	-3.747004e-02
4.823271e+02	-3.790224e-02
4.851130e+02	-3.833941e-02
4.879150e+02	-3.878159e-02
4.907332e+02	-3.922885e-02
4.935676e+02	-3.968124e-02
4.964185e+02	-4.013883e-02
4.992858e+02	-4.060167e-02
5.021696e+02	-4.106982e-02
5.050701e+02	-4.154334e-02
5.079874e+02	-4.202230e-02
5.109215e+02	-4.250675e-02
5.138726e+02	-4.299676e-02
5.168407e+02	-4.349239e-02
5.198259e+02	-4.399370e-02
5.228284e+02	-4.450076e-02
5.258482e+02	-4.501363e-02
5.288855e+02	-4.553239e-02
5.319403e+02	-4.605709e-02
5.350128e+02	-4.658781e-02
5.381030e+02	-4.712460e-02
5.412111e+02	-4.766755e-02
5.443371e+02	-4.821672e-02
5.474812e+02	-4.877218e-02
5.506434e+02	-4.933400e-02
5.538239e+02	-4.990226e-02
5.570228e+02	-5.047702e-02
5.602401e+02	-5.105837e-02
5.634760e+02	-5.164637e-02
5.667306e+02	-5.224110e-02
5.700040e+02	-5.284264e-02
5.732964e+02	-5.345106e-02
5.766077e+02	-5.406644e-02
5.799382e+02	-5.468887e-02
5.832879e+02	-5.531841e-02
5.866569e+02	-5.595515e-02
5.900454e+02	-5.659918e-02
5.934535e+02	-5.725056e-02
5.968813e+02	-5.790940e-02
6.003288e+02	-5.857576e-02
6.037963e+02	-5.924974e-02
6.072838e+02	-5.993142e-02
6.107914e+02	-6.062089e-02
6.143194e+02	-6.131824e-02
6.178676e+02	-6.202355e-02
6.214364e+02	-6.273691e-02
6.250258e+02	-6.345842e-02
6.286359e+02	-6.418816e-02
6.322669e+02	-6.492623e-02
6.359189e+02	-6.567273e-02
6.395919e+02	-6.642774e-02
6.432862e+02	-6.719137e-02
6.470017e+02	-6.796370e-02
6.507388e+02	-6.874484e-02
6.544974e+02	-6.953489e-02
6.582778e+02	-7.033394e-02
6.620800e+02	-7.114210e-02
6.659041e+02	-7.195947e-02
6.697504e+02	-7.278615e-02
6.736188e+02	-7.362225e-02
6.775096e+02	-7.446786e-02
6.814229e+02	-7.532311e-02
6.853587e+02	-7.618809e-02
6.893173e+02	-7.706292e-02
6.932988e+02	-7.794770e-02
6.973033e+02	-7.884255e-02
7.013309e+02	-7.974758e-02
