Frequency(Hz)	Magnitude(dB)
1.000000e+01	-2.204833e+00
1.005776e+01	-2.224584e+00
1.011585e+01	-2.244557e+00
1.017428e+01	-2.265000e+00
1.023305e+01	-2.285478e+00
1.029215e+01	-2.306142e+00
1.035160e+01	-2.326577e+00
1.041139e+01	-2.347341e+00
1.047153e+01	-2.368364e+00
1.053201e+01	-2.389538e+00
1.059284e+01	-2.410792e+00
1.065403e+01	-2.432299e+00
1.071556e+01	-2.453567e+00
1.077746e+01	-2.475258e+00
1.083971e+01	-2.497125e+00
1.090232e+01	-2.519037e+00
1.096529e+01	-2.540987e+00
1.102862e+01	-2.563575e+00
1.109232e+01	-2.585768e+00
1.115639e+01	-2.608574e+00
1.122083e+01	-2.631017e+00
1.128564e+01	-2.653803e+00
1.135083e+01	-2.676603e+00
1.141639e+01	-2.699738e+00
1.148233e+01	-2.723049e+00
1.154865e+01	-2.746263e+00
1.161536e+01	-2.770212e+00
1.168245e+01	-2.793422e+00
1.174992e+01	-2.817420e+00
1.181779e+01	-2.841396e+00
1.188605e+01	-2.865413e+00
1.195470e+01	-2.889602e+00
1.202375e+01	-2.913957e+00
1.209320e+01	-2.938562e+00
1.216305e+01	-2.962967e+00
1.223330e+01	-2.988053e+00
1.230396e+01	-3.013092e+00
1.237503e+01	-3.038391e+00
1.244651e+01	-3.063555e+00
1.251840e+01	-3.088883e+00
1.259070e+01	-3.114462e+00
1.266343e+01	-3.139876e+00
1.273657e+01	-3.165819e+00
1.281014e+01	-3.191602e+00
1.288413e+01	-3.217900e+00
1.295855e+01	-3.244030e+00
1.303339e+01	-3.270428e+00
1.310867e+01	-3.297034e+00
1.318439e+01	-3.323971e+00
1.326054e+01	-3.350411e+00
1.333713e+01	-3.377233e+00
1.341417e+01	-3.404652e+00
1.349165e+01	-3.431713e+00
1.356958e+01	-3.459177e+00
1.364795e+01	-3.486825e+00
1.372678e+01	-3.514319e+00
1.380607e+01	-3.542377e+00
1.388581e+01	-3.570348e+00
1.396602e+01	-3.598474e+00
1.404668e+01	-3.626771e+00
1.412782e+01	-3.654989e+00
1.420942e+01	-3.683433e+00
1.429149e+01	-3.712287e+00
1.437404e+01	-3.741034e+00
1.445706e+01	-3.770142e+00
1.454057e+01	-3.798967e+00
1.462455e+01	-3.828247e+00
1.470902e+01	-3.857562e+00
1.479398e+01	-3.887346e+00
1.487943e+01	-3.916725e+00
1.496537e+01	-3.946789e+00
1.505181e+01	-3.976685e+00
1.513875e+01	-4.006703e+00
1.522619e+01	-4.036955e+00
1.531414e+01	-4.067092e+00
1.540259e+01	-4.097743e+00
1.549156e+01	-4.128432e+00
1.558103e+01	-4.158997e+00
1.567103e+01	-4.189885e+00
1.576155e+01	-4.221327e+00
1.585258e+01	-4.252303e+00
1.594415e+01	-4.283672e+00
1.603624e+01	-4.314927e+00
1.612886e+01	-4.346320e+00
1.622202e+01	-4.378465e+00
1.631572e+01	-4.410066e+00
1.640996e+01	-4.441885e+00
1.650474e+01	-4.474438e+00
1.660008e+01	-4.506345e+00
1.669596e+01	-4.538611e+00
1.679239e+01	-4.571228e+00
1.688938e+01	-4.603695e+00
1.698694e+01	-4.636577e+00
1.708505e+01	-4.669472e+00
1.718373e+01	-4.702447e+00
1.728299e+01	-4.735805e+00
1.738281e+01	-4.768748e+00
1.748322e+01	-4.802604e+00
1.758420e+01	-4.835693e+00
1.768576e+01	-4.869745e+00
1.778792e+01	-4.903232e+00
1.789066e+01	-4.937320e+00
1.799399e+01	-4.971239e+00
1.809793e+01	-5.005568e+00
1.820246e+01	-5.039445e+00
1.830760e+01	-5.074071e+00
1.841334e+01	-5.108589e+00
1.851969e+01	-5.143336e+00
1.862666e+01	-5.178197e+00
1.873425e+01	-5.213094e+00
1.884246e+01	-5.248220e+00
1.895129e+01	-5.283160e+00
1.906075e+01	-5.318525e+00
1.917085e+01	-5.353791e+00
1.928158e+01	-5.389276e+00
1.939295e+01	-5.425148e+00
1.950496e+01	-5.460845e+00
1.961762e+01	-5.496305e+00
1.973093e+01	-5.532313e+00
1.984490e+01	-5.568694e+00
1.995952e+01	-5.604662e+00
2.007480e+01	-5.641333e+00
2.019076e+01	-5.677696e+00
2.030738e+01	-5.713983e+00
2.042467e+01	-5.751111e+00
2.054264e+01	-5.787590e+00
2.066130e+01	-5.824709e+00
2.078064e+01	-5.861339e+00
2.090066e+01	-5.898634e+00
2.102139e+01	-5.935792e+00
2.114280e+01	-5.972880e+00
2.126492e+01	-6.010606e+00
2.138775e+01	-6.048183e+00
2.151128e+01	-6.085620e+00
2.163553e+01	-6.123994e+00
2.176050e+01	-6.161323e+00
2.188619e+01	-6.199078e+00
2.201260e+01	-6.237880e+00
2.213974e+01	-6.275556e+00
2.226762e+01	-6.313835e+00
2.239624e+01	-6.352209e+00
2.252560e+01	-6.390874e+00
2.265571e+01	-6.429319e+00
2.278656e+01	-6.467840e+00
2.291818e+01	-6.506724e+00
2.305055e+01	-6.545887e+00
2.318369e+01	-6.584774e+00
2.331760e+01	-6.623856e+00
2.345228e+01	-6.662509e+00
2.358774e+01	-6.702289e+00
2.372398e+01	-6.741831e+00
2.386101e+01	-6.780796e+00
2.399883e+01	-6.820785e+00
2.413745e+01	-6.860143e+00
2.427686e+01	-6.900157e+00
2.441709e+01	-6.939874e+00
2.455812e+01	-6.979774e+00
2.469997e+01	-7.020046e+00
2.484263e+01	-7.060137e+00
2.498612e+01	-7.100321e+00
2.513044e+01	-7.140270e+00
2.527559e+01	-7.180777e+00
2.542158e+01	-7.221809e+00
2.556842e+01	-7.262135e+00
2.571610e+01	-7.302474e+00
2.586463e+01	-7.343710e+00
2.601403e+01	-7.384748e+00
2.616428e+01	-7.425581e+00
2.631541e+01	-7.466533e+00
2.646740e+01	-7.507646e+00
2.662028e+01	-7.548838e+00
2.677404e+01	-7.590081e+00
2.692868e+01	-7.631257e+00
2.708422e+01	-7.672840e+00
2.724066e+01	-7.713945e+00
2.739800e+01	-7.755262e+00
2.755625e+01	-7.797834e+00
2.771541e+01	-7.838707e+00
2.787550e+01	-7.881031e+00
2.803650e+01	-7.923052e+00
2.819844e+01	-7.965591e+00
2.836131e+01	-8.007343e+00
2.852513e+01	-8.049187e+00
2.868989e+01	-8.091502e+00
2.885560e+01	-8.133945e+00
2.902227e+01	-8.176205e+00
2.918990e+01	-8.218575e+00
2.935850e+01	-8.261124e+00
2.952807e+01	-8.303848e+00
2.969863e+01	-8.346412e+00
2.987016e+01	-8.389084e+00
3.004269e+01	-8.431898e+00
3.021622e+01	-8.474728e+00
3.039075e+01	-8.517799e+00
3.056628e+01	-8.560688e+00
3.074283e+01	-8.603713e+00
3.092040e+01	-8.646934e+00
3.109900e+01	-8.690258e+00
3.127862e+01	-8.733517e+00
3.145929e+01	-8.777126e+00
3.164099e+01	-8.820120e+00
3.182375e+01	-8.863558e+00
3.200756e+01	-8.907373e+00
3.219244e+01	-8.951039e+00
3.237838e+01	-8.994521e+00
3.256540e+01	-9.038670e+00
3.275349e+01	-9.082107e+00
3.294268e+01	-9.126293e+00
3.313295e+01	-9.170338e+00
3.332433e+01	-9.214438e+00
3.351681e+01	-9.258282e+00
3.371040e+01	-9.302112e+00
3.390511e+01	-9.345865e+00
3.410094e+01	-9.391223e+00
3.429791e+01	-9.434884e+00
3.449601e+01	-9.479299e+00
3.469526e+01	-9.523859e+00
3.489566e+01	-9.567960e+00
3.509721e+01	-9.612371e+00
3.529993e+01	-9.657321e+00
3.550382e+01	-9.702042e+00
3.570889e+01	-9.746856e+00
3.591515e+01	-9.791370e+00
3.612259e+01	-9.836604e+00
3.633123e+01	-9.881067e+00
3.654108e+01	-9.926402e+00
3.675214e+01	-9.970799e+00
3.696442e+01	-1.001627e+01
3.717792e+01	-1.006100e+01
3.739266e+01	-1.010593e+01
3.760864e+01	-1.015177e+01
3.782587e+01	-1.019679e+01
3.804435e+01	-1.024143e+01
3.826409e+01	-1.028734e+01
3.848510e+01	-1.033255e+01
3.870739e+01	-1.037822e+01
3.893096e+01	-1.042366e+01
3.915583e+01	-1.046971e+01
3.938199e+01	-1.051444e+01
3.960946e+01	-1.056021e+01
3.983824e+01	-1.060581e+01
4.006834e+01	-1.065170e+01
4.029978e+01	-1.069720e+01
4.053255e+01	-1.074302e+01
4.076666e+01	-1.078886e+01
4.100213e+01	-1.083504e+01
4.123896e+01	-1.088082e+01
4.147715e+01	-1.092666e+01
4.171672e+01	-1.097221e+01
4.195767e+01	-1.101912e+01
4.220002e+01	-1.106456e+01
4.244377e+01	-1.111063e+01
4.268892e+01	-1.115726e+01
4.293549e+01	-1.120287e+01
4.318348e+01	-1.125004e+01
4.343291e+01	-1.129604e+01
4.368377e+01	-1.134245e+01
4.393609e+01	-1.138839e+01
4.418986e+01	-1.143507e+01
4.444510e+01	-1.148135e+01
4.470182e+01	-1.152777e+01
4.496001e+01	-1.157436e+01
4.521970e+01	-1.162074e+01
4.548089e+01	-1.166736e+01
4.574358e+01	-1.171392e+01
4.600779e+01	-1.176078e+01
4.627353e+01	-1.180770e+01
4.654081e+01	-1.185443e+01
4.680963e+01	-1.190165e+01
4.708000e+01	-1.194835e+01
4.735193e+01	-1.199489e+01
4.762543e+01	-1.204075e+01
4.790051e+01	-1.208923e+01
4.817719e+01	-1.213508e+01
4.845545e+01	-1.218194e+01
4.873533e+01	-1.222993e+01
4.901682e+01	-1.227691e+01
4.929994e+01	-1.232417e+01
4.958470e+01	-1.237027e+01
4.987110e+01	-1.241766e+01
5.015915e+01	-1.246491e+01
5.044887e+01	-1.251259e+01
5.074026e+01	-1.256019e+01
5.103333e+01	-1.260673e+01
5.132810e+01	-1.265467e+01
5.162457e+01	-1.270141e+01
5.192275e+01	-1.274817e+01
5.222265e+01	-1.279600e+01
5.252429e+01	-1.284344e+01
5.282767e+01	-1.289075e+01
5.313280e+01	-1.293917e+01
5.343969e+01	-1.298606e+01
5.374836e+01	-1.303411e+01
5.405880e+01	-1.308124e+01
5.437105e+01	-1.312822e+01
5.468509e+01	-1.317638e+01
5.500095e+01	-1.322408e+01
5.531863e+01	-1.327162e+01
5.563815e+01	-1.331874e+01
5.595951e+01	-1.336744e+01
5.628273e+01	-1.341449e+01
5.660782e+01	-1.346181e+01
5.693479e+01	-1.350964e+01
5.726364e+01	-1.355801e+01
5.759439e+01	-1.360595e+01
5.792705e+01	-1.365320e+01
5.826164e+01	-1.370194e+01
5.859815e+01	-1.374987e+01
5.893662e+01	-1.379825e+01
5.927703e+01	-1.384572e+01
5.961941e+01	-1.389359e+01
5.996377e+01	-1.394226e+01
6.031012e+01	-1.398968e+01
6.065847e+01	-1.403790e+01
6.100883e+01	-1.408534e+01
6.136121e+01	-1.413321e+01
6.171563e+01	-1.418160e+01
6.207210e+01	-1.423015e+01
6.243063e+01	-1.427751e+01
6.279122e+01	-1.432617e+01
6.315390e+01	-1.437372e+01
6.351868e+01	-1.442284e+01
6.388556e+01	-1.447040e+01
6.425456e+01	-1.451881e+01
6.462569e+01	-1.456766e+01
6.499897e+01	-1.461539e+01
6.537440e+01	-1.466414e+01
6.575200e+01	-1.471192e+01
6.613178e+01	-1.476016e+01
6.651375e+01	-1.480790e+01
6.689793e+01	-1.485685e+01
6.728433e+01	-1.490528e+01
6.767297e+01	-1.495308e+01
6.806384e+01	-1.500317e+01
6.845698e+01	-1.505019e+01
6.885238e+01	-1.509904e+01
6.925007e+01	-1.514784e+01
6.965005e+01	-1.519681e+01
7.005235e+01	-1.524586e+01
7.045697e+01	-1.529359e+01
7.086393e+01	-1.534340e+01
7.127323e+01	-1.539035e+01
7.168490e+01	-1.543989e+01
7.209895e+01	-1.548783e+01
7.251539e+01	-1.553718e+01
7.293424e+01	-1.558545e+01
7.335551e+01	-1.563363e+01
7.377920e+01	-1.568185e+01
7.420535e+01	-1.573098e+01
7.463396e+01	-1.577955e+01
7.506504e+01	-1.582891e+01
7.549861e+01	-1.587766e+01
7.593469e+01	-1.592541e+01
7.637328e+01	-1.597495e+01
7.681441e+01	-1.602295e+01
7.725809e+01	-1.607236e+01
7.770433e+01	-1.612164e+01
7.815315e+01	-1.616992e+01
7.860456e+01	-1.621870e+01
7.905857e+01	-1.626781e+01
7.951521e+01	-1.631697e+01
7.997449e+01	-1.636432e+01
8.043642e+01	-1.641342e+01
8.090102e+01	-1.646332e+01
8.136830e+01	-1.651126e+01
8.183828e+01	-1.656063e+01
8.231097e+01	-1.660947e+01
8.278640e+01	-1.665915e+01
8.326457e+01	-1.670724e+01
8.374550e+01	-1.675831e+01
8.422921e+01	-1.680499e+01
8.471572e+01	-1.685571e+01
8.520503e+01	-1.690468e+01
8.569717e+01	-1.695288e+01
8.619215e+01	-1.700102e+01
8.669000e+01	-1.705108e+01
8.719071e+01	-1.709956e+01
8.769432e+01	-1.714943e+01
8.820084e+01	-1.719794e+01
8.871029e+01	-1.724788e+01
8.922267e+01	-1.729723e+01
8.973802e+01	-1.734527e+01
9.025634e+01	-1.739449e+01
9.077766e+01	-1.744296e+01
9.130199e+01	-1.749296e+01
9.182935e+01	-1.754241e+01
9.235975e+01	-1.759091e+01
9.289321e+01	-1.764052e+01
9.342976e+01	-1.768923e+01
9.396941e+01	-1.773884e+01
9.451217e+01	-1.778736e+01
9.505807e+01	-1.783766e+01
9.560712e+01	-1.788543e+01
9.615934e+01	-1.793558e+01
9.671476e+01	-1.798548e+01
9.727338e+01	-1.803338e+01
9.783522e+01	-1.808385e+01
9.840032e+01	-1.813225e+01
9.896867e+01	-1.818111e+01
9.954031e+01	-1.822954e+01
1.001153e+02	-1.828058e+01
1.006935e+02	-1.832851e+01
1.012751e+02	-1.838010e+01
1.018601e+02	-1.842899e+01
1.024484e+02	-1.847738e+01
1.030402e+02	-1.852727e+01
1.036353e+02	-1.857627e+01
1.042339e+02	-1.862504e+01
1.048360e+02	-1.867439e+01
1.054415e+02	-1.872351e+01
1.060505e+02	-1.877403e+01
1.066631e+02	-1.882501e+01
1.072791e+02	-1.887310e+01
1.078988e+02	-1.892155e+01
1.085220e+02	-1.897188e+01
1.091488e+02	-1.902193e+01
1.097793e+02	-1.907074e+01
1.104133e+02	-1.911953e+01
1.110511e+02	-1.916961e+01
1.116925e+02	-1.921781e+01
1.123376e+02	-1.926770e+01
1.129865e+02	-1.931759e+01
1.136391e+02	-1.936614e+01
1.142955e+02	-1.941613e+01
1.149556e+02	-1.946578e+01
1.156196e+02	-1.951367e+01
1.162874e+02	-1.956514e+01
1.169591e+02	-1.961363e+01
1.176347e+02	-1.966442e+01
1.183141e+02	-1.971199e+01
1.189975e+02	-1.976465e+01
1.196848e+02	-1.981143e+01
1.203761e+02	-1.986115e+01
1.210714e+02	-1.991163e+01
1.217707e+02	-1.996034e+01
1.224740e+02	-2.001004e+01
1.231814e+02	-2.006021e+01
1.238929e+02	-2.011012e+01
1.246085e+02	-2.015899e+01
1.253283e+02	-2.020653e+01
1.260522e+02	-2.025777e+01
1.267802e+02	-2.030830e+01
1.275125e+02	-2.035608e+01
1.282490e+02	-2.040535e+01
1.289898e+02	-2.045556e+01
1.297348e+02	-2.050433e+01
1.304842e+02	-2.055606e+01
1.312378e+02	-2.060597e+01
1.319959e+02	-2.065505e+01
1.327583e+02	-2.070512e+01
1.335251e+02	-2.075533e+01
1.342963e+02	-2.080402e+01
1.350720e+02	-2.085353e+01
1.358522e+02	-2.090405e+01
1.366368e+02	-2.095213e+01
1.374260e+02	-2.100159e+01
1.382198e+02	-2.105268e+01
1.390182e+02	-2.110056e+01
1.398211e+02	-2.115168e+01
1.406287e+02	-2.119993e+01
1.414410e+02	-2.125131e+01
1.422579e+02	-2.129778e+01
1.430796e+02	-2.135092e+01
1.439060e+02	-2.139814e+01
1.447372e+02	-2.144761e+01
1.455732e+02	-2.149857e+01
1.464141e+02	-2.154749e+01
1.472597e+02	-2.159807e+01
1.481103e+02	-2.164980e+01
1.489658e+02	-2.169612e+01
1.498262e+02	-2.174531e+01
1.506916e+02	-2.179683e+01
1.515620e+02	-2.184851e+01
1.524374e+02	-2.189735e+01
1.533179e+02	-2.194699e+01
1.542034e+02	-2.199639e+01
1.550941e+02	-2.204492e+01
1.559899e+02	-2.209418e+01
1.568909e+02	-2.214459e+01
1.577971e+02	-2.219441e+01
1.587085e+02	-2.224367e+01
1.596252e+02	-2.229564e+01
1.605472e+02	-2.234311e+01
1.614745e+02	-2.239302e+01
1.624072e+02	-2.244433e+01
1.633453e+02	-2.249414e+01
1.642887e+02	-2.254186e+01
1.652377e+02	-2.259129e+01
1.661921e+02	-2.264333e+01
1.671520e+02	-2.269166e+01
1.681175e+02	-2.274199e+01
1.690885e+02	-2.279251e+01
1.700651e+02	-2.284087e+01
1.710474e+02	-2.289229e+01
1.720354e+02	-2.294275e+01
1.730291e+02	-2.299191e+01
1.740285e+02	-2.304142e+01
1.750337e+02	-2.308973e+01
1.760446e+02	-2.313972e+01
1.770615e+02	-2.319033e+01
1.780842e+02	-2.324179e+01
1.791128e+02	-2.328982e+01
1.801473e+02	-2.334001e+01
1.811878e+02	-2.339043e+01
1.822344e+02	-2.343780e+01
1.832870e+02	-2.348904e+01
1.843456e+02	-2.354120e+01
1.854104e+02	-2.358849e+01
1.864813e+02	-2.363811e+01
1.875584e+02	-2.368766e+01
1.886418e+02	-2.373765e+01
1.897313e+02	-2.378651e+01
1.908272e+02	-2.383866e+01
1.919294e+02	-2.388612e+01
1.930380e+02	-2.393810e+01
1.941530e+02	-2.398590e+01
1.952744e+02	-2.403759e+01
1.964023e+02	-2.408708e+01
1.975367e+02	-2.413777e+01
1.986777e+02	-2.418789e+01
1.998252e+02	-2.423751e+01
2.009794e+02	-2.428932e+01
2.021403e+02	-2.433651e+01
2.033078e+02	-2.438596e+01
2.044821e+02	-2.443547e+01
2.056632e+02	-2.448692e+01
2.068511e+02	-2.453830e+01
2.080459e+02	-2.458361e+01
2.092475e+02	-2.463639e+01
2.104561e+02	-2.468617e+01
2.116717e+02	-2.473399e+01
2.128943e+02	-2.478589e+01
2.141240e+02	-2.483573e+01
2.153608e+02	-2.488587e+01
2.166047e+02	-2.493526e+01
2.178558e+02	-2.498451e+01
2.191141e+02	-2.503617e+01
2.203797e+02	-2.508408e+01
2.216526e+02	-2.513407e+01
2.229329e+02	-2.518708e+01
2.242205e+02	-2.523523e+01
2.255156e+02	-2.528567e+01
2.268182e+02	-2.533315e+01
2.281283e+02	-2.538183e+01
2.294459e+02	-2.543593e+01
2.307712e+02	-2.548454e+01
2.321041e+02	-2.553585e+01
2.334447e+02	-2.558391e+01
2.347931e+02	-2.563228e+01
2.361493e+02	-2.568419e+01
2.375133e+02	-2.573546e+01
2.388851e+02	-2.578378e+01
2.402649e+02	-2.583416e+01
2.416527e+02	-2.588743e+01
2.430484e+02	-2.593552e+01
2.444523e+02	-2.598472e+01
2.458642e+02	-2.603378e+01
2.472843e+02	-2.608451e+01
2.487126e+02	-2.613458e+01
2.501492e+02	-2.618495e+01
2.515940e+02	-2.623340e+01
2.530472e+02	-2.628598e+01
2.545088e+02	-2.633444e+01
2.559789e+02	-2.638298e+01
2.574574e+02	-2.643272e+01
2.589444e+02	-2.647969e+01
2.604401e+02	-2.653558e+01
2.619444e+02	-2.658556e+01
2.634574e+02	-2.663471e+01
2.649791e+02	-2.668308e+01
2.665096e+02	-2.673045e+01
2.680489e+02	-2.678309e+01
2.695972e+02	-2.683135e+01
2.711544e+02	-2.688113e+01
2.727205e+02	-2.693225e+01
2.742958e+02	-2.698253e+01
2.758801e+02	-2.703200e+01
2.774736e+02	-2.707852e+01
2.790762e+02	-2.713122e+01
2.806882e+02	-2.718283e+01
2.823094e+02	-2.723161e+01
2.839400e+02	-2.728214e+01
2.855800e+02	-2.733235e+01
2.872295e+02	-2.738337e+01
2.888886e+02	-2.743517e+01
2.905572e+02	-2.748306e+01
2.922354e+02	-2.753601e+01
2.939234e+02	-2.758338e+01
2.956211e+02	-2.763482e+01
2.973286e+02	-2.768352e+01
2.990459e+02	-2.772978e+01
3.007732e+02	-2.778015e+01
3.025104e+02	-2.783152e+01
3.042577e+02	-2.788103e+01
3.060151e+02	-2.793498e+01
3.077826e+02	-2.798173e+01
3.095604e+02	-2.803328e+01
3.113484e+02	-2.808169e+01
3.131467e+02	-2.813600e+01
3.149554e+02	-2.818878e+01
3.167746e+02	-2.823109e+01
3.186043e+02	-2.828633e+01
3.204445e+02	-2.833093e+01
3.222954e+02	-2.838576e+01
3.241570e+02	-2.843297e+01
3.260293e+02	-2.848676e+01
3.279124e+02	-2.853158e+01
3.298064e+02	-2.858841e+01
3.317114e+02	-2.863420e+01
3.336273e+02	-2.868249e+01
3.355544e+02	-2.873319e+01
3.374925e+02	-2.878343e+01
3.394418e+02	-2.883166e+01
3.414024e+02	-2.888249e+01
3.433744e+02	-2.893521e+01
3.453577e+02	-2.898318e+01
3.473525e+02	-2.903633e+01
3.493588e+02	-2.908266e+01
3.513766e+02	-2.913498e+01
3.534062e+02	-2.918664e+01
3.554474e+02	-2.923364e+01
3.575005e+02	-2.928314e+01
3.595654e+02	-2.933151e+01
3.616422e+02	-2.938349e+01
3.637311e+02	-2.944397e+01
3.658320e+02	-2.948660e+01
3.679450e+02	-2.953057e+01
3.700702e+02	-2.958093e+01
3.722077e+02	-2.963654e+01
3.743576e+02	-2.968069e+01
3.765199e+02	-2.973845e+01
3.786946e+02	-2.979020e+01
3.808820e+02	-2.983454e+01
3.830819e+02	-2.988857e+01
3.852946e+02	-2.993786e+01
3.875200e+02	-2.998933e+01
3.897583e+02	-3.004002e+01
3.920096e+02	-3.008289e+01
3.942738e+02	-3.013247e+01
3.965511e+02	-3.018809e+01
3.988416e+02	-3.023977e+01
4.011452e+02	-3.028542e+01
4.034622e+02	-3.033969e+01
4.057926e+02	-3.038367e+01
4.081365e+02	-3.043689e+01
4.104938e+02	-3.048582e+01
4.128648e+02	-3.053910e+01
4.152495e+02	-3.059069e+01
4.176480e+02	-3.063384e+01
4.200603e+02	-3.069134e+01
4.224866e+02	-3.073709e+01
4.249268e+02	-3.078439e+01
4.273812e+02	-3.083712e+01
4.298497e+02	-3.088985e+01
4.323325e+02	-3.093693e+01
4.348297e+02	-3.099029e+01
4.373412e+02	-3.103962e+01
4.398673e+02	-3.108507e+01
4.424079e+02	-3.113822e+01
4.449633e+02	-3.118733e+01
4.475334e+02	-3.123869e+01
4.501183e+02	-3.129286e+01
4.527182e+02	-3.134347e+01
4.553330e+02	-3.138854e+01
4.579630e+02	-3.143980e+01
4.606082e+02	-3.149369e+01
4.632687e+02	-3.153965e+01
4.659445e+02	-3.159404e+01
4.686358e+02	-3.164264e+01
4.713426e+02	-3.169307e+01
4.740650e+02	-3.173966e+01
4.768032e+02	-3.179219e+01
4.795572e+02	-3.184319e+01
4.823271e+02	-3.188929e+01
4.851130e+02	-3.194170e+01
4.879150e+02	-3.199342e+01
4.907332e+02	-3.204013e+01
4.935676e+02	-3.209133e+01
4.964185e+02	-3.215033e+01
4.992858e+02	-3.219367e+01
5.021696e+02	-3.224525e+01
5.050701e+02	-3.229541e+01
5.079874e+02	-3.234887e+01
5.109215e+02	-3.239649e+01
5.138726e+02	-3.244231e+01
5.168407e+02	-3.249102e+01
5.198259e+02	-3.255037e+01
5.228284e+02	-3.259583e+01
5.258482e+02	-3.264406e+01
5.288855e+02	-3.268707e+01
5.319403e+02	-3.274546e+01
5.350128e+02	-3.280029e+01
5.381030e+02	-3.284183e+01
5.412111e+02	-3.289177e+01
5.443371e+02	-3.294144e+01
5.474812e+02	-3.300171e+01
5.506434e+02	-3.304787e+01
5.538239e+02	-3.309773e+01
5.570228e+02	-3.314318e+01
5.602401e+02	-3.319407e+01
5.634760e+02	-3.324732e+01
5.667306e+02	-3.329666e+01
5.700040e+02	-3.334963e+01
5.732964e+02	-3.339063e+01
5.766077e+02	-3.344967e+01
5.799382e+02	-3.349976e+01
5.832879e+02	-3.355430e+01
5.866569e+02	-3.359677e+01
5.900454e+02	-3.365613e+01
5.934535e+02	-3.369887e+01
5.968813e+02	-3.375737e+01
6.003288e+02	-3.379666e+01
6.037963e+02	-3.385651e+01
6.072838e+02	-3.390269e+01
6.107914e+02	-3.395224e+01
6.143194e+02	-3.400240e+01
6.178676e+02	-3.405970e+01
6.214364e+02	-3.410071e+01
6.250258e+02	-3.415721e+01
6.286359e+02	-3.420892e+01
6.322669e+02	-3.425587e+01
6.359189e+02	-3.429905e+01
6.395919e+02	-3.435100e+01
6.432862e+02	-3.441142e+01
6.470017e+02	-3.445768e+01
6.507388e+02	-3.451047e+01
6.544974e+02	-3.455152e+01
6.582778e+02	-3.460869e+01
6.620800e+02	-3.466715e+01
6.659041e+02	-3.470141e+01
6.697504e+02	-3.475526e+01
6.736188e+02	-3.479956e+01
6.775096e+02	-3.485805e+01
6.814229e+02	-3.490714e+01
6.853587e+02	-3.496526e+01
6.893173e+02	-3.500935e+01
6.932988e+02	-3.506602e+01
6.973033e+02	-3.509963e+01
7.013309e+02	-3.515750e+01
