Frequency(Hz)	Magnitude(dB)
1.000000e+01	-2.055642e+00
1.005776e+01	-2.074664e+00
1.011585e+01	-2.093716e+00
1.017428e+01	-2.112959e+00
1.023305e+01	-2.132225e+00
1.029215e+01	-2.151964e+00
1.035160e+01	-2.171321e+00
1.041139e+01	-2.190960e+00
1.047153e+01	-2.211137e+00
1.053201e+01	-2.231028e+00
1.059284e+01	-2.251242e+00
1.065403e+01	-2.271540e+00
1.071556e+01	-2.292183e+00
1.077746e+01	-2.312556e+00
1.083971e+01	-2.333480e+00
1.090232e+01	-2.354185e+00
1.096529e+01	-2.374906e+00
1.102862e+01	-2.396293e+00
1.109232e+01	-2.417682e+00
1.115639e+01	-2.439033e+00
1.122083e+01	-2.460656e+00
1.128564e+01	-2.482334e+00
1.135083e+01	-2.504116e+00
1.141639e+01	-2.525930e+00
1.148233e+01	-2.548261e+00
1.154865e+01	-2.570482e+00
1.161536e+01	-2.593051e+00
1.168245e+01	-2.615313e+00
1.174992e+01	-2.638154e+00
1.181779e+01	-2.660977e+00
1.188605e+01	-2.683888e+00
1.195470e+01	-2.707105e+00
1.202375e+01	-2.730519e+00
1.209320e+01	-2.754040e+00
1.216305e+01	-2.777547e+00
1.223330e+01	-2.801200e+00
1.230396e+01	-2.825040e+00
1.237503e+01	-2.848939e+00
1.244651e+01	-2.873042e+00
1.251840e+01	-2.897324e+00
1.259070e+01	-2.922078e+00
1.266343e+01	-2.946218e+00
1.273657e+01	-2.971270e+00
1.281014e+01	-2.995710e+00
1.288413e+01	-3.020853e+00
1.295855e+01	-3.046066e+00
1.303339e+01	-3.071382e+00
1.310867e+01	-3.096624e+00
1.318439e+01	-3.122310e+00
1.326054e+01	-3.148044e+00
1.333713e+01	-3.173990e+00
1.341417e+01	-3.200147e+00
1.349165e+01	-3.226355e+00
1.356958e+01	-3.252397e+00
1.364795e+01	-3.278831e+00
1.372678e+01	-3.305460e+00
1.380607e+01	-3.332297e+00
1.388581e+01	-3.358903e+00
1.396602e+01	-3.386151e+00
1.404668e+01	-3.413304e+00
1.412782e+01	-3.440537e+00
1.420942e+01	-3.467969e+00
1.429149e+01	-3.495535e+00
1.437404e+01	-3.523273e+00
1.445706e+01	-3.551216e+00
1.454057e+01	-3.579144e+00
1.462455e+01	-3.607629e+00
1.470902e+01	-3.635644e+00
1.479398e+01	-3.664090e+00
1.487943e+01	-3.692520e+00
1.496537e+01	-3.721335e+00
1.505181e+01	-3.750456e+00
1.513875e+01	-3.779363e+00
1.522619e+01	-3.808406e+00
1.531414e+01	-3.837666e+00
1.540259e+01	-3.867160e+00
1.549156e+01	-3.896592e+00
1.558103e+01	-3.926285e+00
1.567103e+01	-3.956303e+00
1.576155e+01	-3.986189e+00
1.585258e+01	-4.016200e+00
1.594415e+01	-4.046206e+00
1.603624e+01	-4.076903e+00
1.612886e+01	-4.107379e+00
1.622202e+01	-4.138017e+00
1.631572e+01	-4.168730e+00
1.640996e+01	-4.199776e+00
1.650474e+01	-4.230937e+00
1.660008e+01	-4.262186e+00
1.669596e+01	-4.293419e+00
1.679239e+01	-4.325068e+00
1.688938e+01	-4.356590e+00
1.698694e+01	-4.388452e+00
1.708505e+01	-4.420350e+00
1.718373e+01	-4.452304e+00
1.728299e+01	-4.484249e+00
1.738281e+01	-4.516714e+00
1.748322e+01	-4.548947e+00
1.758420e+01	-4.581378e+00
1.768576e+01	-4.614210e+00
1.778792e+01	-4.647077e+00
1.789066e+01	-4.680206e+00
1.799399e+01	-4.713055e+00
1.809793e+01	-4.746152e+00
1.820246e+01	-4.779595e+00
1.830760e+01	-4.812940e+00
1.841334e+01	-4.846627e+00
1.851969e+01	-4.880200e+00
1.862666e+01	-4.914495e+00
1.873425e+01	-4.948149e+00
1.884246e+01	-4.981879e+00
1.895129e+01	-5.016314e+00
1.906075e+01	-5.050720e+00
1.917085e+01	-5.085074e+00
1.928158e+01	-5.119739e+00
1.939295e+01	-5.154530e+00
1.950496e+01	-5.189009e+00
1.961762e+01	-5.224091e+00
1.973093e+01	-5.259416e+00
1.984490e+01	-5.294559e+00
1.995952e+01	-5.329477e+00
2.007480e+01	-5.365268e+00
2.019076e+01	-5.400738e+00
2.030738e+01	-5.436265e+00
2.042467e+01	-5.471837e+00
2.054264e+01	-5.508001e+00
2.066130e+01	-5.543851e+00
2.078064e+01	-5.579896e+00
2.090066e+01	-5.616299e+00
2.102139e+01	-5.652475e+00
2.114280e+01	-5.689231e+00
2.126492e+01	-5.725625e+00
2.138775e+01	-5.762388e+00
2.151128e+01	-5.799155e+00
2.163553e+01	-5.836395e+00
2.176050e+01	-5.872931e+00
2.188619e+01	-5.910465e+00
2.201260e+01	-5.947671e+00
2.213974e+01	-5.985358e+00
2.226762e+01	-6.022419e+00
2.239624e+01	-6.059980e+00
2.252560e+01	-6.098012e+00
2.265571e+01	-6.135564e+00
2.278656e+01	-6.173621e+00
2.291818e+01	-6.211692e+00
2.305055e+01	-6.249671e+00
2.318369e+01	-6.287656e+00
2.331760e+01	-6.326048e+00
2.345228e+01	-6.364496e+00
2.358774e+01	-6.402946e+00
2.372398e+01	-6.441993e+00
2.386101e+01	-6.480070e+00
2.399883e+01	-6.519279e+00
2.413745e+01	-6.557945e+00
2.427686e+01	-6.596993e+00
2.441709e+01	-6.636081e+00
2.455812e+01	-6.675342e+00
2.469997e+01	-6.714933e+00
2.484263e+01	-6.754421e+00
2.498612e+01	-6.793859e+00
2.513044e+01	-6.833554e+00
2.527559e+01	-6.873208e+00
2.542158e+01	-6.913126e+00
2.556842e+01	-6.952566e+00
2.571610e+01	-6.992549e+00
2.586463e+01	-7.032778e+00
2.601403e+01	-7.073128e+00
2.616428e+01	-7.112926e+00
2.631541e+01	-7.153801e+00
2.646740e+01	-7.193943e+00
2.662028e+01	-7.234477e+00
2.677404e+01	-7.275115e+00
2.692868e+01	-7.315734e+00
2.708422e+01	-7.356616e+00
2.724066e+01	-7.397597e+00
2.739800e+01	-7.437982e+00
2.755625e+01	-7.479361e+00
2.771541e+01	-7.520319e+00
2.787550e+01	-7.561185e+00
2.803650e+01	-7.603203e+00
2.819844e+01	-7.644053e+00
2.836131e+01	-7.685618e+00
2.852513e+01	-7.727145e+00
2.868989e+01	-7.768973e+00
2.885560e+01	-7.811066e+00
2.902227e+01	-7.852336e+00
2.918990e+01	-7.894862e+00
2.935850e+01	-7.936800e+00
2.952807e+01	-7.978393e+00
2.969863e+01	-8.020492e+00
2.987016e+01	-8.062616e+00
3.004269e+01	-8.105286e+00
3.021622e+01	-8.147000e+00
3.039075e+01	-8.189563e+00
3.056628e+01	-8.232281e+00
3.074283e+01	-8.274282e+00
3.092040e+01	-8.317212e+00
3.109900e+01	-8.359986e+00
3.127862e+01	-8.402592e+00
3.145929e+01	-8.445611e+00
3.164099e+01	-8.488629e+00
3.182375e+01	-8.531484e+00
3.200756e+01	-8.574752e+00
3.219244e+01	-8.618085e+00
3.237838e+01	-8.660971e+00
3.256540e+01	-8.704054e+00
3.275349e+01	-8.747512e+00
3.294268e+01	-8.790828e+00
3.313295e+01	-8.833748e+00
3.332433e+01	-8.877947e+00
3.351681e+01	-8.921337e+00
3.371040e+01	-8.965068e+00
3.390511e+01	-9.009040e+00
3.410094e+01	-9.052238e+00
3.429791e+01	-9.096191e+00
3.449601e+01	-9.140279e+00
3.469526e+01	-9.184157e+00
3.489566e+01	-9.227899e+00
3.509721e+01	-9.272294e+00
3.529993e+01	-9.316146e+00
3.550382e+01	-9.360494e+00
3.570889e+01	-9.404284e+00
3.591515e+01	-9.448872e+00
3.612259e+01	-9.493319e+00
3.633123e+01	-9.537739e+00
3.654108e+01	-9.582260e+00
3.675214e+01	-9.627096e+00
3.696442e+01	-9.671627e+00
3.717792e+01	-9.716295e+00
3.739266e+01	-9.761082e+00
3.760864e+01	-9.806127e+00
3.782587e+01	-9.850418e+00
3.804435e+01	-9.895526e+00
3.826409e+01	-9.940492e+00
3.848510e+01	-9.985371e+00
3.870739e+01	-1.003008e+01
3.893096e+01	-1.007544e+01
3.915583e+01	-1.012045e+01
3.938199e+01	-1.016589e+01
3.960946e+01	-1.021116e+01
3.983824e+01	-1.025584e+01
4.006834e+01	-1.030197e+01
4.029978e+01	-1.034657e+01
4.053255e+01	-1.039253e+01
4.076666e+01	-1.043746e+01
4.100213e+01	-1.048331e+01
4.123896e+01	-1.052904e+01
4.147715e+01	-1.057458e+01
4.171672e+01	-1.062022e+01
4.195767e+01	-1.066574e+01
4.220002e+01	-1.071208e+01
4.244377e+01	-1.075783e+01
4.268892e+01	-1.080367e+01
4.293549e+01	-1.084914e+01
4.318348e+01	-1.089550e+01
4.343291e+01	-1.094135e+01
4.368377e+01	-1.098661e+01
4.393609e+01	-1.103333e+01
4.418986e+01	-1.107956e+01
4.444510e+01	-1.112577e+01
4.470182e+01	-1.117140e+01
4.496001e+01	-1.121805e+01
4.521970e+01	-1.126422e+01
4.548089e+01	-1.131105e+01
4.574358e+01	-1.135743e+01
4.600779e+01	-1.140348e+01
4.627353e+01	-1.144931e+01
4.654081e+01	-1.149630e+01
4.680963e+01	-1.154342e+01
4.708000e+01	-1.158986e+01
4.735193e+01	-1.163625e+01
4.762543e+01	-1.168166e+01
4.790051e+01	-1.172908e+01
4.817719e+01	-1.177609e+01
4.845545e+01	-1.182282e+01
4.873533e+01	-1.186910e+01
4.901682e+01	-1.191603e+01
4.929994e+01	-1.196311e+01
4.958470e+01	-1.200980e+01
4.987110e+01	-1.205757e+01
5.015915e+01	-1.210402e+01
5.044887e+01	-1.215061e+01
5.074026e+01	-1.219795e+01
5.103333e+01	-1.224480e+01
5.132810e+01	-1.229145e+01
5.162457e+01	-1.233801e+01
5.192275e+01	-1.238524e+01
5.222265e+01	-1.243246e+01
5.252429e+01	-1.248005e+01
5.282767e+01	-1.252730e+01
5.313280e+01	-1.257452e+01
5.343969e+01	-1.262122e+01
5.374836e+01	-1.266975e+01
5.405880e+01	-1.271694e+01
5.437105e+01	-1.276390e+01
5.468509e+01	-1.281086e+01
5.500095e+01	-1.285746e+01
5.531863e+01	-1.290674e+01
5.563815e+01	-1.295355e+01
5.595951e+01	-1.300083e+01
5.628273e+01	-1.304945e+01
5.660782e+01	-1.309633e+01
5.693479e+01	-1.314309e+01
5.726364e+01	-1.319185e+01
5.759439e+01	-1.323943e+01
5.792705e+01	-1.328620e+01
5.826164e+01	-1.333523e+01
5.859815e+01	-1.338248e+01
5.893662e+01	-1.343050e+01
5.927703e+01	-1.347859e+01
5.961941e+01	-1.352562e+01
5.996377e+01	-1.357374e+01
6.031012e+01	-1.362085e+01
6.065847e+01	-1.366964e+01
6.100883e+01	-1.371659e+01
6.136121e+01	-1.376479e+01
6.171563e+01	-1.381273e+01
6.207210e+01	-1.386077e+01
6.243063e+01	-1.390808e+01
6.279122e+01	-1.395730e+01
6.315390e+01	-1.400483e+01
6.351868e+01	-1.405252e+01
6.388556e+01	-1.410028e+01
6.425456e+01	-1.414952e+01
6.462569e+01	-1.419676e+01
6.499897e+01	-1.424530e+01
6.537440e+01	-1.429401e+01
6.575200e+01	-1.434074e+01
6.613178e+01	-1.439084e+01
6.651375e+01	-1.443754e+01
6.689793e+01	-1.448668e+01
6.728433e+01	-1.453496e+01
6.767297e+01	-1.458304e+01
6.806384e+01	-1.463127e+01
6.845698e+01	-1.467991e+01
6.885238e+01	-1.472718e+01
6.925007e+01	-1.477584e+01
6.965005e+01	-1.482380e+01
7.005235e+01	-1.487341e+01
7.045697e+01	-1.492182e+01
7.086393e+01	-1.496924e+01
7.127323e+01	-1.501882e+01
7.168490e+01	-1.506627e+01
7.209895e+01	-1.511495e+01
7.251539e+01	-1.516343e+01
7.293424e+01	-1.521237e+01
7.335551e+01	-1.526104e+01
7.377920e+01	-1.531007e+01
7.420535e+01	-1.535728e+01
7.463396e+01	-1.540595e+01
7.506504e+01	-1.545567e+01
7.549861e+01	-1.550257e+01
7.593469e+01	-1.555249e+01
7.637328e+01	-1.560023e+01
7.681441e+01	-1.564928e+01
7.725809e+01	-1.569937e+01
7.770433e+01	-1.574694e+01
7.815315e+01	-1.579504e+01
7.860456e+01	-1.584431e+01
7.905857e+01	-1.589314e+01
7.951521e+01	-1.594205e+01
7.997449e+01	-1.598993e+01
8.043642e+01	-1.603833e+01
8.090102e+01	-1.608767e+01
8.136830e+01	-1.613713e+01
8.183828e+01	-1.618638e+01
8.231097e+01	-1.623426e+01
8.278640e+01	-1.628275e+01
8.326457e+01	-1.633145e+01
8.374550e+01	-1.638101e+01
8.422921e+01	-1.643063e+01
8.471572e+01	-1.647887e+01
8.520503e+01	-1.652724e+01
8.569717e+01	-1.657649e+01
8.619215e+01	-1.662683e+01
8.669000e+01	-1.667399e+01
8.719071e+01	-1.672422e+01
8.769432e+01	-1.677307e+01
8.820084e+01	-1.682071e+01
8.871029e+01	-1.687142e+01
8.922267e+01	-1.691956e+01
8.973802e+01	-1.696850e+01
9.025634e+01	-1.701819e+01
9.077766e+01	-1.706527e+01
9.130199e+01	-1.711501e+01
9.182935e+01	-1.716426e+01
9.235975e+01	-1.721443e+01
9.289321e+01	-1.726314e+01
9.342976e+01	-1.731181e+01
9.396941e+01	-1.736080e+01
9.451217e+01	-1.741018e+01
9.505807e+01	-1.745912e+01
9.560712e+01	-1.750798e+01
9.615934e+01	-1.755696e+01
9.671476e+01	-1.760646e+01
9.727338e+01	-1.765540e+01
9.783522e+01	-1.770661e+01
9.840032e+01	-1.775383e+01
9.896867e+01	-1.780369e+01
9.954031e+01	-1.785398e+01
1.001153e+02	-1.790030e+01
1.006935e+02	-1.795194e+01
1.012751e+02	-1.800108e+01
1.018601e+02	-1.805038e+01
1.024484e+02	-1.809862e+01
1.030402e+02	-1.814747e+01
1.036353e+02	-1.819678e+01
1.042339e+02	-1.824714e+01
1.048360e+02	-1.829570e+01
1.054415e+02	-1.834488e+01
1.060505e+02	-1.839455e+01
1.066631e+02	-1.844409e+01
1.072791e+02	-1.849301e+01
1.078988e+02	-1.854113e+01
1.085220e+02	-1.859179e+01
1.091488e+02	-1.864152e+01
1.097793e+02	-1.869010e+01
1.104133e+02	-1.873917e+01
1.110511e+02	-1.878909e+01
1.116925e+02	-1.884029e+01
1.123376e+02	-1.888832e+01
1.129865e+02	-1.893752e+01
1.136391e+02	-1.898856e+01
1.142955e+02	-1.903752e+01
1.149556e+02	-1.908468e+01
1.156196e+02	-1.913609e+01
1.162874e+02	-1.918475e+01
1.169591e+02	-1.923474e+01
1.176347e+02	-1.928401e+01
1.183141e+02	-1.933191e+01
1.189975e+02	-1.938219e+01
1.196848e+02	-1.943120e+01
1.203761e+02	-1.948312e+01
1.210714e+02	-1.953064e+01
1.217707e+02	-1.958074e+01
1.224740e+02	-1.963016e+01
1.231814e+02	-1.967850e+01
1.238929e+02	-1.972925e+01
1.246085e+02	-1.977880e+01
1.253283e+02	-1.982709e+01
1.260522e+02	-1.987774e+01
1.267802e+02	-1.992572e+01
1.275125e+02	-1.997596e+01
1.282490e+02	-2.002383e+01
1.289898e+02	-2.007505e+01
1.297348e+02	-2.012628e+01
1.304842e+02	-2.017482e+01
1.312378e+02	-2.022167e+01
1.319959e+02	-2.027361e+01
1.327583e+02	-2.032077e+01
1.335251e+02	-2.037209e+01
1.342963e+02	-2.042220e+01
1.350720e+02	-2.047158e+01
1.358522e+02	-2.052158e+01
1.366368e+02	-2.056963e+01
1.374260e+02	-2.061949e+01
1.382198e+02	-2.066976e+01
1.390182e+02	-2.072153e+01
1.398211e+02	-2.076926e+01
1.406287e+02	-2.081953e+01
1.414410e+02	-2.086841e+01
1.422579e+02	-2.091830e+01
1.430796e+02	-2.096638e+01
1.439060e+02	-2.101788e+01
1.447372e+02	-2.106708e+01
1.455732e+02	-2.111667e+01
1.464141e+02	-2.116657e+01
1.472597e+02	-2.121515e+01
1.481103e+02	-2.126491e+01
1.489658e+02	-2.131483e+01
1.498262e+02	-2.136454e+01
1.506916e+02	-2.141595e+01
1.515620e+02	-2.146390e+01
1.524374e+02	-2.151434e+01
1.533179e+02	-2.156325e+01
1.542034e+02	-2.161376e+01
1.550941e+02	-2.166370e+01
1.559899e+02	-2.171314e+01
1.568909e+02	-2.176167e+01
1.577971e+02	-2.181315e+01
1.587085e+02	-2.186270e+01
1.596252e+02	-2.191352e+01
1.605472e+02	-2.196086e+01
1.614745e+02	-2.201007e+01
1.624072e+02	-2.206151e+01
1.633453e+02	-2.211146e+01
1.642887e+02	-2.216098e+01
1.652377e+02	-2.221000e+01
1.661921e+02	-2.226064e+01
1.671520e+02	-2.230903e+01
1.681175e+02	-2.236025e+01
1.690885e+02	-2.241139e+01
1.700651e+02	-2.245948e+01
1.710474e+02	-2.250925e+01
1.720354e+02	-2.255836e+01
1.730291e+02	-2.260776e+01
1.740285e+02	-2.265895e+01
1.750337e+02	-2.270894e+01
1.760446e+02	-2.275845e+01
1.770615e+02	-2.280903e+01
1.780842e+02	-2.285769e+01
1.791128e+02	-2.290783e+01
1.801473e+02	-2.295518e+01
1.811878e+02	-2.300592e+01
1.822344e+02	-2.305581e+01
1.832870e+02	-2.310798e+01
1.843456e+02	-2.315595e+01
1.854104e+02	-2.320603e+01
1.864813e+02	-2.325524e+01
1.875584e+02	-2.330438e+01
1.886418e+02	-2.335714e+01
1.897313e+02	-2.340579e+01
1.908272e+02	-2.345557e+01
1.919294e+02	-2.350393e+01
1.930380e+02	-2.355499e+01
1.941530e+02	-2.360384e+01
1.952744e+02	-2.365386e+01
1.964023e+02	-2.370380e+01
1.975367e+02	-2.375326e+01
1.986777e+02	-2.380601e+01
1.998252e+02	-2.385315e+01
2.009794e+02	-2.390072e+01
2.021403e+02	-2.395557e+01
2.033078e+02	-2.400221e+01
2.044821e+02	-2.405437e+01
2.056632e+02	-2.410513e+01
2.068511e+02	-2.415416e+01
2.080459e+02	-2.420045e+01
2.092475e+02	-2.425334e+01
2.104561e+02	-2.430320e+01
2.116717e+02	-2.435226e+01
2.128943e+02	-2.440073e+01
2.141240e+02	-2.445573e+01
2.153608e+02	-2.450357e+01
2.166047e+02	-2.455012e+01
2.178558e+02	-2.460252e+01
2.191141e+02	-2.465201e+01
2.203797e+02	-2.470209e+01
2.216526e+02	-2.475290e+01
2.229329e+02	-2.480232e+01
2.242205e+02	-2.485126e+01
2.255156e+02	-2.490187e+01
2.268182e+02	-2.495088e+01
2.281283e+02	-2.499972e+01
2.294459e+02	-2.505257e+01
2.307712e+02	-2.510207e+01
2.321041e+02	-2.515165e+01
2.334447e+02	-2.519920e+01
2.347931e+02	-2.524847e+01
2.361493e+02	-2.529980e+01
2.375133e+02	-2.534835e+01
2.388851e+02	-2.540275e+01
2.402649e+02	-2.544781e+01
2.416527e+02	-2.550138e+01
2.430484e+02	-2.555010e+01
2.444523e+02	-2.559763e+01
2.458642e+02	-2.565122e+01
2.472843e+02	-2.569846e+01
2.487126e+02	-2.574824e+01
2.501492e+02	-2.579804e+01
2.515940e+02	-2.584890e+01
2.530472e+02	-2.590202e+01
2.545088e+02	-2.594678e+01
2.559789e+02	-2.600185e+01
2.574574e+02	-2.604870e+01
2.589444e+02	-2.609983e+01
2.604401e+02	-2.614712e+01
2.619444e+02	-2.619852e+01
2.634574e+02	-2.625169e+01
2.649791e+02	-2.630206e+01
2.665096e+02	-2.634790e+01
2.680489e+02	-2.639792e+01
2.695972e+02	-2.644935e+01
2.711544e+02	-2.649772e+01
2.727205e+02	-2.654844e+01
2.742958e+02	-2.660194e+01
2.758801e+02	-2.665048e+01
2.774736e+02	-2.669895e+01
2.790762e+02	-2.675040e+01
2.806882e+02	-2.679854e+01
2.823094e+02	-2.685000e+01
2.839400e+02	-2.689801e+01
2.855800e+02	-2.694625e+01
2.872295e+02	-2.699658e+01
2.888886e+02	-2.704728e+01
2.905572e+02	-2.710155e+01
2.922354e+02	-2.715023e+01
2.939234e+02	-2.719913e+01
2.956211e+02	-2.724670e+01
2.973286e+02	-2.729873e+01
2.990459e+02	-2.734922e+01
3.007732e+02	-2.740199e+01
3.025104e+02	-2.744938e+01
3.042577e+02	-2.750281e+01
3.060151e+02	-2.755195e+01
3.077826e+02	-2.760302e+01
3.095604e+02	-2.764690e+01
3.113484e+02	-2.769391e+01
3.131467e+02	-2.774672e+01
3.149554e+02	-2.780045e+01
3.167746e+02	-2.784837e+01
3.186043e+02	-2.790155e+01
3.204445e+02	-2.795105e+01
3.222954e+02	-2.800062e+01
3.241570e+02	-2.804732e+01
3.260293e+02	-2.809944e+01
3.279124e+02	-2.814762e+01
3.298064e+02	-2.820176e+01
3.317114e+02	-2.825402e+01
3.336273e+02	-2.830091e+01
3.355544e+02	-2.834898e+01
3.374925e+02	-2.839820e+01
3.394418e+02	-2.845004e+01
3.414024e+02	-2.849852e+01
3.433744e+02	-2.854676e+01
3.453577e+02	-2.859996e+01
3.473525e+02	-2.864719e+01
3.493588e+02	-2.870216e+01
3.513766e+02	-2.874694e+01
3.534062e+02	-2.879923e+01
3.554474e+02	-2.885142e+01
3.575005e+02	-2.889940e+01
3.595654e+02	-2.894857e+01
3.616422e+02	-2.899848e+01
3.637311e+02	-2.904953e+01
3.658320e+02	-2.910211e+01
3.679450e+02	-2.915479e+01
3.700702e+02	-2.920059e+01
3.722077e+02	-2.925397e+01
3.743576e+02	-2.929910e+01
3.765199e+02	-2.935287e+01
3.786946e+02	-2.940291e+01
3.808820e+02	-2.945000e+01
3.830819e+02	-2.950710e+01
3.852946e+02	-2.955317e+01
3.875200e+02	-2.960396e+01
3.897583e+02	-2.965170e+01
3.920096e+02	-2.970309e+01
3.942738e+02	-2.975101e+01
3.965511e+02	-2.980376e+01
3.988416e+02	-2.985164e+01
4.011452e+02	-2.990512e+01
4.034622e+02	-2.995147e+01
4.057926e+02	-3.000326e+01
4.081365e+02	-3.005000e+01
4.104938e+02	-3.010562e+01
4.128648e+02	-3.015109e+01
4.152495e+02	-3.020007e+01
4.176480e+02	-3.025837e+01
4.200603e+02	-3.030011e+01
4.224866e+02	-3.034823e+01
4.249268e+02	-3.040761e+01
4.273812e+02	-3.045297e+01
4.298497e+02	-3.050258e+01
4.323325e+02	-3.055217e+01
4.348297e+02	-3.059960e+01
4.373412e+02	-3.065290e+01
4.398673e+02	-3.070320e+01
4.424079e+02	-3.075358e+01
4.449633e+02	-3.080369e+01
4.475334e+02	-3.085048e+01
4.501183e+02	-3.090295e+01
4.527182e+02	-3.095346e+01
4.553330e+02	-3.100698e+01
4.579630e+02	-3.105869e+01
4.606082e+02	-3.110370e+01
4.632687e+02	-3.115672e+01
4.659445e+02	-3.120786e+01
4.686358e+02	-3.125626e+01
4.713426e+02	-3.131099e+01
4.740650e+02	-3.135737e+01
4.768032e+02	-3.140549e+01
4.795572e+02	-3.145904e+01
4.823271e+02	-3.150614e+01
4.851130e+02	-3.155738e+01
4.879150e+02	-3.160224e+01
4.907332e+02	-3.165500e+01
4.935676e+02	-3.170712e+01
4.964185e+02	-3.175333e+01
4.992858e+02	-3.180788e+01
5.021696e+02	-3.186273e+01
5.050701e+02	-3.190709e+01
5.079874e+02	-3.196335e+01
5.109215e+02	-3.200721e+01
5.138726e+02	-3.206121e+01
5.168407e+02	-3.210719e+01
5.198259e+02	-3.215708e+01
5.228284e+02	-3.221532e+01
5.258482e+02	-3.225435e+01
5.288855e+02	-3.231349e+01
5.319403e+02	-3.236119e+01
5.350128e+02	-3.241108e+01
5.381030e+02	-3.246456e+01
5.412111e+02	-3.251195e+01
5.443371e+02	-3.256161e+01
5.474812e+02	-3.261262e+01
5.506434e+02	-3.266456e+01
5.538239e+02	-3.270698e+01
5.570228e+02	-3.276243e+01
5.602401e+02	-3.281391e+01
5.634760e+02	-3.285840e+01
5.667306e+02	-3.291615e+01
5.700040e+02	-3.296916e+01
5.732964e+02	-3.300983e+01
5.766077e+02	-3.306232e+01
5.799382e+02	-3.311173e+01
5.832879e+02	-3.315940e+01
5.866569e+02	-3.321177e+01
5.900454e+02	-3.326916e+01
5.934535e+02	-3.331729e+01
5.968813e+02	-3.336277e+01
6.003288e+02	-3.341694e+01
6.037963e+02	-3.346847e+01
6.072838e+02	-3.351759e+01
6.107914e+02	-3.356658e+01
6.143194e+02	-3.361205e+01
6.178676e+02	-3.366407e+01
6.214364e+02	-3.371544e+01
6.250258e+02	-3.376320e+01
6.286359e+02	-3.381429e+01
6.322669e+02	-3.387185e+01
6.359189e+02	-3.392445e+01
6.395919e+02	-3.397173e+01
6.432862e+02	-3.402358e+01
6.470017e+02	-3.406810e+01
6.507388e+02	-3.412101e+01
6.544974e+02	-3.417193e+01
6.582778e+02	-3.422231e+01
6.620800e+02	-3.427800e+01
6.659041e+02	-3.432382e+01
6.697504e+02	-3.436785e+01
6.736188e+02	-3.443230e+01
6.775096e+02	-3.447756e+01
6.814229e+02	-3.452921e+01
6.853587e+02	-3.457393e+01
6.893173e+02	-3.461862e+01
6.932988e+02	-3.467181e+01
6.973033e+02	-3.471912e+01
7.013309e+02	-3.477654e+01
