Frequency(Hz)	Magnitude(dB)
1.000000e+01	-2.111266e+00
1.005776e+01	-2.130684e+00
1.011585e+01	-2.150181e+00
1.017428e+01	-2.169775e+00
1.023305e+01	-2.189591e+00
1.029215e+01	-2.209199e+00
1.035160e+01	-2.229206e+00
1.041139e+01	-2.249517e+00
1.047153e+01	-2.269640e+00
1.053201e+01	-2.290033e+00
1.059284e+01	-2.310938e+00
1.065403e+01	-2.331687e+00
1.071556e+01	-2.352353e+00
1.077746e+01	-2.373374e+00
1.083971e+01	-2.394538e+00
1.090232e+01	-2.415742e+00
1.096529e+01	-2.437026e+00
1.102862e+01	-2.458717e+00
1.109232e+01	-2.480296e+00
1.115639e+01	-2.502417e+00
1.122083e+01	-2.524365e+00
1.128564e+01	-2.546222e+00
1.135083e+01	-2.568441e+00
1.141639e+01	-2.590942e+00
1.148233e+01	-2.613687e+00
1.154865e+01	-2.636143e+00
1.161536e+01	-2.659102e+00
1.168245e+01	-2.682177e+00
1.174992e+01	-2.705240e+00
1.181779e+01	-2.728384e+00
1.188605e+01	-2.752116e+00
1.195470e+01	-2.775408e+00
1.202375e+01	-2.799215e+00
1.209320e+01	-2.822996e+00
1.216305e+01	-2.846867e+00
1.223330e+01	-2.871011e+00
1.230396e+01	-2.895210e+00
1.237503e+01	-2.919603e+00
1.244651e+01	-2.944421e+00
1.251840e+01	-2.969043e+00
1.259070e+01	-2.993902e+00
1.266343e+01	-3.018907e+00
1.273657e+01	-3.044128e+00
1.281014e+01	-3.069149e+00
1.288413e+01	-3.094581e+00
1.295855e+01	-3.120263e+00
1.303339e+01	-3.145912e+00
1.310867e+01	-3.171971e+00
1.318439e+01	-3.197703e+00
1.326054e+01	-3.223928e+00
1.333713e+01	-3.250369e+00
1.341417e+01	-3.276767e+00
1.349165e+01	-3.303191e+00
1.356958e+01	-3.329936e+00
1.364795e+01	-3.356741e+00
1.372678e+01	-3.383785e+00
1.380607e+01	-3.410955e+00
1.388581e+01	-3.438259e+00
1.396602e+01	-3.465672e+00
1.404668e+01	-3.493221e+00
1.412782e+01	-3.521202e+00
1.420942e+01	-3.548920e+00
1.429149e+01	-3.576986e+00
1.437404e+01	-3.605009e+00
1.445706e+01	-3.633301e+00
1.454057e+01	-3.661680e+00
1.462455e+01	-3.690175e+00
1.470902e+01	-3.718874e+00
1.479398e+01	-3.747820e+00
1.487943e+01	-3.776757e+00
1.496537e+01	-3.805730e+00
1.505181e+01	-3.835191e+00
1.513875e+01	-3.864830e+00
1.522619e+01	-3.894263e+00
1.531414e+01	-3.923568e+00
1.540259e+01	-3.953780e+00
1.549156e+01	-3.983790e+00
1.558103e+01	-4.013889e+00
1.567103e+01	-4.044032e+00
1.576155e+01	-4.074252e+00
1.585258e+01	-4.104616e+00
1.594415e+01	-4.135445e+00
1.603624e+01	-4.166386e+00
1.612886e+01	-4.197371e+00
1.622202e+01	-4.228122e+00
1.631572e+01	-4.259604e+00
1.640996e+01	-4.290892e+00
1.650474e+01	-4.322405e+00
1.660008e+01	-4.353777e+00
1.669596e+01	-4.385675e+00
1.679239e+01	-4.417592e+00
1.688938e+01	-4.449675e+00
1.698694e+01	-4.481800e+00
1.708505e+01	-4.513758e+00
1.718373e+01	-4.546181e+00
1.728299e+01	-4.578939e+00
1.738281e+01	-4.611854e+00
1.748322e+01	-4.644308e+00
1.758420e+01	-4.677015e+00
1.768576e+01	-4.710296e+00
1.778792e+01	-4.743305e+00
1.789066e+01	-4.776894e+00
1.799399e+01	-4.810256e+00
1.809793e+01	-4.843806e+00
1.820246e+01	-4.877510e+00
1.830760e+01	-4.911106e+00
1.841334e+01	-4.945148e+00
1.851969e+01	-4.979448e+00
1.862666e+01	-5.013515e+00
1.873425e+01	-5.047669e+00
1.884246e+01	-5.082083e+00
1.895129e+01	-5.116613e+00
1.906075e+01	-5.151462e+00
1.917085e+01	-5.186200e+00
1.928158e+01	-5.221251e+00
1.939295e+01	-5.255904e+00
1.950496e+01	-5.291181e+00
1.961762e+01	-5.326451e+00
1.973093e+01	-5.361955e+00
1.984490e+01	-5.398047e+00
1.995952e+01	-5.433428e+00
2.007480e+01	-5.468814e+00
2.019076e+01	-5.505144e+00
2.030738e+01	-5.540965e+00
2.042467e+01	-5.576963e+00
2.054264e+01	-5.613407e+00
2.066130e+01	-5.649945e+00
2.078064e+01	-5.686449e+00
2.090066e+01	-5.722792e+00
2.102139e+01	-5.759421e+00
2.114280e+01	-5.796067e+00
2.126492e+01	-5.832946e+00
2.138775e+01	-5.870150e+00
2.151128e+01	-5.907146e+00
2.163553e+01	-5.944231e+00
2.176050e+01	-5.981863e+00
2.188619e+01	-6.019311e+00
2.201260e+01	-6.057012e+00
2.213974e+01	-6.094420e+00
2.226762e+01	-6.132547e+00
2.239624e+01	-6.170123e+00
2.252560e+01	-6.208404e+00
2.265571e+01	-6.246238e+00
2.278656e+01	-6.284594e+00
2.291818e+01	-6.322979e+00
2.305055e+01	-6.361548e+00
2.318369e+01	-6.399712e+00
2.331760e+01	-6.438599e+00
2.345228e+01	-6.476950e+00
2.358774e+01	-6.515661e+00
2.372398e+01	-6.554845e+00
2.386101e+01	-6.593699e+00
2.399883e+01	-6.632880e+00
2.413745e+01	-6.672331e+00
2.427686e+01	-6.711638e+00
2.441709e+01	-6.750767e+00
2.455812e+01	-6.790224e+00
2.469997e+01	-6.829934e+00
2.484263e+01	-6.869340e+00
2.498612e+01	-6.909389e+00
2.513044e+01	-6.949504e+00
2.527559e+01	-6.989032e+00
2.542158e+01	-7.029629e+00
2.556842e+01	-7.069193e+00
2.571610e+01	-7.109655e+00
2.586463e+01	-7.150014e+00
2.601403e+01	-7.190467e+00
2.616428e+01	-7.231048e+00
2.631541e+01	-7.271776e+00
2.646740e+01	-7.312275e+00
2.662028e+01	-7.353045e+00
2.677404e+01	-7.393908e+00
2.692868e+01	-7.434966e+00
2.708422e+01	-7.475711e+00
2.724066e+01	-7.517159e+00
2.739800e+01	-7.558411e+00
2.755625e+01	-7.599507e+00
2.771541e+01	-7.640994e+00
2.787550e+01	-7.682378e+00
2.803650e+01	-7.723886e+00
2.819844e+01	-7.765165e+00
2.836131e+01	-7.807634e+00
2.852513e+01	-7.848822e+00
2.868989e+01	-7.891070e+00
2.885560e+01	-7.932820e+00
2.902227e+01	-7.974841e+00
2.918990e+01	-8.016785e+00
2.935850e+01	-8.059143e+00
2.952807e+01	-8.101542e+00
2.969863e+01	-8.143519e+00
2.987016e+01	-8.186093e+00
3.004269e+01	-8.228507e+00
3.021622e+01	-8.271351e+00
3.039075e+01	-8.313864e+00
3.056628e+01	-8.356709e+00
3.074283e+01	-8.399089e+00
3.092040e+01	-8.441967e+00
3.109900e+01	-8.484935e+00
3.127862e+01	-8.527695e+00
3.145929e+01	-8.570914e+00
3.164099e+01	-8.613842e+00
3.182375e+01	-8.657291e+00
3.200756e+01	-8.700102e+00
3.219244e+01	-8.744090e+00
3.237838e+01	-8.787134e+00
3.256540e+01	-8.830156e+00
3.275349e+01	-8.874056e+00
3.294268e+01	-8.918014e+00
3.313295e+01	-8.961532e+00
3.332433e+01	-9.005128e+00
3.351681e+01	-9.048381e+00
3.371040e+01	-9.092741e+00
3.390511e+01	-9.136167e+00
3.410094e+01	-9.180299e+00
3.429791e+01	-9.224530e+00
3.449601e+01	-9.268332e+00
3.469526e+01	-9.312999e+00
3.489566e+01	-9.356690e+00
3.509721e+01	-9.401278e+00
3.529993e+01	-9.445455e+00
3.550382e+01	-9.489622e+00
3.570889e+01	-9.534249e+00
3.591515e+01	-9.578770e+00
3.612259e+01	-9.623059e+00
3.633123e+01	-9.668047e+00
3.654108e+01	-9.712476e+00
3.675214e+01	-9.757354e+00
3.696442e+01	-9.801959e+00
3.717792e+01	-9.846590e+00
3.739266e+01	-9.891854e+00
3.760864e+01	-9.936481e+00
3.782587e+01	-9.981328e+00
3.804435e+01	-1.002625e+01
3.826409e+01	-1.007188e+01
3.848510e+01	-1.011670e+01
3.870739e+01	-1.016207e+01
3.893096e+01	-1.020716e+01
3.915583e+01	-1.025204e+01
3.938199e+01	-1.029782e+01
3.960946e+01	-1.034345e+01
3.983824e+01	-1.038847e+01
4.006834e+01	-1.043480e+01
4.029978e+01	-1.047924e+01
4.053255e+01	-1.052496e+01
4.076666e+01	-1.057092e+01
4.100213e+01	-1.061657e+01
4.123896e+01	-1.066232e+01
4.147715e+01	-1.070741e+01
4.171672e+01	-1.075377e+01
4.195767e+01	-1.079984e+01
4.220002e+01	-1.084508e+01
4.244377e+01	-1.089159e+01
4.268892e+01	-1.093736e+01
4.293549e+01	-1.098326e+01
4.318348e+01	-1.102954e+01
4.343291e+01	-1.107531e+01
4.368377e+01	-1.112201e+01
4.393609e+01	-1.116779e+01
4.418986e+01	-1.121406e+01
4.444510e+01	-1.126053e+01
4.470182e+01	-1.130657e+01
4.496001e+01	-1.135347e+01
4.521970e+01	-1.139924e+01
4.548089e+01	-1.144576e+01
4.574358e+01	-1.149219e+01
4.600779e+01	-1.153835e+01
4.627353e+01	-1.158487e+01
4.654081e+01	-1.163154e+01
4.680963e+01	-1.167874e+01
4.708000e+01	-1.172558e+01
4.735193e+01	-1.177161e+01
4.762543e+01	-1.181854e+01
4.790051e+01	-1.186549e+01
4.817719e+01	-1.191225e+01
4.845545e+01	-1.195861e+01
4.873533e+01	-1.200586e+01
4.901682e+01	-1.205296e+01
4.929994e+01	-1.210009e+01
4.958470e+01	-1.214655e+01
4.987110e+01	-1.219375e+01
5.015915e+01	-1.224100e+01
5.044887e+01	-1.228691e+01
5.074026e+01	-1.233435e+01
5.103333e+01	-1.238170e+01
5.132810e+01	-1.242859e+01
5.162457e+01	-1.247549e+01
5.192275e+01	-1.252279e+01
5.222265e+01	-1.257093e+01
5.252429e+01	-1.261763e+01
5.282767e+01	-1.266491e+01
5.313280e+01	-1.271258e+01
5.343969e+01	-1.276015e+01
5.374836e+01	-1.280749e+01
5.405880e+01	-1.285484e+01
5.437105e+01	-1.290165e+01
5.468509e+01	-1.295016e+01
5.500095e+01	-1.299678e+01
5.531863e+01	-1.304509e+01
5.563815e+01	-1.309225e+01
5.595951e+01	-1.313957e+01
5.628273e+01	-1.318717e+01
5.660782e+01	-1.323512e+01
5.693479e+01	-1.328265e+01
5.726364e+01	-1.333097e+01
5.759439e+01	-1.337790e+01
5.792705e+01	-1.342556e+01
5.826164e+01	-1.347276e+01
5.859815e+01	-1.352148e+01
5.893662e+01	-1.356945e+01
5.927703e+01	-1.361727e+01
5.961941e+01	-1.366487e+01
5.996377e+01	-1.371218e+01
6.031012e+01	-1.376117e+01
6.065847e+01	-1.380833e+01
6.100883e+01	-1.385698e+01
6.136121e+01	-1.390457e+01
6.171563e+01	-1.395309e+01
6.207210e+01	-1.400020e+01
6.243063e+01	-1.404829e+01
6.279122e+01	-1.409660e+01
6.315390e+01	-1.414449e+01
6.351868e+01	-1.419297e+01
6.388556e+01	-1.424090e+01
6.425456e+01	-1.428875e+01
6.462569e+01	-1.433707e+01
6.499897e+01	-1.438602e+01
6.537440e+01	-1.443407e+01
6.575200e+01	-1.448266e+01
6.613178e+01	-1.453022e+01
6.651375e+01	-1.457841e+01
6.689793e+01	-1.462724e+01
6.728433e+01	-1.467524e+01
6.767297e+01	-1.472277e+01
6.806384e+01	-1.477136e+01
6.845698e+01	-1.482074e+01
6.885238e+01	-1.486826e+01
6.925007e+01	-1.491706e+01
6.965005e+01	-1.496489e+01
7.005235e+01	-1.501421e+01
7.045697e+01	-1.506180e+01
7.086393e+01	-1.511082e+01
7.127323e+01	-1.515889e+01
7.168490e+01	-1.520859e+01
7.209895e+01	-1.525629e+01
7.251539e+01	-1.530484e+01
7.293424e+01	-1.535374e+01
7.335551e+01	-1.540243e+01
7.377920e+01	-1.545064e+01
7.420535e+01	-1.550003e+01
7.463396e+01	-1.554707e+01
7.506504e+01	-1.559790e+01
7.549861e+01	-1.564540e+01
7.593469e+01	-1.569374e+01
7.637328e+01	-1.574234e+01
7.681441e+01	-1.579130e+01
7.725809e+01	-1.583950e+01
7.770433e+01	-1.588875e+01
7.815315e+01	-1.593766e+01
7.860456e+01	-1.598688e+01
7.905857e+01	-1.603508e+01
7.951521e+01	-1.608296e+01
7.997449e+01	-1.613239e+01
8.043642e+01	-1.618027e+01
8.090102e+01	-1.623020e+01
8.136830e+01	-1.627922e+01
8.183828e+01	-1.632795e+01
8.231097e+01	-1.637705e+01
8.278640e+01	-1.642524e+01
8.326457e+01	-1.647494e+01
8.374550e+01	-1.652292e+01
8.422921e+01	-1.657248e+01
8.471572e+01	-1.662225e+01
8.520503e+01	-1.667080e+01
8.569717e+01	-1.671940e+01
8.619215e+01	-1.676845e+01
8.669000e+01	-1.681830e+01
8.719071e+01	-1.686605e+01
8.769432e+01	-1.691551e+01
8.820084e+01	-1.696474e+01
8.871029e+01	-1.701347e+01
8.922267e+01	-1.706337e+01
8.973802e+01	-1.711060e+01
9.025634e+01	-1.716127e+01
9.077766e+01	-1.720933e+01
9.130199e+01	-1.725744e+01
9.182935e+01	-1.730815e+01
9.235975e+01	-1.735723e+01
9.289321e+01	-1.740560e+01
9.342976e+01	-1.745501e+01
9.396941e+01	-1.750323e+01
9.451217e+01	-1.755360e+01
9.505807e+01	-1.760372e+01
9.560712e+01	-1.765248e+01
9.615934e+01	-1.770093e+01
9.671476e+01	-1.774951e+01
9.727338e+01	-1.779773e+01
9.783522e+01	-1.784815e+01
9.840032e+01	-1.789881e+01
9.896867e+01	-1.794723e+01
9.954031e+01	-1.799626e+01
1.001153e+02	-1.804632e+01
1.006935e+02	-1.809539e+01
1.012751e+02	-1.814329e+01
1.018601e+02	-1.819289e+01
1.024484e+02	-1.824269e+01
1.030402e+02	-1.829156e+01
1.036353e+02	-1.833972e+01
1.042339e+02	-1.838983e+01
1.048360e+02	-1.843820e+01
1.054415e+02	-1.848971e+01
1.060505e+02	-1.853847e+01
1.066631e+02	-1.858799e+01
1.072791e+02	-1.863683e+01
1.078988e+02	-1.868670e+01
1.085220e+02	-1.873616e+01
1.091488e+02	-1.878512e+01
1.097793e+02	-1.883260e+01
1.104133e+02	-1.888409e+01
1.110511e+02	-1.893296e+01
1.116925e+02	-1.898199e+01
1.123376e+02	-1.903268e+01
1.129865e+02	-1.908218e+01
1.136391e+02	-1.912985e+01
1.142955e+02	-1.918035e+01
1.149556e+02	-1.922889e+01
1.156196e+02	-1.927953e+01
1.162874e+02	-1.932871e+01
1.169591e+02	-1.937765e+01
1.176347e+02	-1.942803e+01
1.183141e+02	-1.947604e+01
1.189975e+02	-1.952571e+01
1.196848e+02	-1.957536e+01
1.203761e+02	-1.962461e+01
1.210714e+02	-1.967442e+01
1.217707e+02	-1.972376e+01
1.224740e+02	-1.977447e+01
1.231814e+02	-1.982278e+01
1.238929e+02	-1.987125e+01
1.246085e+02	-1.992240e+01
1.253283e+02	-1.997164e+01
1.260522e+02	-2.002134e+01
1.267802e+02	-2.006970e+01
1.275125e+02	-2.011989e+01
1.282490e+02	-2.017127e+01
1.289898e+02	-2.021817e+01
1.297348e+02	-2.027041e+01
1.304842e+02	-2.031928e+01
1.312378e+02	-2.037015e+01
1.319959e+02	-2.041866e+01
1.327583e+02	-2.046696e+01
1.335251e+02	-2.051558e+01
1.342963e+02	-2.056874e+01
1.350720e+02	-2.061414e+01
1.358522e+02	-2.066647e+01
1.366368e+02	-2.071512e+01
1.374260e+02	-2.076480e+01
1.382198e+02	-2.081516e+01
1.390182e+02	-2.086591e+01
1.398211e+02	-2.091487e+01
1.406287e+02	-2.096138e+01
1.414410e+02	-2.101290e+01
1.422579e+02	-2.106384e+01
1.430796e+02	-2.111349e+01
1.439060e+02	-2.116174e+01
1.447372e+02	-2.121172e+01
1.455732e+02	-2.126095e+01
1.464141e+02	-2.131102e+01
1.472597e+02	-2.136074e+01
1.481103e+02	-2.141123e+01
1.489658e+02	-2.145926e+01
1.498262e+02	-2.150992e+01
1.506916e+02	-2.155959e+01
1.515620e+02	-2.161059e+01
1.524374e+02	-2.165923e+01
1.533179e+02	-2.170899e+01
1.542034e+02	-2.175930e+01
1.550941e+02	-2.180883e+01
1.559899e+02	-2.185879e+01
1.568909e+02	-2.190831e+01
1.577971e+02	-2.195883e+01
1.587085e+02	-2.200905e+01
1.596252e+02	-2.205663e+01
1.605472e+02	-2.210643e+01
1.614745e+02	-2.215634e+01
1.624072e+02	-2.220906e+01
1.633453e+02	-2.225612e+01
1.642887e+02	-2.230381e+01
1.652377e+02	-2.235558e+01
1.661921e+02	-2.240599e+01
1.671520e+02	-2.245331e+01
1.681175e+02	-2.250256e+01
1.690885e+02	-2.255493e+01
1.700651e+02	-2.260444e+01
1.710474e+02	-2.265440e+01
1.720354e+02	-2.270501e+01
1.730291e+02	-2.275281e+01
1.740285e+02	-2.280591e+01
1.750337e+02	-2.285271e+01
1.760446e+02	-2.290136e+01
1.770615e+02	-2.295285e+01
1.780842e+02	-2.300293e+01
1.791128e+02	-2.305109e+01
1.801473e+02	-2.310212e+01
1.811878e+02	-2.315135e+01
1.822344e+02	-2.320054e+01
1.832870e+02	-2.325046e+01
1.843456e+02	-2.330028e+01
1.854104e+02	-2.335082e+01
1.864813e+02	-2.340107e+01
1.875584e+02	-2.345077e+01
1.886418e+02	-2.349947e+01
1.897313e+02	-2.354985e+01
1.908272e+02	-2.360157e+01
1.919294e+02	-2.365101e+01
1.930380e+02	-2.370089e+01
1.941530e+02	-2.375049e+01
1.952744e+02	-2.379986e+01
1.964023e+02	-2.384796e+01
1.975367e+02	-2.389871e+01
1.986777e+02	-2.394888e+01
1.998252e+02	-2.400039e+01
2.009794e+02	-2.404750e+01
2.021403e+02	-2.410007e+01
2.033078e+02	-2.415067e+01
2.044821e+02	-2.419786e+01
2.056632e+02	-2.424902e+01
2.068511e+02	-2.430084e+01
2.080459e+02	-2.434787e+01
2.092475e+02	-2.439755e+01
2.104561e+02	-2.444642e+01
2.116717e+02	-2.449613e+01
2.128943e+02	-2.454805e+01
2.141240e+02	-2.459619e+01
2.153608e+02	-2.464730e+01
2.166047e+02	-2.469517e+01
2.178558e+02	-2.474762e+01
2.191141e+02	-2.479606e+01
2.203797e+02	-2.484487e+01
2.216526e+02	-2.489433e+01
2.229329e+02	-2.494808e+01
2.242205e+02	-2.499629e+01
2.255156e+02	-2.504825e+01
2.268182e+02	-2.509564e+01
2.281283e+02	-2.514709e+01
2.294459e+02	-2.519450e+01
2.307712e+02	-2.524674e+01
2.321041e+02	-2.529701e+01
2.334447e+02	-2.534651e+01
2.347931e+02	-2.539590e+01
2.361493e+02	-2.544820e+01
2.375133e+02	-2.549703e+01
2.388851e+02	-2.554574e+01
2.402649e+02	-2.559475e+01
2.416527e+02	-2.564710e+01
2.430484e+02	-2.569507e+01
2.444523e+02	-2.574893e+01
2.458642e+02	-2.579620e+01
2.472843e+02	-2.584728e+01
2.487126e+02	-2.589533e+01
2.501492e+02	-2.594813e+01
2.515940e+02	-2.599516e+01
2.530472e+02	-2.604323e+01
2.545088e+02	-2.609670e+01
2.559789e+02	-2.614608e+01
2.574574e+02	-2.619371e+01
2.589444e+02	-2.624339e+01
2.604401e+02	-2.629506e+01
2.619444e+02	-2.634719e+01
2.634574e+02	-2.639226e+01
2.649791e+02	-2.644284e+01
2.665096e+02	-2.649290e+01
2.680489e+02	-2.654636e+01
2.695972e+02	-2.659141e+01
2.711544e+02	-2.664446e+01
2.727205e+02	-2.669319e+01
2.742958e+02	-2.674723e+01
2.758801e+02	-2.679145e+01
2.774736e+02	-2.684494e+01
2.790762e+02	-2.689689e+01
2.806882e+02	-2.694407e+01
2.823094e+02	-2.699456e+01
2.839400e+02	-2.704470e+01
2.855800e+02	-2.709225e+01
2.872295e+02	-2.714506e+01
2.888886e+02	-2.719304e+01
2.905572e+02	-2.724468e+01
2.922354e+02	-2.729311e+01
2.939234e+02	-2.734317e+01
2.956211e+02	-2.739496e+01
2.973286e+02	-2.744351e+01
2.990459e+02	-2.749617e+01
3.007732e+02	-2.754306e+01
3.025104e+02	-2.759242e+01
3.042577e+02	-2.764238e+01
3.060151e+02	-2.769528e+01
3.077826e+02	-2.774451e+01
3.095604e+02	-2.779320e+01
3.113484e+02	-2.784284e+01
3.131467e+02	-2.789210e+01
3.149554e+02	-2.794828e+01
3.167746e+02	-2.799390e+01
3.186043e+02	-2.804152e+01
3.204445e+02	-2.809306e+01
3.222954e+02	-2.814767e+01
3.241570e+02	-2.819091e+01
3.260293e+02	-2.824107e+01
3.279124e+02	-2.829261e+01
3.298064e+02	-2.834571e+01
3.317114e+02	-2.839446e+01
3.336273e+02	-2.844021e+01
3.355544e+02	-2.849619e+01
3.374925e+02	-2.854285e+01
3.394418e+02	-2.859706e+01
3.414024e+02	-2.864340e+01
3.433744e+02	-2.869716e+01
3.453577e+02	-2.874575e+01
3.473525e+02	-2.879058e+01
3.493588e+02	-2.884684e+01
3.513766e+02	-2.889589e+01
3.534062e+02	-2.894578e+01
3.554474e+02	-2.899052e+01
3.575005e+02	-2.904832e+01
3.595654e+02	-2.909680e+01
3.616422e+02	-2.914365e+01
3.637311e+02	-2.919726e+01
3.658320e+02	-2.924589e+01
3.679450e+02	-2.929457e+01
3.700702e+02	-2.934796e+01
3.722077e+02	-2.940006e+01
3.743576e+02	-2.944714e+01
3.765199e+02	-2.949717e+01
3.786946e+02	-2.954839e+01
3.808820e+02	-2.959857e+01
3.830819e+02	-2.964784e+01
3.852946e+02	-2.969425e+01
3.875200e+02	-2.974375e+01
3.897583e+02	-2.979783e+01
3.920096e+02	-2.984455e+01
3.942738e+02	-2.990298e+01
3.965511e+02	-2.994558e+01
3.988416e+02	-2.999331e+01
4.011452e+02	-3.004589e+01
4.034622e+02	-3.009926e+01
4.057926e+02	-3.015211e+01
4.081365e+02	-3.019550e+01
4.104938e+02	-3.024397e+01
4.128648e+02	-3.030202e+01
4.152495e+02	-3.034980e+01
4.176480e+02	-3.039646e+01
4.200603e+02	-3.045247e+01
4.224866e+02	-3.050002e+01
4.249268e+02	-3.054444e+01
4.273812e+02	-3.060364e+01
4.298497e+02	-3.064401e+01
4.323325e+02	-3.069993e+01
4.348297e+02	-3.075328e+01
4.373412e+02	-3.080416e+01
4.398673e+02	-3.085144e+01
4.424079e+02	-3.090089e+01
4.449633e+02	-3.094936e+01
4.475334e+02	-3.099681e+01
4.501183e+02	-3.105033e+01
4.527182e+02	-3.109721e+01
4.553330e+02	-3.114530e+01
4.579630e+02	-3.120282e+01
4.606082e+02	-3.124353e+01
4.632687e+02	-3.130233e+01
4.659445e+02	-3.135147e+01
4.686358e+02	-3.139643e+01
4.713426e+02	-3.145421e+01
4.740650e+02	-3.150423e+01
4.768032e+02	-3.155328e+01
4.795572e+02	-3.159942e+01
4.823271e+02	-3.164983e+01
4.851130e+02	-3.170700e+01
4.879150e+02	-3.175038e+01
4.907332e+02	-3.180273e+01
4.935676e+02	-3.185394e+01
4.964185e+02	-3.190184e+01
4.992858e+02	-3.195631e+01
5.021696e+02	-3.200965e+01
5.050701e+02	-3.205443e+01
5.079874e+02	-3.211128e+01
5.109215e+02	-3.215512e+01
5.138726e+02	-3.219746e+01
5.168407e+02	-3.224758e+01
5.198259e+02	-3.230241e+01
5.228284e+02	-3.235206e+01
5.258482e+02	-3.240493e+01
5.288855e+02	-3.244816e+01
5.319403e+02	-3.250836e+01
5.350128e+02	-3.255580e+01
5.381030e+02	-3.260453e+01
5.412111e+02	-3.265414e+01
5.443371e+02	-3.270312e+01
5.474812e+02	-3.275401e+01
5.506434e+02	-3.279960e+01
5.538239e+02	-3.285176e+01
5.570228e+02	-3.290587e+01
5.602401e+02	-3.296280e+01
5.634760e+02	-3.300124e+01
5.667306e+02	-3.304918e+01
5.700040e+02	-3.310529e+01
5.732964e+02	-3.315576e+01
5.766077e+02	-3.320593e+01
5.799382e+02	-3.326118e+01
5.832879e+02	-3.331228e+01
5.866569e+02	-3.335477e+01
5.900454e+02	-3.340960e+01
5.934535e+02	-3.346136e+01
5.968813e+02	-3.351043e+01
6.003288e+02	-3.355611e+01
6.037963e+02	-3.360998e+01
6.072838e+02	-3.366249e+01
6.107914e+02	-3.371577e+01
6.143194e+02	-3.376109e+01
6.178676e+02	-3.380597e+01
6.214364e+02	-3.386527e+01
6.250258e+02	-3.391193e+01
6.286359e+02	-3.395910e+01
6.322669e+02	-3.401322e+01
6.359189e+02	-3.406176e+01
6.395919e+02	-3.410579e+01
6.432862e+02	-3.416552e+01
6.470017e+02	-3.420697e+01
6.507388e+02	-3.427003e+01
6.544974e+02	-3.431484e+01
6.582778e+02	-3.436362e+01
6.620800e+02	-3.440882e+01
6.659041e+02	-3.446300e+01
6.697504e+02	-3.451953e+01
6.736188e+02	-3.456398e+01
6.775096e+02	-3.461884e+01
6.814229e+02	-3.466519e+01
6.853587e+02	-3.471076e+01
6.893173e+02	-3.476914e+01
6.932988e+02	-3.482093e+01
6.973033e+02	-3.486283e+01
7.013309e+02	-3.491602e+01
