Frequency(Hz)	Magnitude(dB)
1.000000e+01	-1.547486e-05
1.005776e+01	-1.565414e-05
1.011585e+01	-1.583550e-05
1.017428e+01	-1.601896e-05
1.023305e+01	-1.620454e-05
1.029215e+01	-1.639228e-05
1.035160e+01	-1.658219e-05
1.041139e+01	-1.677429e-05
1.047153e+01	-1.696863e-05
1.053201e+01	-1.716521e-05
1.059284e+01	-1.736408e-05
1.065403e+01	-1.756525e-05
1.071556e+01	-1.776874e-05
1.077746e+01	-1.797460e-05
1.083971e+01	-1.818284e-05
1.090232e+01	-1.839349e-05
1.096529e+01	-1.860659e-05
1.102862e+01	-1.882215e-05
1.109232e+01	-1.904021e-05
1.115639e+01	-1.926079e-05
1.122083e+01	-1.948393e-05
1.128564e+01	-1.970966e-05
1.135083e+01	-1.993800e-05
1.141639e+01	-2.016899e-05
1.148233e+01	-2.040265e-05
1.154865e+01	-2.063902e-05
1.161536e+01	-2.087813e-05
1.168245e+01	-2.112001e-05
1.174992e+01	-2.136469e-05
1.181779e+01	-2.161220e-05
1.188605e+01	-2.186259e-05
1.195470e+01	-2.211587e-05
1.202375e+01	-2.237209e-05
1.209320e+01	-2.263127e-05
1.216305e+01	-2.289346e-05
1.223330e+01	-2.315869e-05
1.230396e+01	-2.342699e-05
1.237503e+01	-2.369840e-05
1.244651e+01	-2.397295e-05
1.251840e+01	-2.425068e-05
1.259070e+01	-2.453163e-05
1.266343e+01	-2.481584e-05
1.273657e+01	-2.510333e-05
1.281014e+01	-2.539416e-05
1.288413e+01	-2.568836e-05
1.295855e+01	-2.598596e-05
1.303339e+01	-2.628702e-05
1.310867e+01	-2.659156e-05
1.318439e+01	-2.689963e-05
1.326054e+01	-2.721127e-05
1.333713e+01	-2.752652e-05
1.341417e+01	-2.784542e-05
1.349165e+01	-2.816801e-05
1.356958e+01	-2.849435e-05
1.364795e+01	-2.882446e-05
1.372678e+01	-2.915840e-05
1.380607e+01	-2.949621e-05
1.388581e+01	-2.983793e-05
1.396602e+01	-3.018361e-05
1.404668e+01	-3.053329e-05
1.412782e+01	-3.088703e-05
1.420942e+01	-3.124486e-05
1.429149e+01	-3.160684e-05
1.437404e+01	-3.197301e-05
1.445706e+01	-3.234343e-05
1.454057e+01	-3.271813e-05
1.462455e+01	-3.309718e-05
1.470902e+01	-3.348062e-05
1.479398e+01	-3.386850e-05
1.487943e+01	-3.426088e-05
1.496537e+01	-3.465780e-05
1.505181e+01	-3.505931e-05
1.513875e+01	-3.546548e-05
1.522619e+01	-3.587636e-05
1.531414e+01	-3.629200e-05
1.540259e+01	-3.671245e-05
1.549156e+01	-3.713777e-05
1.558103e+01	-3.756802e-05
1.567103e+01	-3.800325e-05
1.576155e+01	-3.844353e-05
1.585258e+01	-3.888891e-05
1.594415e+01	-3.933944e-05
1.603624e+01	-3.979520e-05
1.612886e+01	-4.025624e-05
1.622202e+01	-4.072261e-05
1.631572e+01	-4.119439e-05
1.640996e+01	-4.167164e-05
1.650474e+01	-4.215442e-05
1.660008e+01	-4.264278e-05
1.669596e+01	-4.313681e-05
1.679239e+01	-4.363656e-05
1.688938e+01	-4.414210e-05
1.698694e+01	-4.465350e-05
1.708505e+01	-4.517082e-05
1.718373e+01	-4.569413e-05
1.728299e+01	-4.622351e-05
1.738281e+01	-4.675902e-05
1.748322e+01	-4.730073e-05
1.758420e+01	-4.784872e-05
1.768576e+01	-4.840306e-05
1.778792e+01	-4.896382e-05
1.789066e+01	-4.953107e-05
1.799399e+01	-5.010490e-05
1.809793e+01	-5.068538e-05
1.820246e+01	-5.127258e-05
1.830760e+01	-5.186658e-05
1.841334e+01	-5.246747e-05
1.851969e+01	-5.307531e-05
1.862666e+01	-5.369020e-05
1.873425e+01	-5.431221e-05
1.884246e+01	-5.494143e-05
1.895129e+01	-5.557794e-05
1.906075e+01	-5.622182e-05
1.917085e+01	-5.687316e-05
1.928158e+01	-5.753205e-05
1.939295e+01	-5.819857e-05
1.950496e+01	-5.887281e-05
1.961762e+01	-5.955486e-05
1.973093e+01	-6.024482e-05
1.984490e+01	-6.094277e-05
1.995952e+01	-6.164880e-05
2.007480e+01	-6.236302e-05
2.019076e+01	-6.308550e-05
2.030738e+01	-6.381636e-05
2.042467e+01	-6.455569e-05
2.054264e+01	-6.530358e-05
2.066130e+01	-6.606013e-05
2.078064e+01	-6.682545e-05
2.090066e+01	-6.759964e-05
2.102139e+01	-6.838279e-05
2.114280e+01	-6.917502e-05
2.126492e+01	-6.997642e-05
2.138775e+01	-7.078711e-05
2.151128e+01	-7.160719e-05
2.163553e+01	-7.243678e-05
2.176050e+01	-7.327597e-05
2.188619e+01	-7.412489e-05
2.201260e+01	-7.498364e-05
2.213974e+01	-7.585233e-05
2.226762e+01	-7.673110e-05
2.239624e+01	-7.762004e-05
2.252560e+01	-7.851928e-05
2.265571e+01	-7.942894e-05
2.278656e+01	-8.034914e-05
2.291818e+01	-8.128000e-05
2.305055e+01	-8.222164e-05
2.318369e+01	-8.317419e-05
2.331760e+01	-8.413778e-05
2.345228e+01	-8.511253e-05
2.358774e+01	-8.609857e-05
2.372398e+01	-8.709604e-05
2.386101e+01	-8.810506e-05
2.399883e+01	-8.912577e-05
2.413745e+01	-9.015831e-05
2.427686e+01	-9.120281e-05
2.441709e+01	-9.225940e-05
2.455812e+01	-9.332824e-05
2.469997e+01	-9.440947e-05
2.484263e+01	-9.550321e-05
2.498612e+01	-9.660963e-05
2.513044e+01	-9.772887e-05
2.527559e+01	-9.886107e-05
2.542158e+01	-1.000064e-04
2.556842e+01	-1.011650e-04
2.571610e+01	-1.023370e-04
2.586463e+01	-1.035226e-04
2.601403e+01	-1.047219e-04
2.616428e+01	-1.059351e-04
2.631541e+01	-1.071624e-04
2.646740e+01	-1.084039e-04
2.662028e+01	-1.096598e-04
2.677404e+01	-1.109302e-04
2.692868e+01	-1.122153e-04
2.708422e+01	-1.135154e-04
2.724066e+01	-1.148304e-04
2.739800e+01	-1.161608e-04
2.755625e+01	-1.175065e-04
2.771541e+01	-1.188678e-04
2.787550e+01	-1.202449e-04
2.803650e+01	-1.216380e-04
2.819844e+01	-1.230472e-04
2.836131e+01	-1.244727e-04
2.852513e+01	-1.259147e-04
2.868989e+01	-1.273735e-04
2.885560e+01	-1.288491e-04
2.902227e+01	-1.303418e-04
2.918990e+01	-1.318518e-04
2.935850e+01	-1.333794e-04
2.952807e+01	-1.349246e-04
2.969863e+01	-1.364877e-04
2.987016e+01	-1.380689e-04
3.004269e+01	-1.396684e-04
3.021622e+01	-1.412865e-04
3.039075e+01	-1.429233e-04
3.056628e+01	-1.445791e-04
3.074283e+01	-1.462541e-04
3.092040e+01	-1.479484e-04
3.109900e+01	-1.496624e-04
3.127862e+01	-1.513963e-04
3.145929e+01	-1.531502e-04
3.164099e+01	-1.549245e-04
3.182375e+01	-1.567193e-04
3.200756e+01	-1.585349e-04
3.219244e+01	-1.603715e-04
3.237838e+01	-1.622294e-04
3.256540e+01	-1.641089e-04
3.275349e+01	-1.660101e-04
3.294268e+01	-1.679333e-04
3.313295e+01	-1.698788e-04
3.332433e+01	-1.718469e-04
3.351681e+01	-1.738378e-04
3.371040e+01	-1.758517e-04
3.390511e+01	-1.778889e-04
3.410094e+01	-1.799498e-04
3.429791e+01	-1.820345e-04
3.449601e+01	-1.841434e-04
3.469526e+01	-1.862767e-04
3.489566e+01	-1.884347e-04
3.509721e+01	-1.906177e-04
3.529993e+01	-1.928260e-04
3.550382e+01	-1.950599e-04
3.570889e+01	-1.973197e-04
3.591515e+01	-1.996056e-04
3.612259e+01	-2.019181e-04
3.633123e+01	-2.042573e-04
3.654108e+01	-2.066236e-04
3.675214e+01	-2.090174e-04
3.696442e+01	-2.114388e-04
3.717792e+01	-2.138883e-04
3.739266e+01	-2.163662e-04
3.760864e+01	-2.188728e-04
3.782587e+01	-2.214085e-04
3.804435e+01	-2.239735e-04
3.826409e+01	-2.265682e-04
3.848510e+01	-2.291930e-04
3.870739e+01	-2.318482e-04
3.893096e+01	-2.345341e-04
3.915583e+01	-2.372512e-04
3.938199e+01	-2.399998e-04
3.960946e+01	-2.427802e-04
3.983824e+01	-2.455927e-04
4.006834e+01	-2.484379e-04
4.029978e+01	-2.513161e-04
4.053255e+01	-2.542275e-04
4.076666e+01	-2.571728e-04
4.100213e+01	-2.601521e-04
4.123896e+01	-2.631659e-04
4.147715e+01	-2.662147e-04
4.171672e+01	-2.692988e-04
4.195767e+01	-2.724186e-04
4.220002e+01	-2.755745e-04
4.244377e+01	-2.787670e-04
4.268892e+01	-2.819965e-04
4.293549e+01	-2.852634e-04
4.318348e+01	-2.885681e-04
4.343291e+01	-2.919112e-04
4.368377e+01	-2.952929e-04
4.393609e+01	-2.987139e-04
4.418986e+01	-3.021744e-04
4.444510e+01	-3.056751e-04
4.470182e+01	-3.092163e-04
4.496001e+01	-3.127985e-04
4.521970e+01	-3.164222e-04
4.548089e+01	-3.200879e-04
4.574358e+01	-3.237961e-04
4.600779e+01	-3.275472e-04
4.627353e+01	-3.313418e-04
4.654081e+01	-3.351804e-04
4.680963e+01	-3.390634e-04
4.708000e+01	-3.429914e-04
4.735193e+01	-3.469648e-04
4.762543e+01	-3.509844e-04
4.790051e+01	-3.550505e-04
4.817719e+01	-3.591636e-04
4.845545e+01	-3.633245e-04
4.873533e+01	-3.675335e-04
4.901682e+01	-3.717913e-04
4.929994e+01	-3.760984e-04
4.958470e+01	-3.804554e-04
4.987110e+01	-3.848629e-04
5.015915e+01	-3.893215e-04
5.044887e+01	-3.938317e-04
5.074026e+01	-3.983941e-04
5.103333e+01	-4.030094e-04
5.132810e+01	-4.076782e-04
5.162457e+01	-4.124010e-04
5.192275e+01	-4.171785e-04
5.222265e+01	-4.220114e-04
5.252429e+01	-4.269003e-04
5.282767e+01	-4.318458e-04
5.313280e+01	-4.368486e-04
5.343969e+01	-4.419094e-04
5.374836e+01	-4.470288e-04
5.405880e+01	-4.522074e-04
5.437105e+01	-4.574461e-04
5.468509e+01	-4.627455e-04
5.500095e+01	-4.681062e-04
5.531863e+01	-4.735291e-04
5.563815e+01	-4.790147e-04
5.595951e+01	-4.845639e-04
5.628273e+01	-4.901774e-04
5.660782e+01	-4.958559e-04
5.693479e+01	-5.016002e-04
5.726364e+01	-5.074111e-04
5.759439e+01	-5.132892e-04
5.792705e+01	-5.192355e-04
5.826164e+01	-5.252506e-04
5.859815e+01	-5.313354e-04
5.893662e+01	-5.374907e-04
5.927703e+01	-5.437173e-04
5.961941e+01	-5.500160e-04
5.996377e+01	-5.563877e-04
6.031012e+01	-5.628331e-04
6.065847e+01	-5.693533e-04
6.100883e+01	-5.759490e-04
6.136121e+01	-5.826211e-04
6.171563e+01	-5.893704e-04
6.207210e+01	-5.961980e-04
6.243063e+01	-6.031046e-04
6.279122e+01	-6.100912e-04
6.315390e+01	-6.171588e-04
6.351868e+01	-6.243083e-04
6.388556e+01	-6.315405e-04
6.425456e+01	-6.388566e-04
6.462569e+01	-6.462573e-04
6.499897e+01	-6.537438e-04
6.537440e+01	-6.613171e-04
6.575200e+01	-6.689780e-04
6.613178e+01	-6.767277e-04
6.651375e+01	-6.845672e-04
6.689793e+01	-6.924974e-04
6.728433e+01	-7.005196e-04
6.767297e+01	-7.086346e-04
6.806384e+01	-7.168436e-04
6.845698e+01	-7.251478e-04
6.885238e+01	-7.335481e-04
6.925007e+01	-7.420457e-04
6.965005e+01	-7.506418e-04
7.005235e+01	-7.593374e-04
7.045697e+01	-7.681338e-04
7.086393e+01	-7.770320e-04
7.127323e+01	-7.860333e-04
7.168490e+01	-7.951389e-04
7.209895e+01	-8.043500e-04
7.251539e+01	-8.136677e-04
7.293424e+01	-8.230934e-04
7.335551e+01	-8.326282e-04
7.377920e+01	-8.422735e-04
7.420535e+01	-8.520305e-04
7.463396e+01	-8.619006e-04
7.506504e+01	-8.718849e-04
7.549861e+01	-8.819849e-04
7.593469e+01	-8.922019e-04
7.637328e+01	-9.025372e-04
7.681441e+01	-9.129923e-04
7.725809e+01	-9.235684e-04
7.770433e+01	-9.342670e-04
7.815315e+01	-9.450896e-04
7.860456e+01	-9.560375e-04
7.905857e+01	-9.671122e-04
7.951521e+01	-9.783152e-04
7.997449e+01	-9.896480e-04
8.043642e+01	-1.001112e-03
8.090102e+01	-1.012709e-03
8.136830e+01	-1.024440e-03
8.183828e+01	-1.036307e-03
8.231097e+01	-1.048311e-03
8.278640e+01	-1.060455e-03
8.326457e+01	-1.072739e-03
8.374550e+01	-1.085165e-03
8.422921e+01	-1.097736e-03
8.471572e+01	-1.110452e-03
8.520503e+01	-1.123315e-03
8.569717e+01	-1.136327e-03
8.619215e+01	-1.149490e-03
8.669000e+01	-1.162805e-03
8.719071e+01	-1.176275e-03
8.769432e+01	-1.189901e-03
8.820084e+01	-1.203684e-03
8.871029e+01	-1.217627e-03
8.922267e+01	-1.231732e-03
8.973802e+01	-1.246000e-03
9.025634e+01	-1.260433e-03
9.077766e+01	-1.275033e-03
9.130199e+01	-1.289802e-03
9.182935e+01	-1.304743e-03
9.235975e+01	-1.319856e-03
9.289321e+01	-1.335145e-03
9.342976e+01	-1.350611e-03
9.396941e+01	-1.366255e-03
9.451217e+01	-1.382081e-03
9.505807e+01	-1.398090e-03
9.560712e+01	-1.414285e-03
9.615934e+01	-1.430667e-03
9.671476e+01	-1.447239e-03
9.727338e+01	-1.464003e-03
9.783522e+01	-1.480961e-03
9.840032e+01	-1.498115e-03
9.896867e+01	-1.515468e-03
9.954031e+01	-1.533022e-03
1.001153e+02	-1.550780e-03
1.006935e+02	-1.568743e-03
1.012751e+02	-1.586913e-03
1.018601e+02	-1.605295e-03
1.024484e+02	-1.623889e-03
1.030402e+02	-1.642699e-03
1.036353e+02	-1.661726e-03
1.042339e+02	-1.680974e-03
1.048360e+02	-1.700445e-03
1.054415e+02	-1.720141e-03
1.060505e+02	-1.740065e-03
1.066631e+02	-1.760220e-03
1.072791e+02	-1.780609e-03
1.078988e+02	-1.801233e-03
1.085220e+02	-1.822097e-03
1.091488e+02	-1.843202e-03
1.097793e+02	-1.864551e-03
1.104133e+02	-1.886148e-03
1.110511e+02	-1.907994e-03
1.116925e+02	-1.930094e-03
1.123376e+02	-1.952450e-03
1.129865e+02	-1.975064e-03
1.136391e+02	-1.997941e-03
1.142955e+02	-2.021082e-03
1.149556e+02	-2.044491e-03
1.156196e+02	-2.068172e-03
1.162874e+02	-2.092126e-03
1.169591e+02	-2.116358e-03
1.176347e+02	-2.140871e-03
1.183141e+02	-2.165667e-03
1.189975e+02	-2.190750e-03
1.196848e+02	-2.216124e-03
1.203761e+02	-2.241792e-03
1.210714e+02	-2.267757e-03
1.217707e+02	-2.294023e-03
1.224740e+02	-2.320592e-03
1.231814e+02	-2.347470e-03
1.238929e+02	-2.374658e-03
1.246085e+02	-2.402162e-03
1.253283e+02	-2.429984e-03
1.260522e+02	-2.458128e-03
1.267802e+02	-2.486598e-03
1.275125e+02	-2.515397e-03
1.282490e+02	-2.544530e-03
1.289898e+02	-2.574001e-03
1.297348e+02	-2.603812e-03
1.304842e+02	-2.633969e-03
1.312378e+02	-2.664475e-03
1.319959e+02	-2.695334e-03
1.327583e+02	-2.726550e-03
1.335251e+02	-2.758128e-03
1.342963e+02	-2.790071e-03
1.350720e+02	-2.822384e-03
1.358522e+02	-2.855072e-03
1.366368e+02	-2.888137e-03
1.374260e+02	-2.921586e-03
1.382198e+02	-2.955422e-03
1.390182e+02	-2.989649e-03
1.398211e+02	-3.024273e-03
1.406287e+02	-3.059298e-03
1.414410e+02	-3.094728e-03
1.422579e+02	-3.130568e-03
1.430796e+02	-3.166823e-03
1.439060e+02	-3.203498e-03
1.447372e+02	-3.240598e-03
1.455732e+02	-3.278127e-03
1.464141e+02	-3.316090e-03
1.472597e+02	-3.354493e-03
1.481103e+02	-3.393340e-03
1.489658e+02	-3.432638e-03
1.498262e+02	-3.472390e-03
1.506916e+02	-3.512602e-03
1.515620e+02	-3.553280e-03
1.524374e+02	-3.594428e-03
1.533179e+02	-3.636053e-03
1.542034e+02	-3.678160e-03
1.550941e+02	-3.720754e-03
1.559899e+02	-3.763841e-03
1.568909e+02	-3.807427e-03
1.577971e+02	-3.851518e-03
1.587085e+02	-3.896118e-03
1.596252e+02	-3.941235e-03
1.605472e+02	-3.986875e-03
1.614745e+02	-4.033042e-03
1.624072e+02	-4.079744e-03
1.633453e+02	-4.126986e-03
1.642887e+02	-4.174776e-03
1.652377e+02	-4.223118e-03
1.661921e+02	-4.272020e-03
1.671520e+02	-4.321487e-03
1.681175e+02	-4.371528e-03
1.690885e+02	-4.422147e-03
1.700651e+02	-4.473352e-03
1.710474e+02	-4.525150e-03
1.720354e+02	-4.577548e-03
1.730291e+02	-4.630551e-03
1.740285e+02	-4.684169e-03
1.750337e+02	-4.738406e-03
1.760446e+02	-4.793271e-03
1.770615e+02	-4.848772e-03
1.780842e+02	-4.904914e-03
1.791128e+02	-4.961706e-03
1.801473e+02	-5.019156e-03
1.811878e+02	-5.077270e-03
1.822344e+02	-5.136056e-03
1.832870e+02	-5.195523e-03
1.843456e+02	-5.255678e-03
1.854104e+02	-5.316529e-03
1.864813e+02	-5.378084e-03
1.875584e+02	-5.440352e-03
1.886418e+02	-5.503340e-03
1.897313e+02	-5.567056e-03
1.908272e+02	-5.631510e-03
1.919294e+02	-5.696710e-03
1.930380e+02	-5.762664e-03
1.941530e+02	-5.829381e-03
1.952744e+02	-5.896869e-03
1.964023e+02	-5.965139e-03
1.975367e+02	-6.034199e-03
1.986777e+02	-6.104057e-03
1.998252e+02	-6.174724e-03
2.009794e+02	-6.246208e-03
2.021403e+02	-6.318519e-03
2.033078e+02	-6.391667e-03
2.044821e+02	-6.465660e-03
2.056632e+02	-6.540510e-03
2.068511e+02	-6.616226e-03
2.080459e+02	-6.692817e-03
2.092475e+02	-6.770295e-03
2.104561e+02	-6.848668e-03
2.116717e+02	-6.927948e-03
2.128943e+02	-7.008145e-03
2.141240e+02	-7.089270e-03
2.153608e+02	-7.171333e-03
2.166047e+02	-7.254345e-03
2.178558e+02	-7.338317e-03
2.191141e+02	-7.423261e-03
2.203797e+02	-7.509187e-03
2.216526e+02	-7.596106e-03
2.229329e+02	-7.684031e-03
2.242205e+02	-7.772972e-03
2.255156e+02	-7.862942e-03
2.268182e+02	-7.953953e-03
2.281283e+02	-8.046016e-03
2.294459e+02	-8.139143e-03
2.307712e+02	-8.233348e-03
2.321041e+02	-8.328641e-03
2.334447e+02	-8.425037e-03
2.347931e+02	-8.522547e-03
2.361493e+02	-8.621185e-03
2.375133e+02	-8.720963e-03
2.388851e+02	-8.821894e-03
2.402649e+02	-8.923993e-03
2.416527e+02	-9.027272e-03
2.430484e+02	-9.131744e-03
2.444523e+02	-9.237425e-03
2.458642e+02	-9.344328e-03
2.472843e+02	-9.452466e-03
2.487126e+02	-9.561854e-03
2.501492e+02	-9.672507e-03
2.515940e+02	-9.784438e-03
2.530472e+02	-9.897664e-03
2.545088e+02	-1.001220e-02
2.559789e+02	-1.012806e-02
2.574574e+02	-1.024525e-02
2.589444e+02	-1.036381e-02
2.604401e+02	-1.048373e-02
2.619444e+02	-1.060504e-02
2.634574e+02	-1.072774e-02
2.649791e+02	-1.085187e-02
2.665096e+02	-1.097743e-02
2.680489e+02	-1.110445e-02
2.695972e+02	-1.123293e-02
2.711544e+02	-1.136289e-02
2.727205e+02	-1.149436e-02
2.742958e+02	-1.162735e-02
2.758801e+02	-1.176187e-02
2.774736e+02	-1.189795e-02
2.790762e+02	-1.203560e-02
2.806882e+02	-1.217484e-02
2.823094e+02	-1.231568e-02
2.839400e+02	-1.245816e-02
2.855800e+02	-1.260228e-02
2.872295e+02	-1.274806e-02
2.888886e+02	-1.289553e-02
2.905572e+02	-1.304471e-02
2.922354e+02	-1.319560e-02
2.939234e+02	-1.334824e-02
2.956211e+02	-1.350264e-02
2.973286e+02	-1.365883e-02
2.990459e+02	-1.381682e-02
3.007732e+02	-1.397663e-02
3.025104e+02	-1.413829e-02
3.042577e+02	-1.430181e-02
3.060151e+02	-1.446722e-02
3.077826e+02	-1.463455e-02
3.095604e+02	-1.480380e-02
3.113484e+02	-1.497501e-02
3.131467e+02	-1.514820e-02
3.149554e+02	-1.532338e-02
3.167746e+02	-1.550059e-02
3.186043e+02	-1.567984e-02
3.204445e+02	-1.586116e-02
3.222954e+02	-1.604458e-02
3.241570e+02	-1.623011e-02
3.260293e+02	-1.641778e-02
3.279124e+02	-1.660762e-02
3.298064e+02	-1.679965e-02
3.317114e+02	-1.699390e-02
3.336273e+02	-1.719039e-02
3.355544e+02	-1.738914e-02
3.374925e+02	-1.759019e-02
3.394418e+02	-1.779356e-02
3.414024e+02	-1.799927e-02
3.433744e+02	-1.820736e-02
3.453577e+02	-1.841785e-02
3.473525e+02	-1.863076e-02
3.493588e+02	-1.884613e-02
3.513766e+02	-1.906399e-02
3.534062e+02	-1.928436e-02
3.554474e+02	-1.950727e-02
3.575005e+02	-1.973275e-02
3.595654e+02	-1.996083e-02
3.616422e+02	-2.019155e-02
3.637311e+02	-2.042492e-02
3.658320e+02	-2.066098e-02
3.679450e+02	-2.089976e-02
3.700702e+02	-2.114130e-02
3.722077e+02	-2.138562e-02
3.743576e+02	-2.163276e-02
3.765199e+02	-2.188275e-02
3.786946e+02	-2.213562e-02
3.808820e+02	-2.239140e-02
3.830819e+02	-2.265013e-02
3.852946e+02	-2.291185e-02
3.875200e+02	-2.317657e-02
3.897583e+02	-2.344435e-02
3.920096e+02	-2.371522e-02
3.942738e+02	-2.398920e-02
3.965511e+02	-2.426635e-02
3.988416e+02	-2.454668e-02
4.011452e+02	-2.483024e-02
4.034622e+02	-2.511707e-02
4.057926e+02	-2.540721e-02
4.081365e+02	-2.570068e-02
4.104938e+02	-2.599754e-02
4.128648e+02	-2.629781e-02
4.152495e+02	-2.660154e-02
4.176480e+02	-2.690877e-02
4.200603e+02	-2.721953e-02
4.224866e+02	-2.753387e-02
4.249268e+02	-2.785183e-02
4.273812e+02	-2.817345e-02
4.298497e+02	-2.849878e-02
4.323325e+02	-2.882784e-02
4.348297e+02	-2.916070e-02
4.373412e+02	-2.949738e-02
4.398673e+02	-2.983794e-02
4.424079e+02	-3.018241e-02
4.449633e+02	-3.053085e-02
4.475334e+02	-3.088329e-02
4.501183e+02	-3.123979e-02
4.527182e+02	-3.160039e-02
4.553330e+02	-3.196514e-02
4.579630e+02	-3.233408e-02
4.606082e+02	-3.270727e-02
4.632687e+02	-3.308474e-02
4.659445e+02	-3.346655e-02
4.686358e+02	-3.385276e-02
4.713426e+02	-3.424340e-02
4.740650e+02	-3.463853e-02
4.768032e+02	-3.503820e-02
4.795572e+02	-3.544247e-02
4.823271e+02	-3.585138e-02
4.851130e+02	-3.626498e-02
4.879150e+02	-3.668334e-02
4.907332e+02	-3.710651e-02
4.935676e+02	-3.753453e-02
4.964185e+02	-3.796748e-02
4.992858e+02	-3.840539e-02
5.021696e+02	-3.884833e-02
5.050701e+02	-3.929635e-02
5.079874e+02	-3.974952e-02
5.109215e+02	-4.020789e-02
5.138726e+02	-4.067153e-02
5.168407e+02	-4.114048e-02
5.198259e+02	-4.161481e-02
5.228284e+02	-4.209459e-02
5.258482e+02	-4.257987e-02
5.288855e+02	-4.307071e-02
5.319403e+02	-4.356719e-02
5.350128e+02	-4.406936e-02
5.381030e+02	-4.457729e-02
5.412111e+02	-4.509104e-02
5.443371e+02	-4.561068e-02
5.474812e+02	-4.613628e-02
5.506434e+02	-4.666790e-02
5.538239e+02	-4.720561e-02
5.570228e+02	-4.774949e-02
5.602401e+02	-4.829960e-02
5.634760e+02	-4.885601e-02
5.667306e+02	-4.941879e-02
5.700040e+02	-4.998802e-02
5.732964e+02	-5.056376e-02
5.766077e+02	-5.114610e-02
5.799382e+02	-5.173510e-02
5.832879e+02	-5.233085e-02
5.866569e+02	-5.293341e-02
5.900454e+02	-5.354287e-02
5.934535e+02	-5.415931e-02
5.968813e+02	-5.478279e-02
6.003288e+02	-5.541341e-02
6.037963e+02	-5.605124e-02
6.072838e+02	-5.669636e-02
6.107914e+02	-5.734886e-02
6.143194e+02	-5.800881e-02
6.178676e+02	-5.867632e-02
6.214364e+02	-5.935144e-02
6.250258e+02	-6.003429e-02
6.286359e+02	-6.072493e-02
6.322669e+02	-6.142346e-02
6.359189e+02	-6.212997e-02
6.395919e+02	-6.284455e-02
6.432862e+02	-6.356728e-02
6.470017e+02	-6.429827e-02
6.507388e+02	-6.503760e-02
6.544974e+02	-6.578536e-02
6.582778e+02	-6.654166e-02
6.620800e+02	-6.730658e-02
6.659041e+02	-6.808023e-02
6.697504e+02	-6.886270e-02
6.736188e+02	-6.965409e-02
6.775096e+02	-7.045450e-02
6.814229e+02	-7.126403e-02
6.853587e+02	-7.208279e-02
6.893173e+02	-7.291087e-02
6.932988e+02	-7.374839e-02
6.973033e+02	-7.459544e-02
7.013309e+02	-7.545214e-02
