Frequency(Hz)	Magnitude(dB)
1.000000e+01	-2.008598e+00
1.005776e+01	-2.027410e+00
1.011585e+01	-2.046198e+00
1.017428e+01	-2.064848e+00
1.023305e+01	-2.083995e+00
1.029215e+01	-2.102889e+00
1.035160e+01	-2.122285e+00
1.041139e+01	-2.141544e+00
1.047153e+01	-2.161063e+00
1.053201e+01	-2.180824e+00
1.059284e+01	-2.200594e+00
1.065403e+01	-2.220629e+00
1.071556e+01	-2.240801e+00
1.077746e+01	-2.260777e+00
1.083971e+01	-2.281394e+00
1.090232e+01	-2.301773e+00
1.096529e+01	-2.322460e+00
1.102862e+01	-2.343176e+00
1.109232e+01	-2.364115e+00
1.115639e+01	-2.385344e+00
1.122083e+01	-2.406419e+00
1.128564e+01	-2.427753e+00
1.135083e+01	-2.449105e+00
1.141639e+01	-2.471001e+00
1.148233e+01	-2.493076e+00
1.154865e+01	-2.514585e+00
1.161536e+01	-2.536522e+00
1.168245e+01	-2.558885e+00
1.174992e+01	-2.581267e+00
1.181779e+01	-2.603653e+00
1.188605e+01	-2.626485e+00
1.195470e+01	-2.649168e+00
1.202375e+01	-2.672175e+00
1.209320e+01	-2.695133e+00
1.216305e+01	-2.718265e+00
1.223330e+01	-2.741649e+00
1.230396e+01	-2.765227e+00
1.237503e+01	-2.788674e+00
1.244651e+01	-2.812420e+00
1.251840e+01	-2.836451e+00
1.259070e+01	-2.860540e+00
1.266343e+01	-2.884632e+00
1.273657e+01	-2.909191e+00
1.281014e+01	-2.933487e+00
1.288413e+01	-2.958149e+00
1.295855e+01	-2.982919e+00
1.303339e+01	-3.007965e+00
1.310867e+01	-3.032939e+00
1.318439e+01	-3.058327e+00
1.326054e+01	-3.083594e+00
1.333713e+01	-3.109044e+00
1.341417e+01	-3.134705e+00
1.349165e+01	-3.160691e+00
1.356958e+01	-3.186378e+00
1.364795e+01	-3.212765e+00
1.372678e+01	-3.238915e+00
1.380607e+01	-3.265145e+00
1.388581e+01	-3.291871e+00
1.396602e+01	-3.318536e+00
1.404668e+01	-3.344970e+00
1.412782e+01	-3.372018e+00
1.420942e+01	-3.399009e+00
1.429149e+01	-3.426272e+00
1.437404e+01	-3.453634e+00
1.445706e+01	-3.481355e+00
1.454057e+01	-3.508772e+00
1.462455e+01	-3.536868e+00
1.470902e+01	-3.564595e+00
1.479398e+01	-3.592913e+00
1.487943e+01	-3.620906e+00
1.496537e+01	-3.649371e+00
1.505181e+01	-3.677499e+00
1.513875e+01	-3.706219e+00
1.522619e+01	-3.735016e+00
1.531414e+01	-3.764165e+00
1.540259e+01	-3.793261e+00
1.549156e+01	-3.822426e+00
1.558103e+01	-3.851724e+00
1.567103e+01	-3.881280e+00
1.576155e+01	-3.911143e+00
1.585258e+01	-3.940909e+00
1.594415e+01	-3.970719e+00
1.603624e+01	-4.000603e+00
1.612886e+01	-4.030741e+00
1.622202e+01	-4.061257e+00
1.631572e+01	-4.091480e+00
1.640996e+01	-4.122283e+00
1.650474e+01	-4.152932e+00
1.660008e+01	-4.183729e+00
1.669596e+01	-4.214755e+00
1.679239e+01	-4.246047e+00
1.688938e+01	-4.276852e+00
1.698694e+01	-4.308570e+00
1.708505e+01	-4.339932e+00
1.718373e+01	-4.371658e+00
1.728299e+01	-4.403532e+00
1.738281e+01	-4.435463e+00
1.748322e+01	-4.467567e+00
1.758420e+01	-4.500193e+00
1.768576e+01	-4.532055e+00
1.778792e+01	-4.564519e+00
1.789066e+01	-4.597314e+00
1.799399e+01	-4.629969e+00
1.809793e+01	-4.662717e+00
1.820246e+01	-4.695965e+00
1.830760e+01	-4.728908e+00
1.841334e+01	-4.762284e+00
1.851969e+01	-4.795464e+00
1.862666e+01	-4.829088e+00
1.873425e+01	-4.862841e+00
1.884246e+01	-4.896556e+00
1.895129e+01	-4.930169e+00
1.906075e+01	-4.964301e+00
1.917085e+01	-4.998333e+00
1.928158e+01	-5.032722e+00
1.939295e+01	-5.067292e+00
1.950496e+01	-5.101701e+00
1.961762e+01	-5.136400e+00
1.973093e+01	-5.171127e+00
1.984490e+01	-5.206224e+00
1.995952e+01	-5.240876e+00
2.007480e+01	-5.275729e+00
2.019076e+01	-5.311403e+00
2.030738e+01	-5.346560e+00
2.042467e+01	-5.382048e+00
2.054264e+01	-5.418077e+00
2.066130e+01	-5.453534e+00
2.078064e+01	-5.489422e+00
2.090066e+01	-5.525385e+00
2.102139e+01	-5.561369e+00
2.114280e+01	-5.597720e+00
2.126492e+01	-5.633851e+00
2.138775e+01	-5.670117e+00
2.151128e+01	-5.706600e+00
2.163553e+01	-5.743300e+00
2.176050e+01	-5.780098e+00
2.188619e+01	-5.817044e+00
2.201260e+01	-5.853765e+00
2.213974e+01	-5.891181e+00
2.226762e+01	-5.927954e+00
2.239624e+01	-5.965743e+00
2.252560e+01	-6.002890e+00
2.265571e+01	-6.040409e+00
2.278656e+01	-6.078038e+00
2.291818e+01	-6.116267e+00
2.305055e+01	-6.153797e+00
2.318369e+01	-6.191866e+00
2.331760e+01	-6.229644e+00
2.345228e+01	-6.268296e+00
2.358774e+01	-6.306049e+00
2.372398e+01	-6.344654e+00
2.386101e+01	-6.382781e+00
2.399883e+01	-6.421594e+00
2.413745e+01	-6.460312e+00
2.427686e+01	-6.499296e+00
2.441709e+01	-6.537595e+00
2.455812e+01	-6.576710e+00
2.469997e+01	-6.615927e+00
2.484263e+01	-6.655203e+00
2.498612e+01	-6.694172e+00
2.513044e+01	-6.733650e+00
2.527559e+01	-6.773231e+00
2.542158e+01	-6.812555e+00
2.556842e+01	-6.852318e+00
2.571610e+01	-6.892154e+00
2.586463e+01	-6.931990e+00
2.601403e+01	-6.972057e+00
2.616428e+01	-7.011922e+00
2.631541e+01	-7.052182e+00
2.646740e+01	-7.092116e+00
2.662028e+01	-7.132380e+00
2.677404e+01	-7.172918e+00
2.692868e+01	-7.213540e+00
2.708422e+01	-7.253804e+00
2.724066e+01	-7.294775e+00
2.739800e+01	-7.335639e+00
2.755625e+01	-7.376191e+00
2.771541e+01	-7.417295e+00
2.787550e+01	-7.457984e+00
2.803650e+01	-7.499408e+00
2.819844e+01	-7.540102e+00
2.836131e+01	-7.581889e+00
2.852513e+01	-7.622702e+00
2.868989e+01	-7.664441e+00
2.885560e+01	-7.705709e+00
2.902227e+01	-7.747229e+00
2.918990e+01	-7.789194e+00
2.935850e+01	-7.830984e+00
2.952807e+01	-7.873079e+00
2.969863e+01	-7.914302e+00
2.987016e+01	-7.956497e+00
3.004269e+01	-7.998751e+00
3.021622e+01	-8.040429e+00
3.039075e+01	-8.082965e+00
3.056628e+01	-8.125236e+00
3.074283e+01	-8.167602e+00
3.092040e+01	-8.210338e+00
3.109900e+01	-8.252242e+00
3.127862e+01	-8.294747e+00
3.145929e+01	-8.337707e+00
3.164099e+01	-8.380501e+00
3.182375e+01	-8.423063e+00
3.200756e+01	-8.466005e+00
3.219244e+01	-8.508844e+00
3.237838e+01	-8.552111e+00
3.256540e+01	-8.595467e+00
3.275349e+01	-8.638400e+00
3.294268e+01	-8.681902e+00
3.313295e+01	-8.725124e+00
3.332433e+01	-8.768535e+00
3.351681e+01	-8.811252e+00
3.371040e+01	-8.854897e+00
3.390511e+01	-8.898813e+00
3.410094e+01	-8.942230e+00
3.429791e+01	-8.985859e+00
3.449601e+01	-9.029710e+00
3.469526e+01	-9.073307e+00
3.489566e+01	-9.116986e+00
3.509721e+01	-9.161323e+00
3.529993e+01	-9.205196e+00
3.550382e+01	-9.249679e+00
3.570889e+01	-9.293620e+00
3.591515e+01	-9.337606e+00
3.612259e+01	-9.381488e+00
3.633123e+01	-9.425969e+00
3.654108e+01	-9.470754e+00
3.675214e+01	-9.515081e+00
3.696442e+01	-9.558637e+00
3.717792e+01	-9.603811e+00
3.739266e+01	-9.648204e+00
3.760864e+01	-9.692674e+00
3.782587e+01	-9.737307e+00
3.804435e+01	-9.782804e+00
3.826409e+01	-9.827142e+00
3.848510e+01	-9.872008e+00
3.870739e+01	-9.916800e+00
3.893096e+01	-9.962339e+00
3.915583e+01	-1.000720e+01
3.938199e+01	-1.005207e+01
3.960946e+01	-1.009702e+01
3.983824e+01	-1.014190e+01
4.006834e+01	-1.018728e+01
4.029978e+01	-1.023282e+01
4.053255e+01	-1.027831e+01
4.076666e+01	-1.032336e+01
4.100213e+01	-1.036915e+01
4.123896e+01	-1.041364e+01
4.147715e+01	-1.045959e+01
4.171672e+01	-1.050560e+01
4.195767e+01	-1.055138e+01
4.220002e+01	-1.059655e+01
4.244377e+01	-1.064249e+01
4.268892e+01	-1.068794e+01
4.293549e+01	-1.073437e+01
4.318348e+01	-1.077944e+01
4.343291e+01	-1.082596e+01
4.368377e+01	-1.087102e+01
4.393609e+01	-1.091751e+01
4.418986e+01	-1.096322e+01
4.444510e+01	-1.100914e+01
4.470182e+01	-1.105540e+01
4.496001e+01	-1.110098e+01
4.521970e+01	-1.114832e+01
4.548089e+01	-1.119398e+01
4.574358e+01	-1.124044e+01
4.600779e+01	-1.128638e+01
4.627353e+01	-1.133284e+01
4.654081e+01	-1.137902e+01
4.680963e+01	-1.142572e+01
4.708000e+01	-1.147181e+01
4.735193e+01	-1.151886e+01
4.762543e+01	-1.156523e+01
4.790051e+01	-1.161151e+01
4.817719e+01	-1.165809e+01
4.845545e+01	-1.170413e+01
4.873533e+01	-1.175207e+01
4.901682e+01	-1.179829e+01
4.929994e+01	-1.184495e+01
4.958470e+01	-1.189160e+01
4.987110e+01	-1.193869e+01
5.015915e+01	-1.198584e+01
5.044887e+01	-1.203198e+01
5.074026e+01	-1.207953e+01
5.103333e+01	-1.212613e+01
5.132810e+01	-1.217315e+01
5.162457e+01	-1.222005e+01
5.192275e+01	-1.226701e+01
5.222265e+01	-1.231370e+01
5.252429e+01	-1.236171e+01
5.282767e+01	-1.240886e+01
5.313280e+01	-1.245580e+01
5.343969e+01	-1.250289e+01
5.374836e+01	-1.255039e+01
5.405880e+01	-1.259752e+01
5.437105e+01	-1.264448e+01
5.468509e+01	-1.269221e+01
5.500095e+01	-1.273904e+01
5.531863e+01	-1.278694e+01
5.563815e+01	-1.283448e+01
5.595951e+01	-1.288141e+01
5.628273e+01	-1.292932e+01
5.660782e+01	-1.297642e+01
5.693479e+01	-1.302339e+01
5.726364e+01	-1.307204e+01
5.759439e+01	-1.311866e+01
5.792705e+01	-1.316616e+01
5.826164e+01	-1.321458e+01
5.859815e+01	-1.326209e+01
5.893662e+01	-1.330893e+01
5.927703e+01	-1.335657e+01
5.961941e+01	-1.340432e+01
5.996377e+01	-1.345318e+01
6.031012e+01	-1.350117e+01
6.065847e+01	-1.354904e+01
6.100883e+01	-1.359569e+01
6.136121e+01	-1.364386e+01
6.171563e+01	-1.369195e+01
6.207210e+01	-1.373988e+01
6.243063e+01	-1.378781e+01
6.279122e+01	-1.383546e+01
6.315390e+01	-1.388342e+01
6.351868e+01	-1.393199e+01
6.388556e+01	-1.398019e+01
6.425456e+01	-1.402796e+01
6.462569e+01	-1.407575e+01
6.499897e+01	-1.412371e+01
6.537440e+01	-1.417222e+01
6.575200e+01	-1.422020e+01
6.613178e+01	-1.426855e+01
6.651375e+01	-1.431629e+01
6.689793e+01	-1.436482e+01
6.728433e+01	-1.441272e+01
6.767297e+01	-1.446083e+01
6.806384e+01	-1.450893e+01
6.845698e+01	-1.455714e+01
6.885238e+01	-1.460547e+01
6.925007e+01	-1.465424e+01
6.965005e+01	-1.470294e+01
7.005235e+01	-1.475069e+01
7.045697e+01	-1.479941e+01
7.086393e+01	-1.484775e+01
7.127323e+01	-1.489641e+01
7.168490e+01	-1.494514e+01
7.209895e+01	-1.499301e+01
7.251539e+01	-1.504209e+01
7.293424e+01	-1.508927e+01
7.335551e+01	-1.513841e+01
7.377920e+01	-1.518627e+01
7.420535e+01	-1.523566e+01
7.463396e+01	-1.528433e+01
7.506504e+01	-1.533347e+01
7.549861e+01	-1.538059e+01
7.593469e+01	-1.542944e+01
7.637328e+01	-1.547809e+01
7.681441e+01	-1.552651e+01
7.725809e+01	-1.557564e+01
7.770433e+01	-1.562443e+01
7.815315e+01	-1.567282e+01
7.860456e+01	-1.572121e+01
7.905857e+01	-1.577016e+01
7.951521e+01	-1.581804e+01
7.997449e+01	-1.586834e+01
8.043642e+01	-1.591575e+01
8.090102e+01	-1.596466e+01
8.136830e+01	-1.601347e+01
8.183828e+01	-1.606285e+01
8.231097e+01	-1.611172e+01
8.278640e+01	-1.615999e+01
8.326457e+01	-1.620971e+01
8.374550e+01	-1.625805e+01
8.422921e+01	-1.630725e+01
8.471572e+01	-1.635558e+01
8.520503e+01	-1.640427e+01
8.569717e+01	-1.645388e+01
8.619215e+01	-1.650324e+01
8.669000e+01	-1.655181e+01
8.719071e+01	-1.659972e+01
8.769432e+01	-1.664990e+01
8.820084e+01	-1.669731e+01
8.871029e+01	-1.674736e+01
8.922267e+01	-1.679658e+01
8.973802e+01	-1.684538e+01
9.025634e+01	-1.689449e+01
9.077766e+01	-1.694285e+01
9.130199e+01	-1.699179e+01
9.182935e+01	-1.704032e+01
9.235975e+01	-1.709086e+01
9.289321e+01	-1.713851e+01
9.342976e+01	-1.718856e+01
9.396941e+01	-1.723740e+01
9.451217e+01	-1.728650e+01
9.505807e+01	-1.733587e+01
9.560712e+01	-1.738488e+01
9.615934e+01	-1.743339e+01
9.671476e+01	-1.748268e+01
9.727338e+01	-1.753137e+01
9.783522e+01	-1.758060e+01
9.840032e+01	-1.763014e+01
9.896867e+01	-1.767840e+01
9.954031e+01	-1.772891e+01
1.001153e+02	-1.777710e+01
1.006935e+02	-1.782673e+01
1.012751e+02	-1.787680e+01
1.018601e+02	-1.792673e+01
1.024484e+02	-1.797425e+01
1.030402e+02	-1.802458e+01
1.036353e+02	-1.807407e+01
1.042339e+02	-1.812243e+01
1.048360e+02	-1.817094e+01
1.054415e+02	-1.822094e+01
1.060505e+02	-1.826858e+01
1.066631e+02	-1.831868e+01
1.072791e+02	-1.836881e+01
1.078988e+02	-1.841795e+01
1.085220e+02	-1.846801e+01
1.091488e+02	-1.851817e+01
1.097793e+02	-1.856723e+01
1.104133e+02	-1.861549e+01
1.110511e+02	-1.866409e+01
1.116925e+02	-1.871386e+01
1.123376e+02	-1.876387e+01
1.129865e+02	-1.881267e+01
1.136391e+02	-1.886193e+01
1.142955e+02	-1.891182e+01
1.149556e+02	-1.896129e+01
1.156196e+02	-1.901063e+01
1.162874e+02	-1.906088e+01
1.169591e+02	-1.910968e+01
1.176347e+02	-1.915984e+01
1.183141e+02	-1.920735e+01
1.189975e+02	-1.925708e+01
1.196848e+02	-1.930719e+01
1.203761e+02	-1.935775e+01
1.210714e+02	-1.940516e+01
1.217707e+02	-1.945550e+01
1.224740e+02	-1.950496e+01
1.231814e+02	-1.955432e+01
1.238929e+02	-1.960328e+01
1.246085e+02	-1.965451e+01
1.253283e+02	-1.970339e+01
1.260522e+02	-1.975342e+01
1.267802e+02	-1.980194e+01
1.275125e+02	-1.985100e+01
1.282490e+02	-1.990239e+01
1.289898e+02	-1.995049e+01
1.297348e+02	-1.999804e+01
1.304842e+02	-2.004972e+01
1.312378e+02	-2.009985e+01
1.319959e+02	-2.014906e+01
1.327583e+02	-2.019814e+01
1.335251e+02	-2.024854e+01
1.342963e+02	-2.029753e+01
1.350720e+02	-2.034793e+01
1.358522e+02	-2.039590e+01
1.366368e+02	-2.044640e+01
1.374260e+02	-2.049616e+01
1.382198e+02	-2.054485e+01
1.390182e+02	-2.059573e+01
1.398211e+02	-2.064381e+01
1.406287e+02	-2.069381e+01
1.414410e+02	-2.074387e+01
1.422579e+02	-2.079485e+01
1.430796e+02	-2.084221e+01
1.439060e+02	-2.089181e+01
1.447372e+02	-2.094292e+01
1.455732e+02	-2.099148e+01
1.464141e+02	-2.104086e+01
1.472597e+02	-2.109219e+01
1.481103e+02	-2.114122e+01
1.489658e+02	-2.119074e+01
1.498262e+02	-2.124000e+01
1.506916e+02	-2.128942e+01
1.515620e+02	-2.134022e+01
1.524374e+02	-2.138734e+01
1.533179e+02	-2.143925e+01
1.542034e+02	-2.148865e+01
1.550941e+02	-2.153817e+01
1.559899e+02	-2.158799e+01
1.568909e+02	-2.163653e+01
1.577971e+02	-2.168791e+01
1.587085e+02	-2.173715e+01
1.596252e+02	-2.178788e+01
1.605472e+02	-2.183618e+01
1.614745e+02	-2.188615e+01
1.624072e+02	-2.193502e+01
1.633453e+02	-2.198553e+01
1.642887e+02	-2.203601e+01
1.652377e+02	-2.208453e+01
1.661921e+02	-2.213448e+01
1.671520e+02	-2.218333e+01
1.681175e+02	-2.223465e+01
1.690885e+02	-2.228618e+01
1.700651e+02	-2.233446e+01
1.710474e+02	-2.238375e+01
1.720354e+02	-2.243419e+01
1.730291e+02	-2.248206e+01
1.740285e+02	-2.253152e+01
1.750337e+02	-2.258318e+01
1.760446e+02	-2.263164e+01
1.770615e+02	-2.268325e+01
1.780842e+02	-2.273135e+01
1.791128e+02	-2.278367e+01
1.801473e+02	-2.283386e+01
1.811878e+02	-2.288102e+01
1.822344e+02	-2.293130e+01
1.832870e+02	-2.298201e+01
1.843456e+02	-2.303160e+01
1.854104e+02	-2.308020e+01
1.864813e+02	-2.312989e+01
1.875584e+02	-2.317860e+01
1.886418e+02	-2.323231e+01
1.897313e+02	-2.327976e+01
1.908272e+02	-2.332891e+01
1.919294e+02	-2.337834e+01
1.930380e+02	-2.342947e+01
1.941530e+02	-2.347892e+01
1.952744e+02	-2.353028e+01
1.964023e+02	-2.357854e+01
1.975367e+02	-2.362668e+01
1.986777e+02	-2.367947e+01
1.998252e+02	-2.372881e+01
2.009794e+02	-2.377697e+01
2.021403e+02	-2.382785e+01
2.033078e+02	-2.387951e+01
2.044821e+02	-2.392646e+01
2.056632e+02	-2.397806e+01
2.068511e+02	-2.402703e+01
2.080459e+02	-2.407746e+01
2.092475e+02	-2.412623e+01
2.104561e+02	-2.417718e+01
2.116717e+02	-2.422647e+01
2.128943e+02	-2.427619e+01
2.141240e+02	-2.432646e+01
2.153608e+02	-2.437655e+01
2.166047e+02	-2.442868e+01
2.178558e+02	-2.447814e+01
2.191141e+02	-2.452638e+01
2.203797e+02	-2.457575e+01
2.216526e+02	-2.462603e+01
2.229329e+02	-2.467432e+01
2.242205e+02	-2.472682e+01
2.255156e+02	-2.477619e+01
2.268182e+02	-2.482660e+01
2.281283e+02	-2.487422e+01
2.294459e+02	-2.492760e+01
2.307712e+02	-2.497647e+01
2.321041e+02	-2.502463e+01
2.334447e+02	-2.507716e+01
2.347931e+02	-2.512455e+01
2.361493e+02	-2.517286e+01
2.375133e+02	-2.522419e+01
2.388851e+02	-2.527553e+01
2.402649e+02	-2.532860e+01
2.416527e+02	-2.537259e+01
2.430484e+02	-2.542544e+01
2.444523e+02	-2.547025e+01
2.458642e+02	-2.552532e+01
2.472843e+02	-2.557618e+01
2.487126e+02	-2.562760e+01
2.501492e+02	-2.567203e+01
2.515940e+02	-2.572490e+01
2.530472e+02	-2.577200e+01
2.545088e+02	-2.582488e+01
2.559789e+02	-2.587404e+01
2.574574e+02	-2.592436e+01
2.589444e+02	-2.597351e+01
2.604401e+02	-2.602409e+01
2.619444e+02	-2.607664e+01
2.634574e+02	-2.612144e+01
2.649791e+02	-2.617466e+01
2.665096e+02	-2.622371e+01
2.680489e+02	-2.627258e+01
2.695972e+02	-2.632011e+01
2.711544e+02	-2.637207e+01
2.727205e+02	-2.642505e+01
2.742958e+02	-2.647378e+01
2.758801e+02	-2.652281e+01
2.774736e+02	-2.657557e+01
2.790762e+02	-2.662498e+01
2.806882e+02	-2.667065e+01
2.823094e+02	-2.672558e+01
2.839400e+02	-2.677554e+01
2.855800e+02	-2.682488e+01
2.872295e+02	-2.686950e+01
2.888886e+02	-2.692850e+01
2.905572e+02	-2.697719e+01
2.922354e+02	-2.702125e+01
2.939234e+02	-2.707002e+01
2.956211e+02	-2.712217e+01
2.973286e+02	-2.717160e+01
2.990459e+02	-2.722329e+01
3.007732e+02	-2.727575e+01
3.025104e+02	-2.732250e+01
3.042577e+02	-2.737168e+01
3.060151e+02	-2.742689e+01
3.077826e+02	-2.747390e+01
3.095604e+02	-2.752026e+01
3.113484e+02	-2.757146e+01
3.131467e+02	-2.762325e+01
3.149554e+02	-2.767418e+01
3.167746e+02	-2.772241e+01
3.186043e+02	-2.777699e+01
3.204445e+02	-2.782407e+01
3.222954e+02	-2.787723e+01
3.241570e+02	-2.791758e+01
3.260293e+02	-2.796960e+01
3.279124e+02	-2.802284e+01
3.298064e+02	-2.807414e+01
3.317114e+02	-2.812034e+01
3.336273e+02	-2.817225e+01
3.355544e+02	-2.822475e+01
3.374925e+02	-2.827404e+01
3.394418e+02	-2.832136e+01
3.414024e+02	-2.837406e+01
3.433744e+02	-2.842506e+01
3.453577e+02	-2.847367e+01
3.473525e+02	-2.852447e+01
3.493588e+02	-2.857580e+01
3.513766e+02	-2.862349e+01
3.534062e+02	-2.867262e+01
3.554474e+02	-2.872286e+01
3.575005e+02	-2.877610e+01
3.595654e+02	-2.882110e+01
3.616422e+02	-2.887483e+01
3.637311e+02	-2.892456e+01
3.658320e+02	-2.897468e+01
3.679450e+02	-2.902405e+01
3.700702e+02	-2.907485e+01
3.722077e+02	-2.912278e+01
3.743576e+02	-2.917495e+01
3.765199e+02	-2.922588e+01
3.786946e+02	-2.927797e+01
3.808820e+02	-2.932809e+01
3.830819e+02	-2.937306e+01
3.852946e+02	-2.942565e+01
3.875200e+02	-2.947759e+01
3.897583e+02	-2.952629e+01
3.920096e+02	-2.957415e+01
3.942738e+02	-2.962355e+01
3.965511e+02	-2.967657e+01
3.988416e+02	-2.973011e+01
4.011452e+02	-2.976966e+01
4.034622e+02	-2.982600e+01
4.057926e+02	-2.987823e+01
4.081365e+02	-2.993202e+01
4.104938e+02	-2.997733e+01
4.128648e+02	-3.002088e+01
4.152495e+02	-3.007655e+01
4.176480e+02	-3.012786e+01
4.200603e+02	-3.017826e+01
4.224866e+02	-3.022964e+01
4.249268e+02	-3.027256e+01
4.273812e+02	-3.033282e+01
4.298497e+02	-3.038318e+01
4.323325e+02	-3.042554e+01
4.348297e+02	-3.047629e+01
4.373412e+02	-3.052930e+01
4.398673e+02	-3.057835e+01
4.424079e+02	-3.062463e+01
4.449633e+02	-3.067830e+01
4.475334e+02	-3.073047e+01
4.501183e+02	-3.077966e+01
4.527182e+02	-3.083060e+01
4.553330e+02	-3.087666e+01
4.579630e+02	-3.092498e+01
4.606082e+02	-3.097704e+01
4.632687e+02	-3.101961e+01
4.659445e+02	-3.108364e+01
4.686358e+02	-3.112655e+01
4.713426e+02	-3.118329e+01
4.740650e+02	-3.123311e+01
4.768032e+02	-3.127664e+01
4.795572e+02	-3.133014e+01
4.823271e+02	-3.137668e+01
4.851130e+02	-3.142547e+01
4.879150e+02	-3.148363e+01
4.907332e+02	-3.152999e+01
4.935676e+02	-3.158345e+01
4.964185e+02	-3.162664e+01
4.992858e+02	-3.168444e+01
5.021696e+02	-3.172720e+01
5.050701e+02	-3.177796e+01
5.079874e+02	-3.182902e+01
5.109215e+02	-3.188664e+01
5.138726e+02	-3.192806e+01
5.168407e+02	-3.197772e+01
5.198259e+02	-3.203423e+01
5.228284e+02	-3.207974e+01
5.258482e+02	-3.212966e+01
5.288855e+02	-3.218659e+01
5.319403e+02	-3.222542e+01
5.350128e+02	-3.228698e+01
5.381030e+02	-3.233049e+01
5.412111e+02	-3.238214e+01
5.443371e+02	-3.243933e+01
5.474812e+02	-3.248436e+01
5.506434e+02	-3.253989e+01
5.538239e+02	-3.258285e+01
5.570228e+02	-3.263454e+01
5.602401e+02	-3.269090e+01
5.634760e+02	-3.274085e+01
5.667306e+02	-3.278739e+01
5.700040e+02	-3.284039e+01
5.732964e+02	-3.288227e+01
5.766077e+02	-3.294037e+01
5.799382e+02	-3.299551e+01
5.832879e+02	-3.304254e+01
5.866569e+02	-3.308470e+01
5.900454e+02	-3.313696e+01
5.934535e+02	-3.318222e+01
5.968813e+02	-3.324369e+01
6.003288e+02	-3.328732e+01
6.037963e+02	-3.334741e+01
6.072838e+02	-3.338197e+01
6.107914e+02	-3.343025e+01
6.143194e+02	-3.349024e+01
6.178676e+02	-3.353317e+01
6.214364e+02	-3.357647e+01
6.250258e+02	-3.363892e+01
6.286359e+02	-3.369177e+01
6.322669e+02	-3.373908e+01
6.359189e+02	-3.378842e+01
6.395919e+02	-3.383351e+01
6.432862e+02	-3.388477e+01
6.470017e+02	-3.393667e+01
6.507388e+02	-3.398931e+01
6.544974e+02	-3.404525e+01
6.582778e+02	-3.408639e+01
6.620800e+02	-3.414878e+01
6.659041e+02	-3.419285e+01
6.697504e+02	-3.424361e+01
6.736188e+02	-3.429254e+01
6.775096e+02	-3.433980e+01
6.814229e+02	-3.439231e+01
6.853587e+02	-3.444943e+01
6.893173e+02	-3.449639e+01
6.932988e+02	-3.454804e+01
6.973033e+02	-3.460567e+01
7.013309e+02	-3.465076e+01
