Frequency(Hz)	Magnitude(dB)
1.000000e+01	-2.071690e+00
1.005776e+01	-2.090674e+00
1.011585e+01	-2.109812e+00
1.017428e+01	-2.129257e+00
1.023305e+01	-2.148698e+00
1.029215e+01	-2.168146e+00
1.035160e+01	-2.188114e+00
1.041139e+01	-2.207860e+00
1.047153e+01	-2.227720e+00
1.053201e+01	-2.248125e+00
1.059284e+01	-2.268299e+00
1.065403e+01	-2.288878e+00
1.071556e+01	-2.309318e+00
1.077746e+01	-2.330102e+00
1.083971e+01	-2.350836e+00
1.090232e+01	-2.371814e+00
1.096529e+01	-2.392878e+00
1.102862e+01	-2.414285e+00
1.109232e+01	-2.435783e+00
1.115639e+01	-2.457179e+00
1.122083e+01	-2.478636e+00
1.128564e+01	-2.500622e+00
1.135083e+01	-2.522768e+00
1.141639e+01	-2.544690e+00
1.148233e+01	-2.566932e+00
1.154865e+01	-2.589514e+00
1.161536e+01	-2.611764e+00
1.168245e+01	-2.634747e+00
1.174992e+01	-2.657375e+00
1.181779e+01	-2.680346e+00
1.188605e+01	-2.703615e+00
1.195470e+01	-2.726692e+00
1.202375e+01	-2.750046e+00
1.209320e+01	-2.773840e+00
1.216305e+01	-2.797375e+00
1.223330e+01	-2.821283e+00
1.230396e+01	-2.845208e+00
1.237503e+01	-2.869217e+00
1.244651e+01	-2.893638e+00
1.251840e+01	-2.917989e+00
1.259070e+01	-2.942509e+00
1.266343e+01	-2.967085e+00
1.273657e+01	-2.992080e+00
1.281014e+01	-3.017150e+00
1.288413e+01	-3.042170e+00
1.295855e+01	-3.067321e+00
1.303339e+01	-3.092811e+00
1.310867e+01	-3.118393e+00
1.318439e+01	-3.144060e+00
1.326054e+01	-3.170056e+00
1.333713e+01	-3.195876e+00
1.341417e+01	-3.221824e+00
1.349165e+01	-3.248360e+00
1.356958e+01	-3.274680e+00
1.364795e+01	-3.301135e+00
1.372678e+01	-3.327979e+00
1.380607e+01	-3.355156e+00
1.388581e+01	-3.381941e+00
1.396602e+01	-3.408859e+00
1.404668e+01	-3.436240e+00
1.412782e+01	-3.463816e+00
1.420942e+01	-3.491326e+00
1.429149e+01	-3.518955e+00
1.437404e+01	-3.546828e+00
1.445706e+01	-3.574845e+00
1.454057e+01	-3.603105e+00
1.462455e+01	-3.631102e+00
1.470902e+01	-3.659419e+00
1.479398e+01	-3.687953e+00
1.487943e+01	-3.716960e+00
1.496537e+01	-3.745956e+00
1.505181e+01	-3.774898e+00
1.513875e+01	-3.803753e+00
1.522619e+01	-3.832904e+00
1.531414e+01	-3.862562e+00
1.540259e+01	-3.891902e+00
1.549156e+01	-3.921688e+00
1.558103e+01	-3.951183e+00
1.567103e+01	-3.981503e+00
1.576155e+01	-4.011590e+00
1.585258e+01	-4.041594e+00
1.594415e+01	-4.072357e+00
1.603624e+01	-4.102499e+00
1.612886e+01	-4.133414e+00
1.622202e+01	-4.164172e+00
1.631572e+01	-4.194912e+00
1.640996e+01	-4.226099e+00
1.650474e+01	-4.257022e+00
1.660008e+01	-4.288404e+00
1.669596e+01	-4.319961e+00
1.679239e+01	-4.351462e+00
1.688938e+01	-4.383148e+00
1.698694e+01	-4.414920e+00
1.708505e+01	-4.447076e+00
1.718373e+01	-4.479352e+00
1.728299e+01	-4.511417e+00
1.738281e+01	-4.543809e+00
1.748322e+01	-4.576533e+00
1.758420e+01	-4.609310e+00
1.768576e+01	-4.641920e+00
1.778792e+01	-4.674611e+00
1.789066e+01	-4.707752e+00
1.799399e+01	-4.741225e+00
1.809793e+01	-4.774321e+00
1.820246e+01	-4.807930e+00
1.830760e+01	-4.841420e+00
1.841334e+01	-4.875203e+00
1.851969e+01	-4.908793e+00
1.862666e+01	-4.942621e+00
1.873425e+01	-4.976585e+00
1.884246e+01	-5.010912e+00
1.895129e+01	-5.045082e+00
1.906075e+01	-5.079832e+00
1.917085e+01	-5.114391e+00
1.928158e+01	-5.149179e+00
1.939295e+01	-5.183764e+00
1.950496e+01	-5.218488e+00
1.961762e+01	-5.253944e+00
1.973093e+01	-5.288829e+00
1.984490e+01	-5.324157e+00
1.995952e+01	-5.359350e+00
2.007480e+01	-5.395131e+00
2.019076e+01	-5.430896e+00
2.030738e+01	-5.466467e+00
2.042467e+01	-5.502365e+00
2.054264e+01	-5.538649e+00
2.066130e+01	-5.574471e+00
2.078064e+01	-5.611082e+00
2.090066e+01	-5.647116e+00
2.102139e+01	-5.683249e+00
2.114280e+01	-5.719921e+00
2.126492e+01	-5.756561e+00
2.138775e+01	-5.793274e+00
2.151128e+01	-5.830673e+00
2.163553e+01	-5.867346e+00
2.176050e+01	-5.904830e+00
2.188619e+01	-5.941976e+00
2.201260e+01	-5.978992e+00
2.213974e+01	-6.016701e+00
2.226762e+01	-6.054414e+00
2.239624e+01	-6.091757e+00
2.252560e+01	-6.129500e+00
2.265571e+01	-6.167099e+00
2.278656e+01	-6.205490e+00
2.291818e+01	-6.243710e+00
2.305055e+01	-6.281787e+00
2.318369e+01	-6.320196e+00
2.331760e+01	-6.358333e+00
2.345228e+01	-6.397252e+00
2.358774e+01	-6.436009e+00
2.372398e+01	-6.474405e+00
2.386101e+01	-6.513383e+00
2.399883e+01	-6.552231e+00
2.413745e+01	-6.590921e+00
2.427686e+01	-6.630371e+00
2.441709e+01	-6.669482e+00
2.455812e+01	-6.708448e+00
2.469997e+01	-6.748213e+00
2.484263e+01	-6.787612e+00
2.498612e+01	-6.827109e+00
2.513044e+01	-6.866500e+00
2.527559e+01	-6.906570e+00
2.542158e+01	-6.946257e+00
2.556842e+01	-6.986363e+00
2.571610e+01	-7.026393e+00
2.586463e+01	-7.066729e+00
2.601403e+01	-7.106963e+00
2.616428e+01	-7.147319e+00
2.631541e+01	-7.187531e+00
2.646740e+01	-7.228163e+00
2.662028e+01	-7.268649e+00
2.677404e+01	-7.309451e+00
2.692868e+01	-7.350046e+00
2.708422e+01	-7.390579e+00
2.724066e+01	-7.432220e+00
2.739800e+01	-7.473037e+00
2.755625e+01	-7.513947e+00
2.771541e+01	-7.555014e+00
2.787550e+01	-7.596544e+00
2.803650e+01	-7.638272e+00
2.819844e+01	-7.679653e+00
2.836131e+01	-7.720534e+00
2.852513e+01	-7.762544e+00
2.868989e+01	-7.804287e+00
2.885560e+01	-7.846015e+00
2.902227e+01	-7.888002e+00
2.918990e+01	-7.929897e+00
2.935850e+01	-7.971852e+00
2.952807e+01	-8.013809e+00
2.969863e+01	-8.056093e+00
2.987016e+01	-8.098444e+00
3.004269e+01	-8.140474e+00
3.021622e+01	-8.183172e+00
3.039075e+01	-8.225427e+00
3.056628e+01	-8.268035e+00
3.074283e+01	-8.310901e+00
3.092040e+01	-8.353613e+00
3.109900e+01	-8.395854e+00
3.127862e+01	-8.438749e+00
3.145929e+01	-8.481660e+00
3.164099e+01	-8.525022e+00
3.182375e+01	-8.567709e+00
3.200756e+01	-8.610838e+00
3.219244e+01	-8.654206e+00
3.237838e+01	-8.696976e+00
3.256540e+01	-8.740639e+00
3.275349e+01	-8.784370e+00
3.294268e+01	-8.827270e+00
3.313295e+01	-8.870801e+00
3.332433e+01	-8.914502e+00
3.351681e+01	-8.958147e+00
3.371040e+01	-9.001702e+00
3.390511e+01	-9.045521e+00
3.410094e+01	-9.089460e+00
3.429791e+01	-9.133124e+00
3.449601e+01	-9.177378e+00
3.469526e+01	-9.221405e+00
3.489566e+01	-9.265198e+00
3.509721e+01	-9.309456e+00
3.529993e+01	-9.353653e+00
3.550382e+01	-9.397860e+00
3.570889e+01	-9.442524e+00
3.591515e+01	-9.486075e+00
3.612259e+01	-9.530654e+00
3.633123e+01	-9.575540e+00
3.654108e+01	-9.620399e+00
3.675214e+01	-9.664688e+00
3.696442e+01	-9.709206e+00
3.717792e+01	-9.753707e+00
3.739266e+01	-9.798708e+00
3.760864e+01	-9.843717e+00
3.782587e+01	-9.888336e+00
3.804435e+01	-9.933165e+00
3.826409e+01	-9.978422e+00
3.848510e+01	-1.002361e+01
3.870739e+01	-1.006818e+01
3.893096e+01	-1.011355e+01
3.915583e+01	-1.015875e+01
3.938199e+01	-1.020434e+01
3.960946e+01	-1.024922e+01
3.983824e+01	-1.029446e+01
4.006834e+01	-1.034038e+01
4.029978e+01	-1.038531e+01
4.053255e+01	-1.043078e+01
4.076666e+01	-1.047689e+01
4.100213e+01	-1.052159e+01
4.123896e+01	-1.056760e+01
4.147715e+01	-1.061274e+01
4.171672e+01	-1.065869e+01
4.195767e+01	-1.070474e+01
4.220002e+01	-1.075024e+01
4.244377e+01	-1.079597e+01
4.268892e+01	-1.084180e+01
4.293549e+01	-1.088843e+01
4.318348e+01	-1.093372e+01
4.343291e+01	-1.098013e+01
4.368377e+01	-1.102603e+01
4.393609e+01	-1.107230e+01
4.418986e+01	-1.111857e+01
4.444510e+01	-1.116411e+01
4.470182e+01	-1.121109e+01
4.496001e+01	-1.125701e+01
4.521970e+01	-1.130273e+01
4.548089e+01	-1.134943e+01
4.574358e+01	-1.139566e+01
4.600779e+01	-1.144224e+01
4.627353e+01	-1.148857e+01
4.654081e+01	-1.153528e+01
4.680963e+01	-1.158141e+01
4.708000e+01	-1.162828e+01
4.735193e+01	-1.167466e+01
4.762543e+01	-1.172171e+01
4.790051e+01	-1.176829e+01
4.817719e+01	-1.181483e+01
4.845545e+01	-1.186174e+01
4.873533e+01	-1.190844e+01
4.901682e+01	-1.195523e+01
4.929994e+01	-1.200244e+01
4.958470e+01	-1.204882e+01
4.987110e+01	-1.209583e+01
5.015915e+01	-1.214267e+01
5.044887e+01	-1.219029e+01
5.074026e+01	-1.223777e+01
5.103333e+01	-1.228459e+01
5.132810e+01	-1.233153e+01
5.162457e+01	-1.237847e+01
5.192275e+01	-1.242551e+01
5.222265e+01	-1.247299e+01
5.252429e+01	-1.251986e+01
5.282767e+01	-1.256725e+01
5.313280e+01	-1.261417e+01
5.343969e+01	-1.266186e+01
5.374836e+01	-1.270968e+01
5.405880e+01	-1.275597e+01
5.437105e+01	-1.280371e+01
5.468509e+01	-1.285124e+01
5.500095e+01	-1.289823e+01
5.531863e+01	-1.294574e+01
5.563815e+01	-1.299416e+01
5.595951e+01	-1.304174e+01
5.628273e+01	-1.308978e+01
5.660782e+01	-1.313648e+01
5.693479e+01	-1.318347e+01
5.726364e+01	-1.323234e+01
5.759439e+01	-1.327872e+01
5.792705e+01	-1.332666e+01
5.826164e+01	-1.337405e+01
5.859815e+01	-1.342240e+01
5.893662e+01	-1.346997e+01
5.927703e+01	-1.351750e+01
5.961941e+01	-1.356519e+01
5.996377e+01	-1.361329e+01
6.031012e+01	-1.366219e+01
6.065847e+01	-1.370911e+01
6.100883e+01	-1.375814e+01
6.136121e+01	-1.380533e+01
6.171563e+01	-1.385396e+01
6.207210e+01	-1.390066e+01
6.243063e+01	-1.394933e+01
6.279122e+01	-1.399739e+01
6.315390e+01	-1.404466e+01
6.351868e+01	-1.409307e+01
6.388556e+01	-1.414131e+01
6.425456e+01	-1.418864e+01
6.462569e+01	-1.423698e+01
6.499897e+01	-1.428618e+01
6.537440e+01	-1.433370e+01
6.575200e+01	-1.438272e+01
6.613178e+01	-1.443086e+01
6.651375e+01	-1.447876e+01
6.689793e+01	-1.452749e+01
6.728433e+01	-1.457529e+01
6.767297e+01	-1.462334e+01
6.806384e+01	-1.467141e+01
6.845698e+01	-1.472047e+01
6.885238e+01	-1.476853e+01
6.925007e+01	-1.481631e+01
6.965005e+01	-1.486471e+01
7.005235e+01	-1.491400e+01
7.045697e+01	-1.496167e+01
7.086393e+01	-1.500989e+01
7.127323e+01	-1.505907e+01
7.168490e+01	-1.510742e+01
7.209895e+01	-1.515568e+01
7.251539e+01	-1.520481e+01
7.293424e+01	-1.525323e+01
7.335551e+01	-1.530104e+01
7.377920e+01	-1.535005e+01
7.420535e+01	-1.539835e+01
7.463396e+01	-1.544737e+01
7.506504e+01	-1.549607e+01
7.549861e+01	-1.554318e+01
7.593469e+01	-1.559348e+01
7.637328e+01	-1.564084e+01
7.681441e+01	-1.569124e+01
7.725809e+01	-1.573923e+01
7.770433e+01	-1.578757e+01
7.815315e+01	-1.583705e+01
7.860456e+01	-1.588558e+01
7.905857e+01	-1.593389e+01
7.951521e+01	-1.598211e+01
7.997449e+01	-1.603187e+01
8.043642e+01	-1.607985e+01
8.090102e+01	-1.613001e+01
8.136830e+01	-1.617776e+01
8.183828e+01	-1.622532e+01
8.231097e+01	-1.627583e+01
8.278640e+01	-1.632448e+01
8.326457e+01	-1.637305e+01
8.374550e+01	-1.642198e+01
8.422921e+01	-1.647032e+01
8.471572e+01	-1.652022e+01
8.520503e+01	-1.656898e+01
8.569717e+01	-1.661822e+01
8.619215e+01	-1.666716e+01
8.669000e+01	-1.671543e+01
8.719071e+01	-1.676557e+01
8.769432e+01	-1.681399e+01
8.820084e+01	-1.686215e+01
8.871029e+01	-1.691115e+01
8.922267e+01	-1.696129e+01
8.973802e+01	-1.701022e+01
9.025634e+01	-1.705888e+01
9.077766e+01	-1.710788e+01
9.130199e+01	-1.715670e+01
9.182935e+01	-1.720525e+01
9.235975e+01	-1.725570e+01
9.289321e+01	-1.730410e+01
9.342976e+01	-1.735362e+01
9.396941e+01	-1.740205e+01
9.451217e+01	-1.745107e+01
9.505807e+01	-1.749966e+01
9.560712e+01	-1.754968e+01
9.615934e+01	-1.759784e+01
9.671476e+01	-1.764788e+01
9.727338e+01	-1.769693e+01
9.783522e+01	-1.774643e+01
9.840032e+01	-1.779591e+01
9.896867e+01	-1.784526e+01
9.954031e+01	-1.789509e+01
1.001153e+02	-1.794255e+01
1.006935e+02	-1.799441e+01
1.012751e+02	-1.804198e+01
1.018601e+02	-1.809016e+01
1.024484e+02	-1.814026e+01
1.030402e+02	-1.819005e+01
1.036353e+02	-1.823877e+01
1.042339e+02	-1.828852e+01
1.048360e+02	-1.833720e+01
1.054415e+02	-1.838749e+01
1.060505e+02	-1.843825e+01
1.066631e+02	-1.848522e+01
1.072791e+02	-1.853462e+01
1.078988e+02	-1.858417e+01
1.085220e+02	-1.863433e+01
1.091488e+02	-1.868238e+01
1.097793e+02	-1.873197e+01
1.104133e+02	-1.878180e+01
1.110511e+02	-1.883220e+01
1.116925e+02	-1.887976e+01
1.123376e+02	-1.892857e+01
1.129865e+02	-1.897822e+01
1.136391e+02	-1.902889e+01
1.142955e+02	-1.907855e+01
1.149556e+02	-1.912655e+01
1.156196e+02	-1.917618e+01
1.162874e+02	-1.922556e+01
1.169591e+02	-1.927548e+01
1.176347e+02	-1.932597e+01
1.183141e+02	-1.937441e+01
1.189975e+02	-1.942401e+01
1.196848e+02	-1.947435e+01
1.203761e+02	-1.952191e+01
1.210714e+02	-1.957315e+01
1.217707e+02	-1.962093e+01
1.224740e+02	-1.967123e+01
1.231814e+02	-1.972072e+01
1.238929e+02	-1.977142e+01
1.246085e+02	-1.981988e+01
1.253283e+02	-1.986835e+01
1.260522e+02	-1.992049e+01
1.267802e+02	-1.996929e+01
1.275125e+02	-2.001789e+01
1.282490e+02	-2.006763e+01
1.289898e+02	-2.011641e+01
1.297348e+02	-2.016565e+01
1.304842e+02	-2.021681e+01
1.312378e+02	-2.026681e+01
1.319959e+02	-2.031558e+01
1.327583e+02	-2.036401e+01
1.335251e+02	-2.041387e+01
1.342963e+02	-2.046357e+01
1.350720e+02	-2.051313e+01
1.358522e+02	-2.056153e+01
1.366368e+02	-2.061337e+01
1.374260e+02	-2.066007e+01
1.382198e+02	-2.071044e+01
1.390182e+02	-2.076086e+01
1.398211e+02	-2.081067e+01
1.406287e+02	-2.086126e+01
1.414410e+02	-2.091009e+01
1.422579e+02	-2.095796e+01
1.430796e+02	-2.101101e+01
1.439060e+02	-2.106084e+01
1.447372e+02	-2.110947e+01
1.455732e+02	-2.115917e+01
1.464141e+02	-2.120818e+01
1.472597e+02	-2.125744e+01
1.481103e+02	-2.130884e+01
1.489658e+02	-2.135639e+01
1.498262e+02	-2.140647e+01
1.506916e+02	-2.145626e+01
1.515620e+02	-2.150690e+01
1.524374e+02	-2.155736e+01
1.533179e+02	-2.160542e+01
1.542034e+02	-2.165457e+01
1.550941e+02	-2.170415e+01
1.559899e+02	-2.175652e+01
1.568909e+02	-2.180641e+01
1.577971e+02	-2.185338e+01
1.587085e+02	-2.190345e+01
1.596252e+02	-2.195476e+01
1.605472e+02	-2.200356e+01
1.614745e+02	-2.205352e+01
1.624072e+02	-2.210227e+01
1.633453e+02	-2.215253e+01
1.642887e+02	-2.220037e+01
1.652377e+02	-2.225106e+01
1.661921e+02	-2.230359e+01
1.671520e+02	-2.234980e+01
1.681175e+02	-2.239874e+01
1.690885e+02	-2.245221e+01
1.700651e+02	-2.249972e+01
1.710474e+02	-2.255182e+01
1.720354e+02	-2.260024e+01
1.730291e+02	-2.265000e+01
1.740285e+02	-2.269822e+01
1.750337e+02	-2.275204e+01
1.760446e+02	-2.280205e+01
1.770615e+02	-2.284995e+01
1.780842e+02	-2.290137e+01
1.791128e+02	-2.295062e+01
1.801473e+02	-2.300102e+01
1.811878e+02	-2.304923e+01
1.822344e+02	-2.309875e+01
1.832870e+02	-2.314843e+01
1.843456e+02	-2.319986e+01
1.854104e+02	-2.324782e+01
1.864813e+02	-2.329860e+01
1.875584e+02	-2.334964e+01
1.886418e+02	-2.339924e+01
1.897313e+02	-2.344863e+01
1.908272e+02	-2.349803e+01
1.919294e+02	-2.354827e+01
1.930380e+02	-2.359580e+01
1.941530e+02	-2.364654e+01
1.952744e+02	-2.369572e+01
1.964023e+02	-2.374652e+01
1.975367e+02	-2.379589e+01
1.986777e+02	-2.384502e+01
1.998252e+02	-2.389666e+01
2.009794e+02	-2.394628e+01
2.021403e+02	-2.399640e+01
2.033078e+02	-2.404320e+01
2.044821e+02	-2.409306e+01
2.056632e+02	-2.414435e+01
2.068511e+02	-2.419329e+01
2.080459e+02	-2.424799e+01
2.092475e+02	-2.429305e+01
2.104561e+02	-2.434592e+01
2.116717e+02	-2.439618e+01
2.128943e+02	-2.444471e+01
2.141240e+02	-2.449518e+01
2.153608e+02	-2.454449e+01
2.166047e+02	-2.459540e+01
2.178558e+02	-2.464360e+01
2.191141e+02	-2.469414e+01
2.203797e+02	-2.474416e+01
2.216526e+02	-2.479411e+01
2.229329e+02	-2.484266e+01
2.242205e+02	-2.489506e+01
2.255156e+02	-2.494341e+01
2.268182e+02	-2.499229e+01
2.281283e+02	-2.504102e+01
2.294459e+02	-2.509296e+01
2.307712e+02	-2.514202e+01
2.321041e+02	-2.519198e+01
2.334447e+02	-2.524089e+01
2.347931e+02	-2.529235e+01
2.361493e+02	-2.534384e+01
2.375133e+02	-2.539065e+01
2.388851e+02	-2.544358e+01
2.402649e+02	-2.549368e+01
2.416527e+02	-2.554160e+01
2.430484e+02	-2.559213e+01
2.444523e+02	-2.564430e+01
2.458642e+02	-2.569415e+01
2.472843e+02	-2.574177e+01
2.487126e+02	-2.579049e+01
2.501492e+02	-2.583905e+01
2.515940e+02	-2.589306e+01
2.530472e+02	-2.594068e+01
2.545088e+02	-2.599180e+01
2.559789e+02	-2.604090e+01
2.574574e+02	-2.609440e+01
2.589444e+02	-2.614209e+01
2.604401e+02	-2.619138e+01
2.619444e+02	-2.624402e+01
2.634574e+02	-2.629276e+01
2.649791e+02	-2.634361e+01
2.665096e+02	-2.639238e+01
2.680489e+02	-2.643987e+01
2.695972e+02	-2.648937e+01
2.711544e+02	-2.654179e+01
2.727205e+02	-2.659149e+01
2.742958e+02	-2.663907e+01
2.758801e+02	-2.669374e+01
2.774736e+02	-2.674357e+01
2.790762e+02	-2.679345e+01
2.806882e+02	-2.683875e+01
2.823094e+02	-2.689164e+01
2.839400e+02	-2.694327e+01
2.855800e+02	-2.698949e+01
2.872295e+02	-2.704107e+01
2.888886e+02	-2.709160e+01
2.905572e+02	-2.713980e+01
2.922354e+02	-2.719277e+01
2.939234e+02	-2.723960e+01
2.956211e+02	-2.729071e+01
2.973286e+02	-2.733810e+01
2.990459e+02	-2.739104e+01
3.007732e+02	-2.744408e+01
3.025104e+02	-2.749230e+01
3.042577e+02	-2.754276e+01
3.060151e+02	-2.759225e+01
3.077826e+02	-2.763909e+01
3.095604e+02	-2.769053e+01
3.113484e+02	-2.773871e+01
3.131467e+02	-2.779389e+01
3.149554e+02	-2.784184e+01
3.167746e+02	-2.788840e+01
3.186043e+02	-2.794229e+01
3.204445e+02	-2.799264e+01
3.222954e+02	-2.804228e+01
3.241570e+02	-2.808892e+01
3.260293e+02	-2.814305e+01
3.279124e+02	-2.818990e+01
3.298064e+02	-2.824285e+01
3.317114e+02	-2.829033e+01
3.336273e+02	-2.834104e+01
3.355544e+02	-2.839346e+01
3.374925e+02	-2.844202e+01
3.394418e+02	-2.849280e+01
3.414024e+02	-2.854104e+01
3.433744e+02	-2.859092e+01
3.453577e+02	-2.864109e+01
3.473525e+02	-2.869192e+01
3.493588e+02	-2.873798e+01
3.513766e+02	-2.878766e+01
3.534062e+02	-2.884296e+01
3.554474e+02	-2.889258e+01
3.575005e+02	-2.894190e+01
3.595654e+02	-2.899288e+01
3.616422e+02	-2.904126e+01
3.637311e+02	-2.909626e+01
3.658320e+02	-2.914185e+01
3.679450e+02	-2.919167e+01
3.700702e+02	-2.924505e+01
3.722077e+02	-2.929344e+01
3.743576e+02	-2.934607e+01
3.765199e+02	-2.938944e+01
3.786946e+02	-2.944135e+01
3.808820e+02	-2.949112e+01
3.830819e+02	-2.955145e+01
3.852946e+02	-2.959705e+01
3.875200e+02	-2.963982e+01
3.897583e+02	-2.969159e+01
3.920096e+02	-2.974054e+01
3.942738e+02	-2.979030e+01
3.965511e+02	-2.984451e+01
3.988416e+02	-2.989272e+01
4.011452e+02	-2.994419e+01
4.034622e+02	-2.999449e+01
4.057926e+02	-3.004795e+01
4.081365e+02	-3.009627e+01
4.104938e+02	-3.013985e+01
4.128648e+02	-3.019171e+01
4.152495e+02	-3.024706e+01
4.176480e+02	-3.029987e+01
4.200603e+02	-3.034163e+01
4.224866e+02	-3.039361e+01
4.249268e+02	-3.044758e+01
4.273812e+02	-3.049535e+01
4.298497e+02	-3.054502e+01
4.323325e+02	-3.059994e+01
4.348297e+02	-3.064521e+01
4.373412e+02	-3.069369e+01
4.398673e+02	-3.074836e+01
4.424079e+02	-3.079800e+01
4.449633e+02	-3.084236e+01
4.475334e+02	-3.089548e+01
4.501183e+02	-3.095104e+01
4.527182e+02	-3.099365e+01
4.553330e+02	-3.104643e+01
4.579630e+02	-3.109554e+01
4.606082e+02	-3.114504e+01
4.632687e+02	-3.119514e+01
4.659445e+02	-3.124402e+01
4.686358e+02	-3.130028e+01
4.713426e+02	-3.135179e+01
4.740650e+02	-3.140000e+01
4.768032e+02	-3.144425e+01
4.795572e+02	-3.149740e+01
4.823271e+02	-3.154811e+01
4.851130e+02	-3.160111e+01
4.879150e+02	-3.164641e+01
4.907332e+02	-3.170209e+01
4.935676e+02	-3.175177e+01
4.964185e+02	-3.179652e+01
4.992858e+02	-3.185049e+01
5.021696e+02	-3.190219e+01
5.050701e+02	-3.195238e+01
5.079874e+02	-3.200179e+01
5.109215e+02	-3.205093e+01
5.138726e+02	-3.209477e+01
5.168407e+02	-3.214753e+01
5.198259e+02	-3.220597e+01
5.228284e+02	-3.224967e+01
5.258482e+02	-3.230353e+01
5.288855e+02	-3.234563e+01
5.319403e+02	-3.239974e+01
5.350128e+02	-3.245016e+01
5.381030e+02	-3.250230e+01
5.412111e+02	-3.254749e+01
5.443371e+02	-3.260045e+01
5.474812e+02	-3.265345e+01
5.506434e+02	-3.270715e+01
5.538239e+02	-3.274989e+01
5.570228e+02	-3.279961e+01
5.602401e+02	-3.284798e+01
5.634760e+02	-3.290408e+01
5.667306e+02	-3.295488e+01
5.700040e+02	-3.300128e+01
5.732964e+02	-3.305551e+01
5.766077e+02	-3.310062e+01
5.799382e+02	-3.315795e+01
5.832879e+02	-3.321127e+01
5.866569e+02	-3.325569e+01
5.900454e+02	-3.330852e+01
5.934535e+02	-3.335249e+01
5.968813e+02	-3.341664e+01
6.003288e+02	-3.345356e+01
6.037963e+02	-3.351755e+01
6.072838e+02	-3.355998e+01
6.107914e+02	-3.360643e+01
6.143194e+02	-3.365664e+01
6.178676e+02	-3.370852e+01
6.214364e+02	-3.375864e+01
6.250258e+02	-3.380736e+01
6.286359e+02	-3.386093e+01
6.322669e+02	-3.391790e+01
6.359189e+02	-3.395352e+01
6.395919e+02	-3.400990e+01
6.432862e+02	-3.405893e+01
6.470017e+02	-3.411401e+01
6.507388e+02	-3.416223e+01
6.544974e+02	-3.421459e+01
6.582778e+02	-3.426635e+01
6.620800e+02	-3.431383e+01
6.659041e+02	-3.435513e+01
6.697504e+02	-3.442436e+01
6.736188e+02	-3.446023e+01
6.775096e+02	-3.451248e+01
6.814229e+02	-3.456327e+01
6.853587e+02	-3.462057e+01
6.893173e+02	-3.465955e+01
6.932988e+02	-3.471070e+01
6.973033e+02	-3.477027e+01
7.013309e+02	-3.481452e+01
