Frequency(Hz)	Magnitude(dB)
1.000000e+01	-1.813971e-05
1.005776e+01	-1.834986e-05
1.011585e+01	-1.856245e-05
1.017428e+01	-1.877750e-05
1.023305e+01	-1.899504e-05
1.029215e+01	-1.921510e-05
1.035160e+01	-1.943772e-05
1.041139e+01	-1.966291e-05
1.047153e+01	-1.989071e-05
1.053201e+01	-2.012115e-05
1.059284e+01	-2.035425e-05
1.065403e+01	-2.059006e-05
1.071556e+01	-2.082860e-05
1.077746e+01	-2.106991e-05
1.083971e+01	-2.131401e-05
1.090232e+01	-2.156094e-05
1.096529e+01	-2.181073e-05
1.102862e+01	-2.206341e-05
1.109232e+01	-2.231902e-05
1.115639e+01	-2.257759e-05
1.122083e+01	-2.283916e-05
1.128564e+01	-2.310375e-05
1.135083e+01	-2.337142e-05
1.141639e+01	-2.364218e-05
1.148233e+01	-2.391608e-05
1.154865e+01	-2.419315e-05
1.161536e+01	-2.447344e-05
1.168245e+01	-2.475697e-05
1.174992e+01	-2.504378e-05
1.181779e+01	-2.533392e-05
1.188605e+01	-2.562742e-05
1.195470e+01	-2.592432e-05
1.202375e+01	-2.622466e-05
1.209320e+01	-2.652848e-05
1.216305e+01	-2.683582e-05
1.223330e+01	-2.714672e-05
1.230396e+01	-2.746122e-05
1.237503e+01	-2.777937e-05
1.244651e+01	-2.810120e-05
1.251840e+01	-2.842676e-05
1.259070e+01	-2.875609e-05
1.266343e+01	-2.908923e-05
1.273657e+01	-2.942624e-05
1.281014e+01	-2.976715e-05
1.288413e+01	-3.011201e-05
1.295855e+01	-3.046086e-05
1.303339e+01	-3.081376e-05
1.310867e+01	-3.117075e-05
1.318439e+01	-3.153187e-05
1.326054e+01	-3.189717e-05
1.333713e+01	-3.226671e-05
1.341417e+01	-3.264052e-05
1.349165e+01	-3.301867e-05
1.356958e+01	-3.340120e-05
1.364795e+01	-3.378816e-05
1.372678e+01	-3.417961e-05
1.380607e+01	-3.457558e-05
1.388581e+01	-3.497615e-05
1.396602e+01	-3.538136e-05
1.404668e+01	-3.579126e-05
1.412782e+01	-3.620591e-05
1.420942e+01	-3.662536e-05
1.429149e+01	-3.704968e-05
1.437404e+01	-3.747890e-05
1.445706e+01	-3.791311e-05
1.454057e+01	-3.835234e-05
1.462455e+01	-3.879666e-05
1.470902e+01	-3.924613e-05
1.479398e+01	-3.970080e-05
1.487943e+01	-4.016074e-05
1.496537e+01	-4.062602e-05
1.505181e+01	-4.109668e-05
1.513875e+01	-4.157279e-05
1.522619e+01	-4.205442e-05
1.531414e+01	-4.254163e-05
1.540259e+01	-4.303449e-05
1.549156e+01	-4.353305e-05
1.558103e+01	-4.403739e-05
1.567103e+01	-4.454757e-05
1.576155e+01	-4.506367e-05
1.585258e+01	-4.558574e-05
1.594415e+01	-4.611386e-05
1.603624e+01	-4.664810e-05
1.612886e+01	-4.718853e-05
1.622202e+01	-4.773522e-05
1.631572e+01	-4.828824e-05
1.640996e+01	-4.884767e-05
1.650474e+01	-4.941358e-05
1.660008e+01	-4.998605e-05
1.669596e+01	-5.056515e-05
1.679239e+01	-5.115095e-05
1.688938e+01	-5.174355e-05
1.698694e+01	-5.234301e-05
1.708505e+01	-5.294941e-05
1.718373e+01	-5.356284e-05
1.728299e+01	-5.418338e-05
1.738281e+01	-5.481110e-05
1.748322e+01	-5.544610e-05
1.758420e+01	-5.608846e-05
1.768576e+01	-5.673825e-05
1.778792e+01	-5.739558e-05
1.789066e+01	-5.806052e-05
1.799399e+01	-5.873316e-05
1.809793e+01	-5.941360e-05
1.820246e+01	-6.010191e-05
1.830760e+01	-6.079821e-05
1.841334e+01	-6.150257e-05
1.851969e+01	-6.221509e-05
1.862666e+01	-6.293586e-05
1.873425e+01	-6.366498e-05
1.884246e+01	-6.440255e-05
1.895129e+01	-6.514867e-05
1.906075e+01	-6.590343e-05
1.917085e+01	-6.666693e-05
1.928158e+01	-6.743928e-05
1.939295e+01	-6.822058e-05
1.950496e+01	-6.901093e-05
1.961762e+01	-6.981043e-05
1.973093e+01	-7.061920e-05
1.984490e+01	-7.143734e-05
1.995952e+01	-7.226495e-05
2.007480e+01	-7.310215e-05
2.019076e+01	-7.394905e-05
2.030738e+01	-7.480577e-05
2.042467e+01	-7.567241e-05
2.054264e+01	-7.654908e-05
2.066130e+01	-7.743592e-05
2.078064e+01	-7.833303e-05
2.090066e+01	-7.924053e-05
2.102139e+01	-8.015854e-05
2.114280e+01	-8.108720e-05
2.126492e+01	-8.202660e-05
2.138775e+01	-8.297690e-05
2.151128e+01	-8.393820e-05
2.163553e+01	-8.491064e-05
2.176050e+01	-8.589434e-05
2.188619e+01	-8.688944e-05
2.201260e+01	-8.789607e-05
2.213974e+01	-8.891436e-05
2.226762e+01	-8.994444e-05
2.239624e+01	-9.098647e-05
2.252560e+01	-9.204056e-05
2.265571e+01	-9.310686e-05
2.278656e+01	-9.418552e-05
2.291818e+01	-9.527667e-05
2.305055e+01	-9.638047e-05
2.318369e+01	-9.749705e-05
2.331760e+01	-9.862657e-05
2.345228e+01	-9.976917e-05
2.358774e+01	-1.009250e-04
2.372398e+01	-1.020942e-04
2.386101e+01	-1.032770e-04
2.399883e+01	-1.044735e-04
2.413745e+01	-1.056838e-04
2.427686e+01	-1.069082e-04
2.441709e+01	-1.081467e-04
2.455812e+01	-1.093996e-04
2.469997e+01	-1.106670e-04
2.484263e+01	-1.119491e-04
2.498612e+01	-1.132461e-04
2.513044e+01	-1.145581e-04
2.527559e+01	-1.158852e-04
2.542158e+01	-1.172278e-04
2.556842e+01	-1.185859e-04
2.571610e+01	-1.199597e-04
2.586463e+01	-1.213494e-04
2.601403e+01	-1.227553e-04
2.616428e+01	-1.241774e-04
2.631541e+01	-1.256160e-04
2.646740e+01	-1.270713e-04
2.662028e+01	-1.285434e-04
2.677404e+01	-1.300326e-04
2.692868e+01	-1.315391e-04
2.708422e+01	-1.330630e-04
2.724066e+01	-1.346045e-04
2.739800e+01	-1.361639e-04
2.755625e+01	-1.377414e-04
2.771541e+01	-1.393371e-04
2.787550e+01	-1.409514e-04
2.803650e+01	-1.425843e-04
2.819844e+01	-1.442362e-04
2.836131e+01	-1.459072e-04
2.852513e+01	-1.475975e-04
2.868989e+01	-1.493074e-04
2.885560e+01	-1.510372e-04
2.902227e+01	-1.527869e-04
2.918990e+01	-1.545570e-04
2.935850e+01	-1.563475e-04
2.952807e+01	-1.581588e-04
2.969863e+01	-1.599911e-04
2.987016e+01	-1.618446e-04
3.004269e+01	-1.637196e-04
3.021622e+01	-1.656163e-04
3.039075e+01	-1.675350e-04
3.056628e+01	-1.694759e-04
3.074283e+01	-1.714393e-04
3.092040e+01	-1.734254e-04
3.109900e+01	-1.754345e-04
3.127862e+01	-1.774670e-04
3.145929e+01	-1.795229e-04
3.164099e+01	-1.816027e-04
3.182375e+01	-1.837066e-04
3.200756e+01	-1.858348e-04
3.219244e+01	-1.879877e-04
3.237838e+01	-1.901656e-04
3.256540e+01	-1.923686e-04
3.275349e+01	-1.945972e-04
3.294268e+01	-1.968516e-04
3.313295e+01	-1.991322e-04
3.332433e+01	-2.014391e-04
3.351681e+01	-2.037728e-04
3.371040e+01	-2.061335e-04
3.390511e+01	-2.085216e-04
3.410094e+01	-2.109373e-04
3.429791e+01	-2.133810e-04
3.449601e+01	-2.158530e-04
3.469526e+01	-2.183537e-04
3.489566e+01	-2.208833e-04
3.509721e+01	-2.234422e-04
3.529993e+01	-2.260308e-04
3.550382e+01	-2.286493e-04
3.570889e+01	-2.312982e-04
3.591515e+01	-2.339778e-04
3.612259e+01	-2.366885e-04
3.633123e+01	-2.394305e-04
3.654108e+01	-2.422043e-04
3.675214e+01	-2.450102e-04
3.696442e+01	-2.478486e-04
3.717792e+01	-2.507199e-04
3.739266e+01	-2.536245e-04
3.760864e+01	-2.565627e-04
3.782587e+01	-2.595350e-04
3.804435e+01	-2.625417e-04
3.826409e+01	-2.655832e-04
3.848510e+01	-2.686600e-04
3.870739e+01	-2.717724e-04
3.893096e+01	-2.749208e-04
3.915583e+01	-2.781058e-04
3.938199e+01	-2.813276e-04
3.960946e+01	-2.845868e-04
3.983824e+01	-2.878837e-04
4.006834e+01	-2.912188e-04
4.029978e+01	-2.945925e-04
4.053255e+01	-2.980053e-04
4.076666e+01	-3.014577e-04
4.100213e+01	-3.049500e-04
4.123896e+01	-3.084828e-04
4.147715e+01	-3.120566e-04
4.171672e+01	-3.156717e-04
4.195767e+01	-3.193287e-04
4.220002e+01	-3.230281e-04
4.244377e+01	-3.267703e-04
4.268892e+01	-3.305559e-04
4.293549e+01	-3.343853e-04
4.318348e+01	-3.382591e-04
4.343291e+01	-3.421778e-04
4.368377e+01	-3.461418e-04
4.393609e+01	-3.501518e-04
4.418986e+01	-3.542083e-04
4.444510e+01	-3.583117e-04
4.470182e+01	-3.624627e-04
4.496001e+01	-3.666617e-04
4.521970e+01	-3.709094e-04
4.548089e+01	-3.752063e-04
4.574358e+01	-3.795530e-04
4.600779e+01	-3.839500e-04
4.627353e+01	-3.883980e-04
4.654081e+01	-3.928975e-04
4.680963e+01	-3.974491e-04
4.708000e+01	-4.020535e-04
4.735193e+01	-4.067111e-04
4.762543e+01	-4.114228e-04
4.790051e+01	-4.161890e-04
4.817719e+01	-4.210104e-04
4.845545e+01	-4.258877e-04
4.873533e+01	-4.308215e-04
4.901682e+01	-4.358124e-04
4.929994e+01	-4.408612e-04
4.958470e+01	-4.459684e-04
4.987110e+01	-4.511348e-04
5.015915e+01	-4.563611e-04
5.044887e+01	-4.616479e-04
5.074026e+01	-4.669959e-04
5.103333e+01	-4.724059e-04
5.132810e+01	-4.778785e-04
5.162457e+01	-4.834146e-04
5.192275e+01	-4.890148e-04
5.222265e+01	-4.946798e-04
5.252429e+01	-5.004105e-04
5.282767e+01	-5.062075e-04
5.313280e+01	-5.120717e-04
5.343969e+01	-5.180039e-04
5.374836e+01	-5.240047e-04
5.405880e+01	-5.300751e-04
5.437105e+01	-5.362158e-04
5.468509e+01	-5.424276e-04
5.500095e+01	-5.487114e-04
5.531863e+01	-5.550680e-04
5.563815e+01	-5.614981e-04
5.595951e+01	-5.680028e-04
5.628273e+01	-5.745829e-04
5.660782e+01	-5.812391e-04
5.693479e+01	-5.879725e-04
5.726364e+01	-5.947838e-04
5.759439e+01	-6.016741e-04
5.792705e+01	-6.086442e-04
5.826164e+01	-6.156950e-04
5.859815e+01	-6.228275e-04
5.893662e+01	-6.300426e-04
5.927703e+01	-6.373413e-04
5.961941e+01	-6.447245e-04
5.996377e+01	-6.521932e-04
6.031012e+01	-6.597485e-04
6.065847e+01	-6.673913e-04
6.100883e+01	-6.751226e-04
6.136121e+01	-6.829434e-04
6.171563e+01	-6.908549e-04
6.207210e+01	-6.988580e-04
6.243063e+01	-7.069538e-04
6.279122e+01	-7.151434e-04
6.315390e+01	-7.234278e-04
6.351868e+01	-7.318082e-04
6.388556e+01	-7.402857e-04
6.425456e+01	-7.488614e-04
6.462569e+01	-7.575364e-04
6.499897e+01	-7.663119e-04
6.537440e+01	-7.751890e-04
6.575200e+01	-7.841690e-04
6.613178e+01	-7.932530e-04
6.651375e+01	-8.024422e-04
6.689793e+01	-8.117378e-04
6.728433e+01	-8.211411e-04
6.767297e+01	-8.306534e-04
6.806384e+01	-8.402758e-04
6.845698e+01	-8.500097e-04
6.885238e+01	-8.598563e-04
6.925007e+01	-8.698170e-04
6.965005e+01	-8.798930e-04
7.005235e+01	-8.900858e-04
7.045697e+01	-9.003966e-04
7.086393e+01	-9.108268e-04
7.127323e+01	-9.213779e-04
7.168490e+01	-9.320512e-04
7.209895e+01	-9.428481e-04
7.251539e+01	-9.537700e-04
7.293424e+01	-9.648185e-04
7.335551e+01	-9.759949e-04
7.377920e+01	-9.873008e-04
7.420535e+01	-9.987376e-04
7.463396e+01	-1.010307e-03
7.506504e+01	-1.022010e-03
7.549861e+01	-1.033849e-03
7.593469e+01	-1.045825e-03
7.637328e+01	-1.057940e-03
7.681441e+01	-1.070195e-03
7.725809e+01	-1.082592e-03
7.770433e+01	-1.095132e-03
7.815315e+01	-1.107818e-03
7.860456e+01	-1.120651e-03
7.905857e+01	-1.133632e-03
7.951521e+01	-1.146764e-03
7.997449e+01	-1.160048e-03
8.043642e+01	-1.173485e-03
8.090102e+01	-1.187079e-03
8.136830e+01	-1.200829e-03
8.183828e+01	-1.214739e-03
8.231097e+01	-1.228810e-03
8.278640e+01	-1.243044e-03
8.326457e+01	-1.257443e-03
8.374550e+01	-1.272009e-03
8.422921e+01	-1.286743e-03
8.471572e+01	-1.301648e-03
8.520503e+01	-1.316726e-03
8.569717e+01	-1.331978e-03
8.619215e+01	-1.347407e-03
8.669000e+01	-1.363015e-03
8.719071e+01	-1.378803e-03
8.769432e+01	-1.394775e-03
8.820084e+01	-1.410931e-03
8.871029e+01	-1.427274e-03
8.922267e+01	-1.443807e-03
8.973802e+01	-1.460531e-03
9.025634e+01	-1.477449e-03
9.077766e+01	-1.494562e-03
9.130199e+01	-1.511874e-03
9.182935e+01	-1.529387e-03
9.235975e+01	-1.547102e-03
9.289321e+01	-1.565022e-03
9.342976e+01	-1.583150e-03
9.396941e+01	-1.601488e-03
9.451217e+01	-1.620038e-03
9.505807e+01	-1.638803e-03
9.560712e+01	-1.657785e-03
9.615934e+01	-1.676988e-03
9.671476e+01	-1.696412e-03
9.727338e+01	-1.716062e-03
9.783522e+01	-1.735939e-03
9.840032e+01	-1.756046e-03
9.896867e+01	-1.776386e-03
9.954031e+01	-1.796962e-03
1.001153e+02	-1.817776e-03
1.006935e+02	-1.838831e-03
1.012751e+02	-1.860129e-03
1.018601e+02	-1.881675e-03
1.024484e+02	-1.903470e-03
1.030402e+02	-1.925517e-03
1.036353e+02	-1.947820e-03
1.042339e+02	-1.970381e-03
1.048360e+02	-1.993203e-03
1.054415e+02	-2.016289e-03
1.060505e+02	-2.039643e-03
1.066631e+02	-2.063267e-03
1.072791e+02	-2.087165e-03
1.078988e+02	-2.111339e-03
1.085220e+02	-2.135794e-03
1.091488e+02	-2.160531e-03
1.097793e+02	-2.185555e-03
1.104133e+02	-2.210869e-03
1.110511e+02	-2.236476e-03
1.116925e+02	-2.262379e-03
1.123376e+02	-2.288583e-03
1.129865e+02	-2.315090e-03
1.136391e+02	-2.341903e-03
1.142955e+02	-2.369027e-03
1.149556e+02	-2.396466e-03
1.156196e+02	-2.424222e-03
1.162874e+02	-2.452299e-03
1.169591e+02	-2.480701e-03
1.176347e+02	-2.509433e-03
1.183141e+02	-2.538497e-03
1.189975e+02	-2.567897e-03
1.196848e+02	-2.597638e-03
1.203761e+02	-2.627723e-03
1.210714e+02	-2.658157e-03
1.217707e+02	-2.688942e-03
1.224740e+02	-2.720085e-03
1.231814e+02	-2.751588e-03
1.238929e+02	-2.783455e-03
1.246085e+02	-2.815692e-03
1.253283e+02	-2.848302e-03
1.260522e+02	-2.881289e-03
1.267802e+02	-2.914658e-03
1.275125e+02	-2.948414e-03
1.282490e+02	-2.982560e-03
1.289898e+02	-3.017102e-03
1.297348e+02	-3.052044e-03
1.304842e+02	-3.087390e-03
1.312378e+02	-3.123145e-03
1.319959e+02	-3.159315e-03
1.327583e+02	-3.195903e-03
1.335251e+02	-3.232914e-03
1.342963e+02	-3.270354e-03
1.350720e+02	-3.308228e-03
1.358522e+02	-3.346540e-03
1.366368e+02	-3.385295e-03
1.374260e+02	-3.424499e-03
1.382198e+02	-3.464157e-03
1.390182e+02	-3.504274e-03
1.398211e+02	-3.544855e-03
1.406287e+02	-3.585906e-03
1.414410e+02	-3.627433e-03
1.422579e+02	-3.669440e-03
1.430796e+02	-3.711933e-03
1.439060e+02	-3.754918e-03
1.447372e+02	-3.798400e-03
1.455732e+02	-3.842386e-03
1.464141e+02	-3.886882e-03
1.472597e+02	-3.931892e-03
1.481103e+02	-3.977423e-03
1.489658e+02	-4.023481e-03
1.498262e+02	-4.070072e-03
1.506916e+02	-4.117202e-03
1.515620e+02	-4.164878e-03
1.524374e+02	-4.213106e-03
1.533179e+02	-4.261892e-03
1.542034e+02	-4.311243e-03
1.550941e+02	-4.361164e-03
1.559899e+02	-4.411664e-03
1.568909e+02	-4.462748e-03
1.577971e+02	-4.514423e-03
1.587085e+02	-4.566696e-03
1.596252e+02	-4.619574e-03
1.605472e+02	-4.673065e-03
1.614745e+02	-4.727174e-03
1.624072e+02	-4.781909e-03
1.633453e+02	-4.837278e-03
1.642887e+02	-4.893287e-03
1.652377e+02	-4.949945e-03
1.661921e+02	-5.007258e-03
1.671520e+02	-5.065235e-03
1.681175e+02	-5.123882e-03
1.690885e+02	-5.183208e-03
1.700651e+02	-5.243220e-03
1.710474e+02	-5.303927e-03
1.720354e+02	-5.365337e-03
1.730291e+02	-5.427457e-03
1.740285e+02	-5.490295e-03
1.750337e+02	-5.553861e-03
1.760446e+02	-5.618162e-03
1.770615e+02	-5.683207e-03
1.780842e+02	-5.749005e-03
1.791128e+02	-5.815564e-03
1.801473e+02	-5.882893e-03
1.811878e+02	-5.951001e-03
1.822344e+02	-6.019897e-03
1.832870e+02	-6.089590e-03
1.843456e+02	-6.160089e-03
1.854104e+02	-6.231404e-03
1.864813e+02	-6.303544e-03
1.875584e+02	-6.376519e-03
1.886418e+02	-6.450337e-03
1.897313e+02	-6.525010e-03
1.908272e+02	-6.600546e-03
1.919294e+02	-6.676956e-03
1.930380e+02	-6.754250e-03
1.941530e+02	-6.832438e-03
1.952744e+02	-6.911531e-03
1.964023e+02	-6.991538e-03
1.975367e+02	-7.072470e-03
1.986777e+02	-7.154339e-03
1.998252e+02	-7.237155e-03
2.009794e+02	-7.320928e-03
2.021403e+02	-7.405671e-03
2.033078e+02	-7.491393e-03
2.044821e+02	-7.578107e-03
2.056632e+02	-7.665823e-03
2.068511e+02	-7.754554e-03
2.080459e+02	-7.844311e-03
2.092475e+02	-7.935107e-03
2.104561e+02	-8.026952e-03
2.116717e+02	-8.119859e-03
2.128943e+02	-8.213840e-03
2.141240e+02	-8.308908e-03
2.153608e+02	-8.405076e-03
2.166047e+02	-8.502355e-03
2.178558e+02	-8.600759e-03
2.191141e+02	-8.700301e-03
2.203797e+02	-8.800994e-03
2.216526e+02	-8.902851e-03
2.229329e+02	-9.005885e-03
2.242205e+02	-9.110111e-03
2.255156e+02	-9.215542e-03
2.268182e+02	-9.322191e-03
2.281283e+02	-9.430074e-03
2.294459e+02	-9.539203e-03
2.307712e+02	-9.649594e-03
2.321041e+02	-9.761261e-03
2.334447e+02	-9.874219e-03
2.347931e+02	-9.988482e-03
2.361493e+02	-1.010407e-02
2.375133e+02	-1.022099e-02
2.388851e+02	-1.033926e-02
2.402649e+02	-1.045890e-02
2.416527e+02	-1.057992e-02
2.430484e+02	-1.070234e-02
2.444523e+02	-1.082617e-02
2.458642e+02	-1.095144e-02
2.472843e+02	-1.107815e-02
2.487126e+02	-1.120633e-02
2.501492e+02	-1.133598e-02
2.515940e+02	-1.146714e-02
2.530472e+02	-1.159981e-02
2.545088e+02	-1.173402e-02
2.559789e+02	-1.186977e-02
2.574574e+02	-1.200710e-02
2.589444e+02	-1.214601e-02
2.604401e+02	-1.228652e-02
2.619444e+02	-1.242866e-02
2.634574e+02	-1.257244e-02
2.649791e+02	-1.271788e-02
2.665096e+02	-1.286500e-02
2.680489e+02	-1.301382e-02
2.695972e+02	-1.316436e-02
2.711544e+02	-1.331664e-02
2.727205e+02	-1.347067e-02
2.742958e+02	-1.362649e-02
2.758801e+02	-1.378411e-02
2.774736e+02	-1.394354e-02
2.790762e+02	-1.410482e-02
2.806882e+02	-1.426796e-02
2.823094e+02	-1.443298e-02
2.839400e+02	-1.459991e-02
2.855800e+02	-1.476876e-02
2.872295e+02	-1.493956e-02
2.888886e+02	-1.511234e-02
2.905572e+02	-1.528711e-02
2.922354e+02	-1.546390e-02
2.939234e+02	-1.564273e-02
2.956211e+02	-1.582362e-02
2.973286e+02	-1.600661e-02
2.990459e+02	-1.619170e-02
3.007732e+02	-1.637893e-02
3.025104e+02	-1.656832e-02
3.042577e+02	-1.675990e-02
3.060151e+02	-1.695369e-02
3.077826e+02	-1.714971e-02
3.095604e+02	-1.734799e-02
3.113484e+02	-1.754857e-02
3.131467e+02	-1.775146e-02
3.149554e+02	-1.795668e-02
3.167746e+02	-1.816428e-02
3.186043e+02	-1.837427e-02
3.204445e+02	-1.858669e-02
3.222954e+02	-1.880155e-02
3.241570e+02	-1.901889e-02
3.260293e+02	-1.923874e-02
3.279124e+02	-1.946113e-02
3.298064e+02	-1.968607e-02
3.317114e+02	-1.991362e-02
3.336273e+02	-2.014379e-02
3.355544e+02	-2.037661e-02
3.374925e+02	-2.061211e-02
3.394418e+02	-2.085034e-02
3.414024e+02	-2.109130e-02
3.433744e+02	-2.133505e-02
3.453577e+02	-2.158161e-02
3.473525e+02	-2.183100e-02
3.493588e+02	-2.208328e-02
3.513766e+02	-2.233846e-02
3.534062e+02	-2.259658e-02
3.554474e+02	-2.285767e-02
3.575005e+02	-2.312178e-02
3.595654e+02	-2.338893e-02
3.616422e+02	-2.365915e-02
3.637311e+02	-2.393249e-02
3.658320e+02	-2.420898e-02
3.679450e+02	-2.448866e-02
3.700702e+02	-2.477155e-02
3.722077e+02	-2.505771e-02
3.743576e+02	-2.534716e-02
3.765199e+02	-2.563994e-02
3.786946e+02	-2.593609e-02
3.808820e+02	-2.623566e-02
3.830819e+02	-2.653868e-02
3.852946e+02	-2.684518e-02
3.875200e+02	-2.715521e-02
3.897583e+02	-2.746882e-02
3.920096e+02	-2.778603e-02
3.942738e+02	-2.810689e-02
3.965511e+02	-2.843145e-02
3.988416e+02	-2.875974e-02
4.011452e+02	-2.909181e-02
4.034622e+02	-2.942770e-02
4.057926e+02	-2.976746e-02
4.081365e+02	-3.011112e-02
4.104938e+02	-3.045874e-02
4.128648e+02	-3.081036e-02
4.152495e+02	-3.116602e-02
4.176480e+02	-3.152577e-02
4.200603e+02	-3.188966e-02
4.224866e+02	-3.225773e-02
4.249268e+02	-3.263004e-02
4.273812e+02	-3.300663e-02
4.298497e+02	-3.338754e-02
4.323325e+02	-3.377284e-02
4.348297e+02	-3.416256e-02
4.373412e+02	-3.455677e-02
4.398673e+02	-3.495550e-02
4.424079e+02	-3.535882e-02
4.449633e+02	-3.576677e-02
4.475334e+02	-3.617940e-02
4.501183e+02	-3.659678e-02
4.527182e+02	-3.701895e-02
4.553330e+02	-3.744597e-02
4.579630e+02	-3.787790e-02
4.606082e+02	-3.831478e-02
4.632687e+02	-3.875668e-02
4.659445e+02	-3.920366e-02
4.686358e+02	-3.965576e-02
4.713426e+02	-4.011306e-02
4.740650e+02	-4.057560e-02
4.768032e+02	-4.104346e-02
4.795572e+02	-4.151668e-02
4.823271e+02	-4.199533e-02
4.851130e+02	-4.247947e-02
4.879150e+02	-4.296917e-02
4.907332e+02	-4.346448e-02
4.935676e+02	-4.396547e-02
4.964185e+02	-4.447221e-02
4.992858e+02	-4.498476e-02
5.021696e+02	-4.550319e-02
5.050701e+02	-4.602755e-02
5.079874e+02	-4.655793e-02
5.109215e+02	-4.709439e-02
5.138726e+02	-4.763699e-02
5.168407e+02	-4.818581e-02
5.198259e+02	-4.874092e-02
5.228284e+02	-4.930238e-02
5.258482e+02	-4.987028e-02
5.288855e+02	-5.044468e-02
5.319403e+02	-5.102565e-02
5.350128e+02	-5.161328e-02
5.381030e+02	-5.220764e-02
5.412111e+02	-5.280879e-02
5.443371e+02	-5.341683e-02
5.474812e+02	-5.403182e-02
5.506434e+02	-5.465385e-02
5.538239e+02	-5.528299e-02
5.570228e+02	-5.591933e-02
5.602401e+02	-5.656295e-02
5.634760e+02	-5.721393e-02
5.667306e+02	-5.787234e-02
5.700040e+02	-5.853829e-02
5.732964e+02	-5.921184e-02
5.766077e+02	-5.989309e-02
5.799382e+02	-6.058212e-02
5.832879e+02	-6.127903e-02
5.866569e+02	-6.198389e-02
5.900454e+02	-6.269680e-02
5.934535e+02	-6.341785e-02
5.968813e+02	-6.414714e-02
6.003288e+02	-6.488474e-02
6.037963e+02	-6.563077e-02
6.072838e+02	-6.638530e-02
6.107914e+02	-6.714845e-02
6.143194e+02	-6.792029e-02
6.178676e+02	-6.870094e-02
6.214364e+02	-6.949049e-02
6.250258e+02	-7.028904e-02
6.286359e+02	-7.109669e-02
6.322669e+02	-7.191355e-02
6.359189e+02	-7.273971e-02
6.395919e+02	-7.357528e-02
6.432862e+02	-7.442036e-02
6.470017e+02	-7.527507e-02
6.507388e+02	-7.613951e-02
6.544974e+02	-7.701379e-02
6.582778e+02	-7.789801e-02
6.620800e+02	-7.879230e-02
6.659041e+02	-7.969676e-02
6.697504e+02	-8.061150e-02
6.736188e+02	-8.153665e-02
6.775096e+02	-8.247231e-02
6.814229e+02	-8.341860e-02
6.853587e+02	-8.437565e-02
6.893173e+02	-8.534356e-02
6.932988e+02	-8.632248e-02
6.973033e+02	-8.731250e-02
7.013309e+02	-8.831377e-02
