Frequency(Hz)	Magnitude(dB)
1.000000e+01	-2.194720e+00
1.005776e+01	-2.214557e+00
1.011585e+01	-2.234613e+00
1.017428e+01	-2.254674e+00
1.023305e+01	-2.275063e+00
1.029215e+01	-2.295785e+00
1.035160e+01	-2.316049e+00
1.041139e+01	-2.337097e+00
1.047153e+01	-2.358090e+00
1.053201e+01	-2.379047e+00
1.059284e+01	-2.399996e+00
1.065403e+01	-2.421451e+00
1.071556e+01	-2.442954e+00
1.077746e+01	-2.464504e+00
1.083971e+01	-2.486181e+00
1.090232e+01	-2.508303e+00
1.096529e+01	-2.530066e+00
1.102862e+01	-2.552152e+00
1.109232e+01	-2.574724e+00
1.115639e+01	-2.596959e+00
1.122083e+01	-2.619753e+00
1.128564e+01	-2.642461e+00
1.135083e+01	-2.665240e+00
1.141639e+01	-2.688104e+00
1.148233e+01	-2.711426e+00
1.154865e+01	-2.734892e+00
1.161536e+01	-2.758120e+00
1.168245e+01	-2.781903e+00
1.174992e+01	-2.805476e+00
1.181779e+01	-2.829223e+00
1.188605e+01	-2.853513e+00
1.195470e+01	-2.877634e+00
1.202375e+01	-2.901753e+00
1.209320e+01	-2.926244e+00
1.216305e+01	-2.950971e+00
1.223330e+01	-2.975787e+00
1.230396e+01	-3.000560e+00
1.237503e+01	-3.025395e+00
1.244651e+01	-3.050756e+00
1.251840e+01	-3.076092e+00
1.259070e+01	-3.101455e+00
1.266343e+01	-3.127125e+00
1.273657e+01	-3.152897e+00
1.281014e+01	-3.178790e+00
1.288413e+01	-3.204947e+00
1.295855e+01	-3.231135e+00
1.303339e+01	-3.257036e+00
1.310867e+01	-3.283801e+00
1.318439e+01	-3.310379e+00
1.326054e+01	-3.337005e+00
1.333713e+01	-3.363875e+00
1.341417e+01	-3.391042e+00
1.349165e+01	-3.418091e+00
1.356958e+01	-3.445680e+00
1.364795e+01	-3.473265e+00
1.372678e+01	-3.500682e+00
1.380607e+01	-3.528302e+00
1.388581e+01	-3.556429e+00
1.396602e+01	-3.584424e+00
1.404668e+01	-3.612527e+00
1.412782e+01	-3.640588e+00
1.420942e+01	-3.669421e+00
1.429149e+01	-3.697547e+00
1.437404e+01	-3.726662e+00
1.445706e+01	-3.755553e+00
1.454057e+01	-3.784467e+00
1.462455e+01	-3.813615e+00
1.470902e+01	-3.843004e+00
1.479398e+01	-3.872660e+00
1.487943e+01	-3.902130e+00
1.496537e+01	-3.931799e+00
1.505181e+01	-3.961304e+00
1.513875e+01	-3.991609e+00
1.522619e+01	-4.021885e+00
1.531414e+01	-4.051832e+00
1.540259e+01	-4.082504e+00
1.549156e+01	-4.112868e+00
1.558103e+01	-4.143841e+00
1.567103e+01	-4.174589e+00
1.576155e+01	-4.205404e+00
1.585258e+01	-4.236534e+00
1.594415e+01	-4.267958e+00
1.603624e+01	-4.299100e+00
1.612886e+01	-4.330884e+00
1.622202e+01	-4.362068e+00
1.631572e+01	-4.394172e+00
1.640996e+01	-4.426040e+00
1.650474e+01	-4.458048e+00
1.660008e+01	-4.490217e+00
1.669596e+01	-4.522665e+00
1.679239e+01	-4.554966e+00
1.688938e+01	-4.587278e+00
1.698694e+01	-4.620048e+00
1.708505e+01	-4.652929e+00
1.718373e+01	-4.685951e+00
1.728299e+01	-4.719003e+00
1.738281e+01	-4.752111e+00
1.748322e+01	-4.785791e+00
1.758420e+01	-4.819386e+00
1.768576e+01	-4.852748e+00
1.778792e+01	-4.886656e+00
1.789066e+01	-4.920249e+00
1.799399e+01	-4.954054e+00
1.809793e+01	-4.988422e+00
1.820246e+01	-5.022412e+00
1.830760e+01	-5.056936e+00
1.841334e+01	-5.091461e+00
1.851969e+01	-5.126038e+00
1.862666e+01	-5.160749e+00
1.873425e+01	-5.195460e+00
1.884246e+01	-5.230361e+00
1.895129e+01	-5.265155e+00
1.906075e+01	-5.300839e+00
1.917085e+01	-5.336041e+00
1.928158e+01	-5.371712e+00
1.939295e+01	-5.407470e+00
1.950496e+01	-5.442650e+00
1.961762e+01	-5.478321e+00
1.973093e+01	-5.514723e+00
1.984490e+01	-5.550669e+00
1.995952e+01	-5.586837e+00
2.007480e+01	-5.622800e+00
2.019076e+01	-5.659480e+00
2.030738e+01	-5.695715e+00
2.042467e+01	-5.732315e+00
2.054264e+01	-5.769288e+00
2.066130e+01	-5.805770e+00
2.078064e+01	-5.842879e+00
2.090066e+01	-5.879943e+00
2.102139e+01	-5.917395e+00
2.114280e+01	-5.954376e+00
2.126492e+01	-5.992113e+00
2.138775e+01	-6.029155e+00
2.151128e+01	-6.067020e+00
2.163553e+01	-6.104731e+00
2.176050e+01	-6.142497e+00
2.188619e+01	-6.180298e+00
2.201260e+01	-6.218315e+00
2.213974e+01	-6.256412e+00
2.226762e+01	-6.294792e+00
2.239624e+01	-6.333021e+00
2.252560e+01	-6.371376e+00
2.265571e+01	-6.410212e+00
2.278656e+01	-6.448993e+00
2.291818e+01	-6.487443e+00
2.305055e+01	-6.526545e+00
2.318369e+01	-6.564908e+00
2.331760e+01	-6.604113e+00
2.345228e+01	-6.643189e+00
2.358774e+01	-6.682373e+00
2.372398e+01	-6.721910e+00
2.386101e+01	-6.761590e+00
2.399883e+01	-6.800943e+00
2.413745e+01	-6.840521e+00
2.427686e+01	-6.880223e+00
2.441709e+01	-6.919961e+00
2.455812e+01	-6.960140e+00
2.469997e+01	-7.000215e+00
2.484263e+01	-7.040183e+00
2.498612e+01	-7.080263e+00
2.513044e+01	-7.120212e+00
2.527559e+01	-7.160884e+00
2.542158e+01	-7.201269e+00
2.556842e+01	-7.241442e+00
2.571610e+01	-7.282452e+00
2.586463e+01	-7.323494e+00
2.601403e+01	-7.363866e+00
2.616428e+01	-7.405186e+00
2.631541e+01	-7.446382e+00
2.646740e+01	-7.487043e+00
2.662028e+01	-7.528596e+00
2.677404e+01	-7.569179e+00
2.692868e+01	-7.610925e+00
2.708422e+01	-7.652361e+00
2.724066e+01	-7.693722e+00
2.739800e+01	-7.734970e+00
2.755625e+01	-7.776975e+00
2.771541e+01	-7.818176e+00
2.787550e+01	-7.860253e+00
2.803650e+01	-7.901884e+00
2.819844e+01	-7.943974e+00
2.836131e+01	-7.986315e+00
2.852513e+01	-8.028503e+00
2.868989e+01	-8.070527e+00
2.885560e+01	-8.112608e+00
2.902227e+01	-8.155227e+00
2.918990e+01	-8.197253e+00
2.935850e+01	-8.239729e+00
2.952807e+01	-8.282711e+00
2.969863e+01	-8.324804e+00
2.987016e+01	-8.368060e+00
3.004269e+01	-8.410521e+00
3.021622e+01	-8.453544e+00
3.039075e+01	-8.496162e+00
3.056628e+01	-8.539083e+00
3.074283e+01	-8.582255e+00
3.092040e+01	-8.625113e+00
3.109900e+01	-8.668586e+00
3.127862e+01	-8.711829e+00
3.145929e+01	-8.755374e+00
3.164099e+01	-8.798208e+00
3.182375e+01	-8.842110e+00
3.200756e+01	-8.885996e+00
3.219244e+01	-8.929612e+00
3.237838e+01	-8.972818e+00
3.256540e+01	-9.016389e+00
3.275349e+01	-9.060603e+00
3.294268e+01	-9.104051e+00
3.313295e+01	-9.148358e+00
3.332433e+01	-9.192082e+00
3.351681e+01	-9.235828e+00
3.371040e+01	-9.280231e+00
3.390511e+01	-9.324420e+00
3.410094e+01	-9.368673e+00
3.429791e+01	-9.413149e+00
3.449601e+01	-9.457044e+00
3.469526e+01	-9.501654e+00
3.489566e+01	-9.546275e+00
3.509721e+01	-9.590192e+00
3.529993e+01	-9.635001e+00
3.550382e+01	-9.679877e+00
3.570889e+01	-9.724210e+00
3.591515e+01	-9.769397e+00
3.612259e+01	-9.814214e+00
3.633123e+01	-9.858529e+00
3.654108e+01	-9.903427e+00
3.675214e+01	-9.948734e+00
3.696442e+01	-9.993672e+00
3.717792e+01	-1.003872e+01
3.739266e+01	-1.008407e+01
3.760864e+01	-1.012878e+01
3.782587e+01	-1.017451e+01
3.804435e+01	-1.021962e+01
3.826409e+01	-1.026453e+01
3.848510e+01	-1.030971e+01
3.870739e+01	-1.035578e+01
3.893096e+01	-1.040083e+01
3.915583e+01	-1.044664e+01
3.938199e+01	-1.049190e+01
3.960946e+01	-1.053737e+01
3.983824e+01	-1.058311e+01
4.006834e+01	-1.062870e+01
4.029978e+01	-1.067428e+01
4.053255e+01	-1.072078e+01
4.076666e+01	-1.076598e+01
4.100213e+01	-1.081143e+01
4.123896e+01	-1.085758e+01
4.147715e+01	-1.090347e+01
4.171672e+01	-1.095013e+01
4.195767e+01	-1.099556e+01
4.220002e+01	-1.104161e+01
4.244377e+01	-1.108771e+01
4.268892e+01	-1.113377e+01
4.293549e+01	-1.118003e+01
4.318348e+01	-1.122627e+01
4.343291e+01	-1.127296e+01
4.368377e+01	-1.131934e+01
4.393609e+01	-1.136578e+01
4.418986e+01	-1.141173e+01
4.444510e+01	-1.145861e+01
4.470182e+01	-1.150442e+01
4.496001e+01	-1.155151e+01
4.521970e+01	-1.159782e+01
4.548089e+01	-1.164465e+01
4.574358e+01	-1.169066e+01
4.600779e+01	-1.173756e+01
4.627353e+01	-1.178420e+01
4.654081e+01	-1.183035e+01
4.680963e+01	-1.187790e+01
4.708000e+01	-1.192499e+01
4.735193e+01	-1.197133e+01
4.762543e+01	-1.201805e+01
4.790051e+01	-1.206517e+01
4.817719e+01	-1.211173e+01
4.845545e+01	-1.215928e+01
4.873533e+01	-1.220618e+01
4.901682e+01	-1.225304e+01
4.929994e+01	-1.229981e+01
4.958470e+01	-1.234740e+01
4.987110e+01	-1.239467e+01
5.015915e+01	-1.244158e+01
5.044887e+01	-1.248877e+01
5.074026e+01	-1.253655e+01
5.103333e+01	-1.258323e+01
5.132810e+01	-1.263062e+01
5.162457e+01	-1.267750e+01
5.192275e+01	-1.272466e+01
5.222265e+01	-1.277217e+01
5.252429e+01	-1.282000e+01
5.282767e+01	-1.286711e+01
5.313280e+01	-1.291508e+01
5.343969e+01	-1.296225e+01
5.374836e+01	-1.300999e+01
5.405880e+01	-1.305687e+01
5.437105e+01	-1.310510e+01
5.468509e+01	-1.315235e+01
5.500095e+01	-1.320008e+01
5.531863e+01	-1.324796e+01
5.563815e+01	-1.329507e+01
5.595951e+01	-1.334309e+01
5.628273e+01	-1.339117e+01
5.660782e+01	-1.343846e+01
5.693479e+01	-1.348705e+01
5.726364e+01	-1.353487e+01
5.759439e+01	-1.358114e+01
5.792705e+01	-1.362949e+01
5.826164e+01	-1.367819e+01
5.859815e+01	-1.372590e+01
5.893662e+01	-1.377347e+01
5.927703e+01	-1.382160e+01
5.961941e+01	-1.386959e+01
5.996377e+01	-1.391773e+01
6.031012e+01	-1.396532e+01
6.065847e+01	-1.401342e+01
6.100883e+01	-1.406130e+01
6.136121e+01	-1.410924e+01
6.171563e+01	-1.415760e+01
6.207210e+01	-1.420594e+01
6.243063e+01	-1.425358e+01
6.279122e+01	-1.430268e+01
6.315390e+01	-1.435027e+01
6.351868e+01	-1.439831e+01
6.388556e+01	-1.444655e+01
6.425456e+01	-1.449510e+01
6.462569e+01	-1.454347e+01
6.499897e+01	-1.459105e+01
6.537440e+01	-1.463980e+01
6.575200e+01	-1.468786e+01
6.613178e+01	-1.473680e+01
6.651375e+01	-1.478490e+01
6.689793e+01	-1.483286e+01
6.728433e+01	-1.488169e+01
6.767297e+01	-1.492969e+01
6.806384e+01	-1.497835e+01
6.845698e+01	-1.502725e+01
6.885238e+01	-1.507502e+01
6.925007e+01	-1.512459e+01
6.965005e+01	-1.517218e+01
7.005235e+01	-1.522129e+01
7.045697e+01	-1.526903e+01
7.086393e+01	-1.531762e+01
7.127323e+01	-1.536610e+01
7.168490e+01	-1.541461e+01
7.209895e+01	-1.546355e+01
7.251539e+01	-1.551276e+01
7.293424e+01	-1.556101e+01
7.335551e+01	-1.561013e+01
7.377920e+01	-1.565809e+01
7.420535e+01	-1.570639e+01
7.463396e+01	-1.575609e+01
7.506504e+01	-1.580383e+01
7.549861e+01	-1.585247e+01
7.593469e+01	-1.590147e+01
7.637328e+01	-1.595117e+01
7.681441e+01	-1.599986e+01
7.725809e+01	-1.604806e+01
7.770433e+01	-1.609693e+01
7.815315e+01	-1.614659e+01
7.860456e+01	-1.619357e+01
7.905857e+01	-1.624262e+01
7.951521e+01	-1.629227e+01
7.997449e+01	-1.634074e+01
8.043642e+01	-1.639012e+01
8.090102e+01	-1.643894e+01
8.136830e+01	-1.648724e+01
8.183828e+01	-1.653719e+01
8.231097e+01	-1.658530e+01
8.278640e+01	-1.663441e+01
8.326457e+01	-1.668415e+01
8.374550e+01	-1.673178e+01
8.422921e+01	-1.678053e+01
8.471572e+01	-1.683037e+01
8.520503e+01	-1.687833e+01
8.569717e+01	-1.692904e+01
8.619215e+01	-1.697689e+01
8.669000e+01	-1.702655e+01
8.719071e+01	-1.707528e+01
8.769432e+01	-1.712437e+01
8.820084e+01	-1.717390e+01
8.871029e+01	-1.722234e+01
8.922267e+01	-1.727244e+01
8.973802e+01	-1.732069e+01
9.025634e+01	-1.736911e+01
9.077766e+01	-1.741859e+01
9.130199e+01	-1.746845e+01
9.182935e+01	-1.751704e+01
9.235975e+01	-1.756674e+01
9.289321e+01	-1.761456e+01
9.342976e+01	-1.766394e+01
9.396941e+01	-1.771363e+01
9.451217e+01	-1.776248e+01
9.505807e+01	-1.781209e+01
9.560712e+01	-1.786251e+01
9.615934e+01	-1.791106e+01
9.671476e+01	-1.796027e+01
9.727338e+01	-1.800927e+01
9.783522e+01	-1.805945e+01
9.840032e+01	-1.810848e+01
9.896867e+01	-1.815837e+01
9.954031e+01	-1.820523e+01
1.001153e+02	-1.825670e+01
1.006935e+02	-1.830574e+01
1.012751e+02	-1.835386e+01
1.018601e+02	-1.840272e+01
1.024484e+02	-1.845356e+01
1.030402e+02	-1.850232e+01
1.036353e+02	-1.855176e+01
1.042339e+02	-1.860087e+01
1.048360e+02	-1.864770e+01
1.054415e+02	-1.870002e+01
1.060505e+02	-1.874889e+01
1.066631e+02	-1.879851e+01
1.072791e+02	-1.884751e+01
1.078988e+02	-1.889726e+01
1.085220e+02	-1.894723e+01
1.091488e+02	-1.899528e+01
1.097793e+02	-1.904524e+01
1.104133e+02	-1.909426e+01
1.110511e+02	-1.914395e+01
1.116925e+02	-1.919332e+01
1.123376e+02	-1.924237e+01
1.129865e+02	-1.929177e+01
1.136391e+02	-1.934161e+01
1.142955e+02	-1.939106e+01
1.149556e+02	-1.944034e+01
1.156196e+02	-1.948881e+01
1.162874e+02	-1.953891e+01
1.169591e+02	-1.959013e+01
1.176347e+02	-1.963673e+01
1.183141e+02	-1.968896e+01
1.189975e+02	-1.973857e+01
1.196848e+02	-1.978717e+01
1.203761e+02	-1.983639e+01
1.210714e+02	-1.988623e+01
1.217707e+02	-1.993448e+01
1.224740e+02	-1.998502e+01
1.231814e+02	-2.003389e+01
1.238929e+02	-2.008368e+01
1.246085e+02	-2.013327e+01
1.253283e+02	-2.018313e+01
1.260522e+02	-2.023144e+01
1.267802e+02	-2.028125e+01
1.275125e+02	-2.033288e+01
1.282490e+02	-2.038090e+01
1.289898e+02	-2.042999e+01
1.297348e+02	-2.048235e+01
1.304842e+02	-2.053056e+01
1.312378e+02	-2.058154e+01
1.319959e+02	-2.063090e+01
1.327583e+02	-2.068043e+01
1.335251e+02	-2.072988e+01
1.342963e+02	-2.077827e+01
1.350720e+02	-2.082556e+01
1.358522e+02	-2.087611e+01
1.366368e+02	-2.092718e+01
1.374260e+02	-2.097732e+01
1.382198e+02	-2.102749e+01
1.390182e+02	-2.107665e+01
1.398211e+02	-2.112641e+01
1.406287e+02	-2.117588e+01
1.414410e+02	-2.122484e+01
1.422579e+02	-2.127486e+01
1.430796e+02	-2.132519e+01
1.439060e+02	-2.137380e+01
1.447372e+02	-2.142277e+01
1.455732e+02	-2.147184e+01
1.464141e+02	-2.152315e+01
1.472597e+02	-2.157130e+01
1.481103e+02	-2.162547e+01
1.489658e+02	-2.167431e+01
1.498262e+02	-2.172280e+01
1.506916e+02	-2.177152e+01
1.515620e+02	-2.182244e+01
1.524374e+02	-2.187067e+01
1.533179e+02	-2.192067e+01
1.542034e+02	-2.197081e+01
1.550941e+02	-2.202122e+01
1.559899e+02	-2.207113e+01
1.568909e+02	-2.211844e+01
1.577971e+02	-2.217110e+01
1.587085e+02	-2.222013e+01
1.596252e+02	-2.226875e+01
1.605472e+02	-2.231851e+01
1.614745e+02	-2.236781e+01
1.624072e+02	-2.241736e+01
1.633453e+02	-2.246983e+01
1.642887e+02	-2.251762e+01
1.652377e+02	-2.256809e+01
1.661921e+02	-2.261674e+01
1.671520e+02	-2.266759e+01
1.681175e+02	-2.271652e+01
1.690885e+02	-2.276679e+01
1.700651e+02	-2.281642e+01
1.710474e+02	-2.286865e+01
1.720354e+02	-2.291635e+01
1.730291e+02	-2.296762e+01
1.740285e+02	-2.301607e+01
1.750337e+02	-2.307049e+01
1.760446e+02	-2.311448e+01
1.770615e+02	-2.316367e+01
1.780842e+02	-2.321567e+01
1.791128e+02	-2.326472e+01
1.801473e+02	-2.331455e+01
1.811878e+02	-2.336392e+01
1.822344e+02	-2.341256e+01
1.832870e+02	-2.346595e+01
1.843456e+02	-2.351165e+01
1.854104e+02	-2.356552e+01
1.864813e+02	-2.361334e+01
1.875584e+02	-2.366200e+01
1.886418e+02	-2.371277e+01
1.897313e+02	-2.376449e+01
1.908272e+02	-2.381421e+01
1.919294e+02	-2.386253e+01
1.930380e+02	-2.391204e+01
1.941530e+02	-2.396253e+01
1.952744e+02	-2.401255e+01
1.964023e+02	-2.406160e+01
1.975367e+02	-2.411038e+01
1.986777e+02	-2.416199e+01
1.998252e+02	-2.421188e+01
2.009794e+02	-2.426069e+01
2.021403e+02	-2.431193e+01
2.033078e+02	-2.435985e+01
2.044821e+02	-2.441383e+01
2.056632e+02	-2.446167e+01
2.068511e+02	-2.451066e+01
2.080459e+02	-2.455848e+01
2.092475e+02	-2.460991e+01
2.104561e+02	-2.466072e+01
2.116717e+02	-2.470964e+01
2.128943e+02	-2.475993e+01
2.141240e+02	-2.481230e+01
2.153608e+02	-2.485834e+01
2.166047e+02	-2.491048e+01
2.178558e+02	-2.496052e+01
2.191141e+02	-2.500781e+01
2.203797e+02	-2.506153e+01
2.216526e+02	-2.510876e+01
2.229329e+02	-2.515947e+01
2.242205e+02	-2.520812e+01
2.255156e+02	-2.525658e+01
2.268182e+02	-2.530799e+01
2.281283e+02	-2.536080e+01
2.294459e+02	-2.540656e+01
2.307712e+02	-2.546018e+01
2.321041e+02	-2.551007e+01
2.334447e+02	-2.555677e+01
2.347931e+02	-2.561137e+01
2.361493e+02	-2.565911e+01
2.375133e+02	-2.570882e+01
2.388851e+02	-2.575846e+01
2.402649e+02	-2.580999e+01
2.416527e+02	-2.585761e+01
2.430484e+02	-2.591094e+01
2.444523e+02	-2.595729e+01
2.458642e+02	-2.600980e+01
2.472843e+02	-2.605986e+01
2.487126e+02	-2.610803e+01
2.501492e+02	-2.616148e+01
2.515940e+02	-2.620848e+01
2.530472e+02	-2.625599e+01
2.545088e+02	-2.630597e+01
2.559789e+02	-2.635961e+01
2.574574e+02	-2.640632e+01
2.589444e+02	-2.646006e+01
2.604401e+02	-2.650982e+01
2.619444e+02	-2.655779e+01
2.634574e+02	-2.660530e+01
2.649791e+02	-2.665695e+01
2.665096e+02	-2.670682e+01
2.680489e+02	-2.675927e+01
2.695972e+02	-2.680841e+01
2.711544e+02	-2.685448e+01
2.727205e+02	-2.691078e+01
2.742958e+02	-2.695630e+01
2.758801e+02	-2.700960e+01
2.774736e+02	-2.705826e+01
2.790762e+02	-2.710920e+01
2.806882e+02	-2.716005e+01
2.823094e+02	-2.720231e+01
2.839400e+02	-2.725731e+01
2.855800e+02	-2.730614e+01
2.872295e+02	-2.735675e+01
2.888886e+02	-2.740729e+01
2.905572e+02	-2.745896e+01
2.922354e+02	-2.750737e+01
2.939234e+02	-2.755498e+01
2.956211e+02	-2.760742e+01
2.973286e+02	-2.766266e+01
2.990459e+02	-2.771046e+01
3.007732e+02	-2.775862e+01
3.025104e+02	-2.780861e+01
3.042577e+02	-2.785702e+01
3.060151e+02	-2.790499e+01
3.077826e+02	-2.795900e+01
3.095604e+02	-2.800945e+01
3.113484e+02	-2.806076e+01
3.131467e+02	-2.810479e+01
3.149554e+02	-2.815866e+01
3.167746e+02	-2.820909e+01
3.186043e+02	-2.826008e+01
3.204445e+02	-2.830944e+01
3.222954e+02	-2.835355e+01
3.241570e+02	-2.840907e+01
3.260293e+02	-2.845632e+01
3.279124e+02	-2.850846e+01
3.298064e+02	-2.855585e+01
3.317114e+02	-2.861209e+01
3.336273e+02	-2.865471e+01
3.355544e+02	-2.871126e+01
3.374925e+02	-2.876045e+01
3.394418e+02	-2.880782e+01
3.414024e+02	-2.885912e+01
3.433744e+02	-2.890762e+01
3.453577e+02	-2.895960e+01
3.473525e+02	-2.901178e+01
3.493588e+02	-2.905930e+01
3.513766e+02	-2.911077e+01
3.534062e+02	-2.915343e+01
3.554474e+02	-2.920957e+01
3.575005e+02	-2.925848e+01
3.595654e+02	-2.931048e+01
3.616422e+02	-2.936109e+01
3.637311e+02	-2.940557e+01
3.658320e+02	-2.945868e+01
3.679450e+02	-2.951050e+01
3.700702e+02	-2.956115e+01
3.722077e+02	-2.961005e+01
3.743576e+02	-2.965490e+01
3.765199e+02	-2.971171e+01
3.786946e+02	-2.976463e+01
3.808820e+02	-2.981287e+01
3.830819e+02	-2.986309e+01
3.852946e+02	-2.990908e+01
3.875200e+02	-2.996081e+01
3.897583e+02	-3.000818e+01
3.920096e+02	-3.006379e+01
3.942738e+02	-3.011027e+01
3.965511e+02	-3.015936e+01
3.988416e+02	-3.020892e+01
4.011452e+02	-3.025976e+01
4.034622e+02	-3.031155e+01
4.057926e+02	-3.035778e+01
4.081365e+02	-3.041597e+01
4.104938e+02	-3.046724e+01
4.128648e+02	-3.050718e+01
4.152495e+02	-3.056455e+01
4.176480e+02	-3.061172e+01
4.200603e+02	-3.066245e+01
4.224866e+02	-3.071377e+01
4.249268e+02	-3.076562e+01
4.273812e+02	-3.081193e+01
4.298497e+02	-3.086342e+01
4.323325e+02	-3.091473e+01
4.348297e+02	-3.095947e+01
4.373412e+02	-3.101732e+01
4.398673e+02	-3.106185e+01
4.424079e+02	-3.110924e+01
4.449633e+02	-3.116657e+01
4.475334e+02	-3.121170e+01
4.501183e+02	-3.126573e+01
4.527182e+02	-3.131095e+01
4.553330e+02	-3.136481e+01
4.579630e+02	-3.141115e+01
4.606082e+02	-3.146645e+01
4.632687e+02	-3.150863e+01
4.659445e+02	-3.156035e+01
4.686358e+02	-3.161408e+01
4.713426e+02	-3.167183e+01
4.740650e+02	-3.171286e+01
4.768032e+02	-3.177370e+01
4.795572e+02	-3.181531e+01
4.823271e+02	-3.186342e+01
4.851130e+02	-3.192022e+01
4.879150e+02	-3.196395e+01
4.907332e+02	-3.202245e+01
4.935676e+02	-3.206910e+01
4.964185e+02	-3.210999e+01
4.992858e+02	-3.216203e+01
5.021696e+02	-3.221598e+01
5.050701e+02	-3.226381e+01
5.079874e+02	-3.232107e+01
5.109215e+02	-3.236970e+01
5.138726e+02	-3.241751e+01
5.168407e+02	-3.245885e+01
5.198259e+02	-3.251996e+01
5.228284e+02	-3.257370e+01
5.258482e+02	-3.261930e+01
5.288855e+02	-3.266301e+01
5.319403e+02	-3.271917e+01
5.350128e+02	-3.276734e+01
5.381030e+02	-3.281842e+01
5.412111e+02	-3.286909e+01
5.443371e+02	-3.292148e+01
5.474812e+02	-3.297051e+01
5.506434e+02	-3.302324e+01
5.538239e+02	-3.306672e+01
5.570228e+02	-3.311862e+01
5.602401e+02	-3.316592e+01
5.634760e+02	-3.322133e+01
5.667306e+02	-3.326194e+01
5.700040e+02	-3.332042e+01
5.732964e+02	-3.336933e+01
5.766077e+02	-3.342091e+01
5.799382e+02	-3.347138e+01
5.832879e+02	-3.352053e+01
5.866569e+02	-3.357802e+01
5.900454e+02	-3.362985e+01
5.934535e+02	-3.367620e+01
5.968813e+02	-3.372741e+01
6.003288e+02	-3.377350e+01
6.037963e+02	-3.382525e+01
6.072838e+02	-3.387218e+01
6.107914e+02	-3.391949e+01
6.143194e+02	-3.397631e+01
6.178676e+02	-3.402491e+01
6.214364e+02	-3.407584e+01
6.250258e+02	-3.412371e+01
6.286359e+02	-3.417396e+01
6.322669e+02	-3.422417e+01
6.359189e+02	-3.427880e+01
6.395919e+02	-3.432660e+01
6.432862e+02	-3.437669e+01
6.470017e+02	-3.442783e+01
6.507388e+02	-3.447621e+01
6.544974e+02	-3.453407e+01
6.582778e+02	-3.458409e+01
6.620800e+02	-3.463629e+01
6.659041e+02	-3.468928e+01
6.697504e+02	-3.473644e+01
6.736188e+02	-3.478209e+01
6.775096e+02	-3.482665e+01
6.814229e+02	-3.488446e+01
6.853587e+02	-3.493428e+01
6.893173e+02	-3.497761e+01
6.932988e+02	-3.502738e+01
6.973033e+02	-3.508594e+01
7.013309e+02	-3.513014e+01
