Frequency(Hz)	Magnitude(dB)
1.000000e+01	-1.634892e-05
1.005776e+01	-1.653832e-05
1.011585e+01	-1.672992e-05
1.017428e+01	-1.692375e-05
1.023305e+01	-1.711981e-05
1.029215e+01	-1.731815e-05
1.035160e+01	-1.751878e-05
1.041139e+01	-1.772174e-05
1.047153e+01	-1.792705e-05
1.053201e+01	-1.813474e-05
1.059284e+01	-1.834484e-05
1.065403e+01	-1.855737e-05
1.071556e+01	-1.877236e-05
1.077746e+01	-1.898984e-05
1.083971e+01	-1.920985e-05
1.090232e+01	-1.943240e-05
1.096529e+01	-1.965753e-05
1.102862e+01	-1.988526e-05
1.109232e+01	-2.011564e-05
1.115639e+01	-2.034868e-05
1.122083e+01	-2.058443e-05
1.128564e+01	-2.082290e-05
1.135083e+01	-2.106414e-05
1.141639e+01	-2.130818e-05
1.148233e+01	-2.155504e-05
1.154865e+01	-2.180476e-05
1.161536e+01	-2.205737e-05
1.168245e+01	-2.231291e-05
1.174992e+01	-2.257141e-05
1.181779e+01	-2.283291e-05
1.188605e+01	-2.309743e-05
1.195470e+01	-2.336502e-05
1.202375e+01	-2.363571e-05
1.209320e+01	-2.390954e-05
1.216305e+01	-2.418654e-05
1.223330e+01	-2.446674e-05
1.230396e+01	-2.475020e-05
1.237503e+01	-2.503693e-05
1.244651e+01	-2.532699e-05
1.251840e+01	-2.562041e-05
1.259070e+01	-2.591723e-05
1.266343e+01	-2.621749e-05
1.273657e+01	-2.652122e-05
1.281014e+01	-2.682848e-05
1.288413e+01	-2.713929e-05
1.295855e+01	-2.745371e-05
1.303339e+01	-2.777177e-05
1.310867e+01	-2.809351e-05
1.318439e+01	-2.841898e-05
1.326054e+01	-2.874822e-05
1.333713e+01	-2.908127e-05
1.341417e+01	-2.941819e-05
1.349165e+01	-2.975900e-05
1.356958e+01	-3.010377e-05
1.364795e+01	-3.045253e-05
1.372678e+01	-3.080533e-05
1.380607e+01	-3.116222e-05
1.388581e+01	-3.152324e-05
1.396602e+01	-3.188844e-05
1.404668e+01	-3.225788e-05
1.412782e+01	-3.263159e-05
1.420942e+01	-3.300964e-05
1.429149e+01	-3.339206e-05
1.437404e+01	-3.377892e-05
1.445706e+01	-3.417025e-05
1.454057e+01	-3.456612e-05
1.462455e+01	-3.496658e-05
1.470902e+01	-3.537168e-05
1.479398e+01	-3.578146e-05
1.487943e+01	-3.619600e-05
1.496537e+01	-3.661534e-05
1.505181e+01	-3.703954e-05
1.513875e+01	-3.746865e-05
1.522619e+01	-3.790273e-05
1.531414e+01	-3.834184e-05
1.540259e+01	-3.878604e-05
1.549156e+01	-3.923539e-05
1.558103e+01	-3.968994e-05
1.567103e+01	-4.014976e-05
1.576155e+01	-4.061490e-05
1.585258e+01	-4.108543e-05
1.594415e+01	-4.156142e-05
1.603624e+01	-4.204292e-05
1.612886e+01	-4.252999e-05
1.622202e+01	-4.302271e-05
1.631572e+01	-4.352114e-05
1.640996e+01	-4.402534e-05
1.650474e+01	-4.453538e-05
1.660008e+01	-4.505134e-05
1.669596e+01	-4.557327e-05
1.679239e+01	-4.610124e-05
1.688938e+01	-4.663534e-05
1.698694e+01	-4.717562e-05
1.708505e+01	-4.772216e-05
1.718373e+01	-4.827503e-05
1.728299e+01	-4.883430e-05
1.738281e+01	-4.940006e-05
1.748322e+01	-4.997237e-05
1.758420e+01	-5.055131e-05
1.768576e+01	-5.113696e-05
1.778792e+01	-5.172939e-05
1.789066e+01	-5.232869e-05
1.799399e+01	-5.293492e-05
1.809793e+01	-5.354819e-05
1.820246e+01	-5.416855e-05
1.830760e+01	-5.479611e-05
1.841334e+01	-5.543093e-05
1.851969e+01	-5.607311e-05
1.862666e+01	-5.672273e-05
1.873425e+01	-5.737987e-05
1.884246e+01	-5.804463e-05
1.895129e+01	-5.871709e-05
1.906075e+01	-5.939734e-05
1.917085e+01	-6.008547e-05
1.928158e+01	-6.078157e-05
1.939295e+01	-6.148574e-05
1.950496e+01	-6.219806e-05
1.961762e+01	-6.291864e-05
1.973093e+01	-6.364756e-05
1.984490e+01	-6.438493e-05
1.995952e+01	-6.513084e-05
2.007480e+01	-6.588540e-05
2.019076e+01	-6.664869e-05
2.030738e+01	-6.742083e-05
2.042467e+01	-6.820191e-05
2.054264e+01	-6.899205e-05
2.066130e+01	-6.979133e-05
2.078064e+01	-7.059988e-05
2.090066e+01	-7.141779e-05
2.102139e+01	-7.224518e-05
2.114280e+01	-7.308215e-05
2.126492e+01	-7.392882e-05
2.138775e+01	-7.478530e-05
2.151128e+01	-7.565170e-05
2.163553e+01	-7.652814e-05
2.176050e+01	-7.741473e-05
2.188619e+01	-7.831159e-05
2.201260e+01	-7.921885e-05
2.213974e+01	-8.013661e-05
2.226762e+01	-8.106501e-05
2.239624e+01	-8.200416e-05
2.252560e+01	-8.295419e-05
2.265571e+01	-8.391523e-05
2.278656e+01	-8.488740e-05
2.291818e+01	-8.587084e-05
2.305055e+01	-8.686566e-05
2.318369e+01	-8.787202e-05
2.331760e+01	-8.889003e-05
2.345228e+01	-8.991983e-05
2.358774e+01	-9.096157e-05
2.372398e+01	-9.201537e-05
2.386101e+01	-9.308139e-05
2.399883e+01	-9.415975e-05
2.413745e+01	-9.525060e-05
2.427686e+01	-9.635410e-05
2.441709e+01	-9.747037e-05
2.455812e+01	-9.859958e-05
2.469997e+01	-9.974187e-05
2.484263e+01	-1.008974e-04
2.498612e+01	-1.020663e-04
2.513044e+01	-1.032488e-04
2.527559e+01	-1.044449e-04
2.542158e+01	-1.056549e-04
2.556842e+01	-1.068789e-04
2.571610e+01	-1.081172e-04
2.586463e+01	-1.093697e-04
2.601403e+01	-1.106368e-04
2.616428e+01	-1.119185e-04
2.631541e+01	-1.132151e-04
2.646740e+01	-1.145267e-04
2.662028e+01	-1.158535e-04
2.677404e+01	-1.171957e-04
2.692868e+01	-1.185534e-04
2.708422e+01	-1.199269e-04
2.724066e+01	-1.213162e-04
2.739800e+01	-1.227217e-04
2.755625e+01	-1.241435e-04
2.771541e+01	-1.255817e-04
2.787550e+01	-1.270365e-04
2.803650e+01	-1.285083e-04
2.819844e+01	-1.299971e-04
2.836131e+01	-1.315031e-04
2.852513e+01	-1.330266e-04
2.868989e+01	-1.345677e-04
2.885560e+01	-1.361267e-04
2.902227e+01	-1.377037e-04
2.918990e+01	-1.392990e-04
2.935850e+01	-1.409128e-04
2.952807e+01	-1.425453e-04
2.969863e+01	-1.441967e-04
2.987016e+01	-1.458672e-04
3.004269e+01	-1.475571e-04
3.021622e+01	-1.492666e-04
3.039075e+01	-1.509958e-04
3.056628e+01	-1.527451e-04
3.074283e+01	-1.545147e-04
3.092040e+01	-1.563048e-04
3.109900e+01	-1.581156e-04
3.127862e+01	-1.599473e-04
3.145929e+01	-1.618003e-04
3.164099e+01	-1.636748e-04
3.182375e+01	-1.655710e-04
3.200756e+01	-1.674891e-04
3.219244e+01	-1.694295e-04
3.237838e+01	-1.713924e-04
3.256540e+01	-1.733780e-04
3.275349e+01	-1.753865e-04
3.294268e+01	-1.774184e-04
3.313295e+01	-1.794738e-04
3.332433e+01	-1.815530e-04
3.351681e+01	-1.836563e-04
3.371040e+01	-1.857840e-04
3.390511e+01	-1.879363e-04
3.410094e+01	-1.901135e-04
3.429791e+01	-1.923160e-04
3.449601e+01	-1.945440e-04
3.469526e+01	-1.967978e-04
3.489566e+01	-1.990777e-04
3.509721e+01	-2.013840e-04
3.529993e+01	-2.037170e-04
3.550382e+01	-2.060771e-04
3.570889e+01	-2.084645e-04
3.591515e+01	-2.108796e-04
3.612259e+01	-2.133226e-04
3.633123e+01	-2.157939e-04
3.654108e+01	-2.182939e-04
3.675214e+01	-2.208229e-04
3.696442e+01	-2.233811e-04
3.717792e+01	-2.259689e-04
3.739266e+01	-2.285868e-04
3.760864e+01	-2.312350e-04
3.782587e+01	-2.339138e-04
3.804435e+01	-2.366237e-04
3.826409e+01	-2.393650e-04
3.848510e+01	-2.421380e-04
3.870739e+01	-2.449432e-04
3.893096e+01	-2.477808e-04
3.915583e+01	-2.506513e-04
3.938199e+01	-2.535551e-04
3.960946e+01	-2.564925e-04
3.983824e+01	-2.594640e-04
4.006834e+01	-2.624699e-04
4.029978e+01	-2.655106e-04
4.053255e+01	-2.685865e-04
4.076666e+01	-2.716980e-04
4.100213e+01	-2.748456e-04
4.123896e+01	-2.780297e-04
4.147715e+01	-2.812506e-04
4.171672e+01	-2.845089e-04
4.195767e+01	-2.878049e-04
4.220002e+01	-2.911391e-04
4.244377e+01	-2.945119e-04
4.268892e+01	-2.979238e-04
4.293549e+01	-3.013752e-04
4.318348e+01	-3.048666e-04
4.343291e+01	-3.083984e-04
4.368377e+01	-3.119712e-04
4.393609e+01	-3.155853e-04
4.418986e+01	-3.192413e-04
4.444510e+01	-3.229397e-04
4.470182e+01	-3.266809e-04
4.496001e+01	-3.304654e-04
4.521970e+01	-3.342938e-04
4.548089e+01	-3.381666e-04
4.574358e+01	-3.420842e-04
4.600779e+01	-3.460471e-04
4.627353e+01	-3.500560e-04
4.654081e+01	-3.541114e-04
4.680963e+01	-3.582137e-04
4.708000e+01	-3.623635e-04
4.735193e+01	-3.665614e-04
4.762543e+01	-3.708079e-04
4.790051e+01	-3.751037e-04
4.817719e+01	-3.794492e-04
4.845545e+01	-3.838450e-04
4.873533e+01	-3.882917e-04
4.901682e+01	-3.927900e-04
4.929994e+01	-3.973404e-04
4.958470e+01	-4.019435e-04
4.987110e+01	-4.065999e-04
5.015915e+01	-4.113102e-04
5.044887e+01	-4.160751e-04
5.074026e+01	-4.208952e-04
5.103333e+01	-4.257712e-04
5.132810e+01	-4.307036e-04
5.162457e+01	-4.356932e-04
5.192275e+01	-4.407406e-04
5.222265e+01	-4.458464e-04
5.252429e+01	-4.510114e-04
5.282767e+01	-4.562362e-04
5.313280e+01	-4.615216e-04
5.343969e+01	-4.668681e-04
5.374836e+01	-4.722766e-04
5.405880e+01	-4.777478e-04
5.437105e+01	-4.832823e-04
5.468509e+01	-4.888810e-04
5.500095e+01	-4.945445e-04
5.531863e+01	-5.002736e-04
5.563815e+01	-5.060690e-04
5.595951e+01	-5.119316e-04
5.628273e+01	-5.178621e-04
5.660782e+01	-5.238614e-04
5.693479e+01	-5.299301e-04
5.726364e+01	-5.360691e-04
5.759439e+01	-5.422792e-04
5.792705e+01	-5.485613e-04
5.826164e+01	-5.549161e-04
5.859815e+01	-5.613445e-04
5.893662e+01	-5.678474e-04
5.927703e+01	-5.744257e-04
5.961941e+01	-5.810801e-04
5.996377e+01	-5.878116e-04
6.031012e+01	-5.946211e-04
6.065847e+01	-6.015095e-04
6.100883e+01	-6.084776e-04
6.136121e+01	-6.155265e-04
6.171563e+01	-6.226571e-04
6.207210e+01	-6.298702e-04
6.243063e+01	-6.371669e-04
6.279122e+01	-6.445481e-04
6.315390e+01	-6.520148e-04
6.351868e+01	-6.595680e-04
6.388556e+01	-6.672087e-04
6.425456e+01	-6.749379e-04
6.462569e+01	-6.827566e-04
6.499897e+01	-6.906659e-04
6.537440e+01	-6.986668e-04
6.575200e+01	-7.067604e-04
6.613178e+01	-7.149477e-04
6.651375e+01	-7.232299e-04
6.689793e+01	-7.316080e-04
6.728433e+01	-7.400832e-04
6.767297e+01	-7.486565e-04
6.806384e+01	-7.573291e-04
6.845698e+01	-7.661022e-04
6.885238e+01	-7.749769e-04
6.925007e+01	-7.839545e-04
6.965005e+01	-7.930360e-04
7.005235e+01	-8.022226e-04
7.045697e+01	-8.115157e-04
7.086393e+01	-8.209165e-04
7.127323e+01	-8.304261e-04
7.168490e+01	-8.400459e-04
7.209895e+01	-8.497771e-04
7.251539e+01	-8.596210e-04
7.293424e+01	-8.695790e-04
7.335551e+01	-8.796523e-04
7.377920e+01	-8.898422e-04
7.420535e+01	-9.001502e-04
7.463396e+01	-9.105776e-04
7.506504e+01	-9.211258e-04
7.549861e+01	-9.317962e-04
7.593469e+01	-9.425901e-04
7.637328e+01	-9.535091e-04
7.681441e+01	-9.645545e-04
7.725809e+01	-9.757279e-04
7.770433e+01	-9.870307e-04
7.815315e+01	-9.984644e-04
7.860456e+01	-1.010031e-03
7.905857e+01	-1.021731e-03
7.951521e+01	-1.033566e-03
7.997449e+01	-1.045539e-03
8.043642e+01	-1.057650e-03
8.090102e+01	-1.069902e-03
8.136830e+01	-1.082296e-03
8.183828e+01	-1.094833e-03
8.231097e+01	-1.107515e-03
8.278640e+01	-1.120344e-03
8.326457e+01	-1.133322e-03
8.374550e+01	-1.146450e-03
8.422921e+01	-1.159730e-03
8.471572e+01	-1.173164e-03
8.520503e+01	-1.186754e-03
8.569717e+01	-1.200501e-03
8.619215e+01	-1.214407e-03
8.669000e+01	-1.228474e-03
8.719071e+01	-1.242704e-03
8.769432e+01	-1.257099e-03
8.820084e+01	-1.271661e-03
8.871029e+01	-1.286391e-03
8.922267e+01	-1.301292e-03
8.973802e+01	-1.316366e-03
9.025634e+01	-1.331614e-03
9.077766e+01	-1.347039e-03
9.130199e+01	-1.362642e-03
9.182935e+01	-1.378426e-03
9.235975e+01	-1.394393e-03
9.289321e+01	-1.410545e-03
9.342976e+01	-1.426884e-03
9.396941e+01	-1.443412e-03
9.451217e+01	-1.460131e-03
9.505807e+01	-1.477044e-03
9.560712e+01	-1.494153e-03
9.615934e+01	-1.511461e-03
9.671476e+01	-1.528968e-03
9.727338e+01	-1.546679e-03
9.783522e+01	-1.564594e-03
9.840032e+01	-1.582717e-03
9.896867e+01	-1.601050e-03
9.954031e+01	-1.619595e-03
1.001153e+02	-1.638355e-03
1.006935e+02	-1.657332e-03
1.012751e+02	-1.676529e-03
1.018601e+02	-1.695948e-03
1.024484e+02	-1.715592e-03
1.030402e+02	-1.735464e-03
1.036353e+02	-1.755566e-03
1.042339e+02	-1.775900e-03
1.048360e+02	-1.796470e-03
1.054415e+02	-1.817278e-03
1.060505e+02	-1.838328e-03
1.066631e+02	-1.859621e-03
1.072791e+02	-1.881160e-03
1.078988e+02	-1.902949e-03
1.085220e+02	-1.924990e-03
1.091488e+02	-1.947287e-03
1.097793e+02	-1.969842e-03
1.104133e+02	-1.992657e-03
1.110511e+02	-2.015738e-03
1.116925e+02	-2.039085e-03
1.123376e+02	-2.062703e-03
1.129865e+02	-2.086594e-03
1.136391e+02	-2.110762e-03
1.142955e+02	-2.135209e-03
1.149556e+02	-2.159940e-03
1.156196e+02	-2.184957e-03
1.162874e+02	-2.210264e-03
1.169591e+02	-2.235864e-03
1.176347e+02	-2.261761e-03
1.183141e+02	-2.287957e-03
1.189975e+02	-2.314456e-03
1.196848e+02	-2.341263e-03
1.203761e+02	-2.368379e-03
1.210714e+02	-2.395810e-03
1.217707e+02	-2.423558e-03
1.224740e+02	-2.451628e-03
1.231814e+02	-2.480023e-03
1.238929e+02	-2.508746e-03
1.246085e+02	-2.537802e-03
1.253283e+02	-2.567195e-03
1.260522e+02	-2.596927e-03
1.267802e+02	-2.627004e-03
1.275125e+02	-2.657430e-03
1.282490e+02	-2.688207e-03
1.289898e+02	-2.719341e-03
1.297348e+02	-2.750835e-03
1.304842e+02	-2.782694e-03
1.312378e+02	-2.814922e-03
1.319959e+02	-2.847523e-03
1.327583e+02	-2.880501e-03
1.335251e+02	-2.913861e-03
1.342963e+02	-2.947608e-03
1.350720e+02	-2.981745e-03
1.358522e+02	-3.016277e-03
1.366368e+02	-3.051209e-03
1.374260e+02	-3.086546e-03
1.382198e+02	-3.122291e-03
1.390182e+02	-3.158451e-03
1.398211e+02	-3.195029e-03
1.406287e+02	-3.232030e-03
1.414410e+02	-3.269460e-03
1.422579e+02	-3.307323e-03
1.430796e+02	-3.345624e-03
1.439060e+02	-3.384369e-03
1.447372e+02	-3.423562e-03
1.455732e+02	-3.463209e-03
1.464141e+02	-3.503315e-03
1.472597e+02	-3.543886e-03
1.481103e+02	-3.584926e-03
1.489658e+02	-3.626440e-03
1.498262e+02	-3.668436e-03
1.506916e+02	-3.710918e-03
1.515620e+02	-3.753891e-03
1.524374e+02	-3.797362e-03
1.533179e+02	-3.841336e-03
1.542034e+02	-3.885819e-03
1.550941e+02	-3.930816e-03
1.559899e+02	-3.976335e-03
1.568909e+02	-4.022381e-03
1.577971e+02	-4.068959e-03
1.587085e+02	-4.116077e-03
1.596252e+02	-4.163739e-03
1.605472e+02	-4.211954e-03
1.614745e+02	-4.260727e-03
1.624072e+02	-4.310064e-03
1.633453e+02	-4.359972e-03
1.642887e+02	-4.410458e-03
1.652377e+02	-4.461528e-03
1.661921e+02	-4.513189e-03
1.671520e+02	-4.565448e-03
1.681175e+02	-4.618311e-03
1.690885e+02	-4.671787e-03
1.700651e+02	-4.725881e-03
1.710474e+02	-4.780601e-03
1.720354e+02	-4.835955e-03
1.730291e+02	-4.891949e-03
1.740285e+02	-4.948591e-03
1.750337e+02	-5.005889e-03
1.760446e+02	-5.063850e-03
1.770615e+02	-5.122481e-03
1.780842e+02	-5.181791e-03
1.791128e+02	-5.241787e-03
1.801473e+02	-5.302477e-03
1.811878e+02	-5.363870e-03
1.822344e+02	-5.425973e-03
1.832870e+02	-5.488794e-03
1.843456e+02	-5.552342e-03
1.854104e+02	-5.616626e-03
1.864813e+02	-5.681653e-03
1.875584e+02	-5.747433e-03
1.886418e+02	-5.813974e-03
1.897313e+02	-5.881285e-03
1.908272e+02	-5.949374e-03
1.919294e+02	-6.018251e-03
1.930380e+02	-6.087925e-03
1.941530e+02	-6.158405e-03
1.952744e+02	-6.229701e-03
1.964023e+02	-6.301821e-03
1.975367e+02	-6.374775e-03
1.986777e+02	-6.448574e-03
1.998252e+02	-6.523226e-03
2.009794e+02	-6.598742e-03
2.021403e+02	-6.675131e-03
2.033078e+02	-6.752404e-03
2.044821e+02	-6.830570e-03
2.056632e+02	-6.909641e-03
2.068511e+02	-6.989627e-03
2.080459e+02	-7.070537e-03
2.092475e+02	-7.152384e-03
2.104561e+02	-7.235177e-03
2.116717e+02	-7.318927e-03
2.128943e+02	-7.403646e-03
2.141240e+02	-7.489345e-03
2.153608e+02	-7.576035e-03
2.166047e+02	-7.663728e-03
2.178558e+02	-7.752435e-03
2.191141e+02	-7.842167e-03
2.203797e+02	-7.932938e-03
2.216526e+02	-8.024758e-03
2.229329e+02	-8.117639e-03
2.242205e+02	-8.211595e-03
2.255156e+02	-8.306637e-03
2.268182e+02	-8.402779e-03
2.281283e+02	-8.500031e-03
2.294459e+02	-8.598409e-03
2.307712e+02	-8.697923e-03
2.321041e+02	-8.798589e-03
2.334447e+02	-8.900418e-03
2.347931e+02	-9.003424e-03
2.361493e+02	-9.107622e-03
2.375133e+02	-9.213023e-03
2.388851e+02	-9.319644e-03
2.402649e+02	-9.427497e-03
2.416527e+02	-9.536596e-03
2.430484e+02	-9.646957e-03
2.444523e+02	-9.758594e-03
2.458642e+02	-9.871521e-03
2.472843e+02	-9.985753e-03
2.487126e+02	-1.010131e-02
2.501492e+02	-1.021819e-02
2.515940e+02	-1.033643e-02
2.530472e+02	-1.045604e-02
2.545088e+02	-1.057703e-02
2.559789e+02	-1.069941e-02
2.574574e+02	-1.082321e-02
2.589444e+02	-1.094844e-02
2.604401e+02	-1.107512e-02
2.619444e+02	-1.120326e-02
2.634574e+02	-1.133289e-02
2.649791e+02	-1.146401e-02
2.665096e+02	-1.159664e-02
2.680489e+02	-1.173081e-02
2.695972e+02	-1.186653e-02
2.711544e+02	-1.200382e-02
2.727205e+02	-1.214269e-02
2.742958e+02	-1.228316e-02
2.758801e+02	-1.242526e-02
2.774736e+02	-1.256900e-02
2.790762e+02	-1.271441e-02
2.806882e+02	-1.286149e-02
2.823094e+02	-1.301027e-02
2.839400e+02	-1.316076e-02
2.855800e+02	-1.331300e-02
2.872295e+02	-1.346700e-02
2.888886e+02	-1.362277e-02
2.905572e+02	-1.378034e-02
2.922354e+02	-1.393973e-02
2.939234e+02	-1.410096e-02
2.956211e+02	-1.426406e-02
2.973286e+02	-1.442904e-02
2.990459e+02	-1.459592e-02
3.007732e+02	-1.476473e-02
3.025104e+02	-1.493549e-02
3.042577e+02	-1.510821e-02
3.060151e+02	-1.528294e-02
3.077826e+02	-1.545968e-02
3.095604e+02	-1.563846e-02
3.113484e+02	-1.581930e-02
3.131467e+02	-1.600224e-02
3.149554e+02	-1.618728e-02
3.167746e+02	-1.637446e-02
3.186043e+02	-1.656380e-02
3.204445e+02	-1.675532e-02
3.222954e+02	-1.694906e-02
3.241570e+02	-1.714503e-02
3.260293e+02	-1.734326e-02
3.279124e+02	-1.754378e-02
3.298064e+02	-1.774661e-02
3.317114e+02	-1.795178e-02
3.336273e+02	-1.815932e-02
3.355544e+02	-1.836926e-02
3.374925e+02	-1.858161e-02
3.394418e+02	-1.879642e-02
3.414024e+02	-1.901370e-02
3.433744e+02	-1.923349e-02
3.453577e+02	-1.945581e-02
3.473525e+02	-1.968070e-02
3.493588e+02	-1.990818e-02
3.513766e+02	-2.013829e-02
3.534062e+02	-2.037105e-02
3.554474e+02	-2.060649e-02
3.575005e+02	-2.084465e-02
3.595654e+02	-2.108555e-02
3.616422e+02	-2.132923e-02
3.637311e+02	-2.157572e-02
3.658320e+02	-2.182505e-02
3.679450e+02	-2.207725e-02
3.700702e+02	-2.233236e-02
3.722077e+02	-2.259041e-02
3.743576e+02	-2.285144e-02
3.765199e+02	-2.311547e-02
3.786946e+02	-2.338255e-02
3.808820e+02	-2.365270e-02
3.830819e+02	-2.392597e-02
3.852946e+02	-2.420238e-02
3.875200e+02	-2.448198e-02
3.897583e+02	-2.476480e-02
3.920096e+02	-2.505087e-02
3.942738e+02	-2.534024e-02
3.965511e+02	-2.563295e-02
3.988416e+02	-2.592902e-02
4.011452e+02	-2.622851e-02
4.034622e+02	-2.653144e-02
4.057926e+02	-2.683786e-02
4.081365e+02	-2.714781e-02
4.104938e+02	-2.746133e-02
4.128648e+02	-2.777845e-02
4.152495e+02	-2.809923e-02
4.176480e+02	-2.842370e-02
4.200603e+02	-2.875190e-02
4.224866e+02	-2.908388e-02
4.249268e+02	-2.941968e-02
4.273812e+02	-2.975934e-02
4.298497e+02	-3.010292e-02
4.323325e+02	-3.045044e-02
4.348297e+02	-3.080196e-02
4.373412e+02	-3.115753e-02
4.398673e+02	-3.151718e-02
4.424079e+02	-3.188097e-02
4.449633e+02	-3.224895e-02
4.475334e+02	-3.262115e-02
4.501183e+02	-3.299764e-02
4.527182e+02	-3.337845e-02
4.553330e+02	-3.376364e-02
4.579630e+02	-3.415326e-02
4.606082e+02	-3.454736e-02
4.632687e+02	-3.494598e-02
4.659445e+02	-3.534919e-02
4.686358e+02	-3.575703e-02
4.713426e+02	-3.616955e-02
4.740650e+02	-3.658682e-02
4.768032e+02	-3.700887e-02
4.795572e+02	-3.743578e-02
4.823271e+02	-3.786759e-02
4.851130e+02	-3.830435e-02
4.879150e+02	-3.874614e-02
4.907332e+02	-3.919299e-02
4.935676e+02	-3.964497e-02
4.964185e+02	-4.010215e-02
4.992858e+02	-4.056456e-02
5.021696e+02	-4.103229e-02
5.050701e+02	-4.150538e-02
5.079874e+02	-4.198391e-02
5.109215e+02	-4.246792e-02
5.138726e+02	-4.295748e-02
5.168407e+02	-4.345266e-02
5.198259e+02	-4.395352e-02
5.228284e+02	-4.446012e-02
5.258482e+02	-4.497253e-02
5.288855e+02	-4.549081e-02
5.319403e+02	-4.601504e-02
5.350128e+02	-4.654527e-02
5.381030e+02	-4.708158e-02
5.412111e+02	-4.762404e-02
5.443371e+02	-4.817271e-02
5.474812e+02	-4.872767e-02
5.506434e+02	-4.928898e-02
5.538239e+02	-4.985673e-02
5.570228e+02	-5.043097e-02
5.602401e+02	-5.101179e-02
5.634760e+02	-5.159926e-02
5.667306e+02	-5.219345e-02
5.700040e+02	-5.279445e-02
5.732964e+02	-5.340232e-02
5.766077e+02	-5.401715e-02
5.799382e+02	-5.463901e-02
5.832879e+02	-5.526798e-02
5.866569e+02	-5.590415e-02
5.900454e+02	-5.654759e-02
5.934535e+02	-5.719839e-02
5.968813e+02	-5.785663e-02
6.003288e+02	-5.852240e-02
6.037963e+02	-5.919577e-02
6.072838e+02	-5.987684e-02
6.107914e+02	-6.056568e-02
6.143194e+02	-6.126240e-02
6.178676e+02	-6.196707e-02
6.214364e+02	-6.267980e-02
6.250258e+02	-6.340065e-02
6.286359e+02	-6.412974e-02
6.322669e+02	-6.486715e-02
6.359189e+02	-6.561297e-02
6.395919e+02	-6.636731e-02
6.432862e+02	-6.713024e-02
6.470017e+02	-6.790188e-02
6.507388e+02	-6.868232e-02
6.544974e+02	-6.947166e-02
6.582778e+02	-7.026999e-02
6.620800e+02	-7.107743e-02
6.659041e+02	-7.189406e-02
6.697504e+02	-7.272000e-02
6.736188e+02	-7.355535e-02
6.775096e+02	-7.440021e-02
6.814229e+02	-7.525469e-02
6.853587e+02	-7.611889e-02
6.893173e+02	-7.699294e-02
6.932988e+02	-7.787693e-02
6.973033e+02	-7.877097e-02
7.013309e+02	-7.967519e-02
