Frequency(Hz)	Magnitude(dB)
1.000000e+01	-2.053969e+00
1.005776e+01	-2.072764e+00
1.011585e+01	-2.091986e+00
1.017428e+01	-2.111020e+00
1.023305e+01	-2.130212e+00
1.029215e+01	-2.149674e+00
1.035160e+01	-2.169471e+00
1.041139e+01	-2.188895e+00
1.047153e+01	-2.209023e+00
1.053201e+01	-2.229084e+00
1.059284e+01	-2.249271e+00
1.065403e+01	-2.269600e+00
1.071556e+01	-2.289659e+00
1.077746e+01	-2.310515e+00
1.083971e+01	-2.331250e+00
1.090232e+01	-2.351865e+00
1.096529e+01	-2.372761e+00
1.102862e+01	-2.394223e+00
1.109232e+01	-2.415368e+00
1.115639e+01	-2.436956e+00
1.122083e+01	-2.458504e+00
1.128564e+01	-2.480048e+00
1.135083e+01	-2.501801e+00
1.141639e+01	-2.523806e+00
1.148233e+01	-2.546094e+00
1.154865e+01	-2.568238e+00
1.161536e+01	-2.590592e+00
1.168245e+01	-2.613003e+00
1.174992e+01	-2.635753e+00
1.181779e+01	-2.658560e+00
1.188605e+01	-2.681587e+00
1.195470e+01	-2.704681e+00
1.202375e+01	-2.728021e+00
1.209320e+01	-2.751416e+00
1.216305e+01	-2.775265e+00
1.223330e+01	-2.798773e+00
1.230396e+01	-2.822517e+00
1.237503e+01	-2.846373e+00
1.244651e+01	-2.870488e+00
1.251840e+01	-2.894987e+00
1.259070e+01	-2.919291e+00
1.266343e+01	-2.943649e+00
1.273657e+01	-2.968691e+00
1.281014e+01	-2.993505e+00
1.288413e+01	-3.018350e+00
1.295855e+01	-3.043763e+00
1.303339e+01	-3.069011e+00
1.310867e+01	-3.094406e+00
1.318439e+01	-3.119731e+00
1.326054e+01	-3.145521e+00
1.333713e+01	-3.171523e+00
1.341417e+01	-3.197320e+00
1.349165e+01	-3.223470e+00
1.356958e+01	-3.249779e+00
1.364795e+01	-3.276158e+00
1.372678e+01	-3.303011e+00
1.380607e+01	-3.329571e+00
1.388581e+01	-3.356407e+00
1.396602e+01	-3.383269e+00
1.404668e+01	-3.410324e+00
1.412782e+01	-3.437738e+00
1.420942e+01	-3.465048e+00
1.429149e+01	-3.492866e+00
1.437404e+01	-3.520486e+00
1.445706e+01	-3.548212e+00
1.454057e+01	-3.576428e+00
1.462455e+01	-3.604469e+00
1.470902e+01	-3.632868e+00
1.479398e+01	-3.661098e+00
1.487943e+01	-3.689933e+00
1.496537e+01	-3.718337e+00
1.505181e+01	-3.747408e+00
1.513875e+01	-3.776345e+00
1.522619e+01	-3.805267e+00
1.531414e+01	-3.834791e+00
1.540259e+01	-3.864251e+00
1.549156e+01	-3.893671e+00
1.558103e+01	-3.923278e+00
1.567103e+01	-3.953145e+00
1.576155e+01	-3.982975e+00
1.585258e+01	-4.013225e+00
1.594415e+01	-4.043344e+00
1.603624e+01	-4.073679e+00
1.612886e+01	-4.104400e+00
1.622202e+01	-4.135100e+00
1.631572e+01	-4.165454e+00
1.640996e+01	-4.196693e+00
1.650474e+01	-4.227794e+00
1.660008e+01	-4.258665e+00
1.669596e+01	-4.290261e+00
1.679239e+01	-4.321868e+00
1.688938e+01	-4.353249e+00
1.698694e+01	-4.385111e+00
1.708505e+01	-4.417033e+00
1.718373e+01	-4.448962e+00
1.728299e+01	-4.480942e+00
1.738281e+01	-4.513394e+00
1.748322e+01	-4.545808e+00
1.758420e+01	-4.578199e+00
1.768576e+01	-4.610959e+00
1.778792e+01	-4.643776e+00
1.789066e+01	-4.676579e+00
1.799399e+01	-4.709759e+00
1.809793e+01	-4.742807e+00
1.820246e+01	-4.775995e+00
1.830760e+01	-4.809508e+00
1.841334e+01	-4.843065e+00
1.851969e+01	-4.876904e+00
1.862666e+01	-4.910739e+00
1.873425e+01	-4.944562e+00
1.884246e+01	-4.978671e+00
1.895129e+01	-5.013034e+00
1.906075e+01	-5.047207e+00
1.917085e+01	-5.081543e+00
1.928158e+01	-5.116205e+00
1.939295e+01	-5.150941e+00
1.950496e+01	-5.185529e+00
1.961762e+01	-5.220524e+00
1.973093e+01	-5.255644e+00
1.984490e+01	-5.290864e+00
1.995952e+01	-5.326235e+00
2.007480e+01	-5.361217e+00
2.019076e+01	-5.397081e+00
2.030738e+01	-5.432810e+00
2.042467e+01	-5.468348e+00
2.054264e+01	-5.504068e+00
2.066130e+01	-5.540366e+00
2.078064e+01	-5.576539e+00
2.090066e+01	-5.612602e+00
2.102139e+01	-5.649589e+00
2.114280e+01	-5.685608e+00
2.126492e+01	-5.722048e+00
2.138775e+01	-5.758711e+00
2.151128e+01	-5.795563e+00
2.163553e+01	-5.832259e+00
2.176050e+01	-5.869452e+00
2.188619e+01	-5.906574e+00
2.201260e+01	-5.943718e+00
2.213974e+01	-5.981346e+00
2.226762e+01	-6.018766e+00
2.239624e+01	-6.056329e+00
2.252560e+01	-6.093717e+00
2.265571e+01	-6.131582e+00
2.278656e+01	-6.169629e+00
2.291818e+01	-6.207494e+00
2.305055e+01	-6.245457e+00
2.318369e+01	-6.284112e+00
2.331760e+01	-6.322273e+00
2.345228e+01	-6.360639e+00
2.358774e+01	-6.399145e+00
2.372398e+01	-6.437751e+00
2.386101e+01	-6.476209e+00
2.399883e+01	-6.515299e+00
2.413745e+01	-6.554486e+00
2.427686e+01	-6.593237e+00
2.441709e+01	-6.632354e+00
2.455812e+01	-6.671309e+00
2.469997e+01	-6.710887e+00
2.484263e+01	-6.750152e+00
2.498612e+01	-6.789320e+00
2.513044e+01	-6.829221e+00
2.527559e+01	-6.868592e+00
2.542158e+01	-6.908749e+00
2.556842e+01	-6.948824e+00
2.571610e+01	-6.988503e+00
2.586463e+01	-7.028789e+00
2.601403e+01	-7.069012e+00
2.616428e+01	-7.108748e+00
2.631541e+01	-7.149358e+00
2.646740e+01	-7.189855e+00
2.662028e+01	-7.230384e+00
2.677404e+01	-7.270908e+00
2.692868e+01	-7.311763e+00
2.708422e+01	-7.352129e+00
2.724066e+01	-7.393056e+00
2.739800e+01	-7.434480e+00
2.755625e+01	-7.475662e+00
2.771541e+01	-7.516494e+00
2.787550e+01	-7.557803e+00
2.803650e+01	-7.599106e+00
2.819844e+01	-7.640696e+00
2.836131e+01	-7.681760e+00
2.852513e+01	-7.722838e+00
2.868989e+01	-7.764956e+00
2.885560e+01	-7.806565e+00
2.902227e+01	-7.848581e+00
2.918990e+01	-7.890307e+00
2.935850e+01	-7.932084e+00
2.952807e+01	-7.974254e+00
2.969863e+01	-8.015941e+00
2.987016e+01	-8.058627e+00
3.004269e+01	-8.100672e+00
3.021622e+01	-8.143105e+00
3.039075e+01	-8.185362e+00
3.056628e+01	-8.227549e+00
3.074283e+01	-8.270410e+00
3.092040e+01	-8.313108e+00
3.109900e+01	-8.356002e+00
3.127862e+01	-8.398603e+00
3.145929e+01	-8.441193e+00
3.164099e+01	-8.484217e+00
3.182375e+01	-8.526891e+00
3.200756e+01	-8.570156e+00
3.219244e+01	-8.613314e+00
3.237838e+01	-8.656380e+00
3.256540e+01	-8.699966e+00
3.275349e+01	-8.742672e+00
3.294268e+01	-8.786727e+00
3.313295e+01	-8.829745e+00
3.332433e+01	-8.873202e+00
3.351681e+01	-8.916918e+00
3.371040e+01	-8.960554e+00
3.390511e+01	-9.004475e+00
3.410094e+01	-9.047738e+00
3.429791e+01	-9.091712e+00
3.449601e+01	-9.136386e+00
3.469526e+01	-9.179499e+00
3.489566e+01	-9.223589e+00
3.509721e+01	-9.267509e+00
3.529993e+01	-9.311835e+00
3.550382e+01	-9.356012e+00
3.570889e+01	-9.400504e+00
3.591515e+01	-9.445079e+00
3.612259e+01	-9.488921e+00
3.633123e+01	-9.533346e+00
3.654108e+01	-9.577856e+00
3.675214e+01	-9.622512e+00
3.696442e+01	-9.667289e+00
3.717792e+01	-9.712020e+00
3.739266e+01	-9.756660e+00
3.760864e+01	-9.801303e+00
3.782587e+01	-9.846093e+00
3.804435e+01	-9.890568e+00
3.826409e+01	-9.935803e+00
3.848510e+01	-9.980393e+00
3.870739e+01	-1.002578e+01
3.893096e+01	-1.007080e+01
3.915583e+01	-1.011628e+01
3.938199e+01	-1.016138e+01
3.960946e+01	-1.020720e+01
3.983824e+01	-1.025152e+01
4.006834e+01	-1.029665e+01
4.029978e+01	-1.034294e+01
4.053255e+01	-1.038809e+01
4.076666e+01	-1.043331e+01
4.100213e+01	-1.047906e+01
4.123896e+01	-1.052476e+01
4.147715e+01	-1.056989e+01
4.171672e+01	-1.061626e+01
4.195767e+01	-1.066128e+01
4.220002e+01	-1.070716e+01
4.244377e+01	-1.075278e+01
4.268892e+01	-1.079830e+01
4.293549e+01	-1.084498e+01
4.318348e+01	-1.089030e+01
4.343291e+01	-1.093641e+01
4.368377e+01	-1.098250e+01
4.393609e+01	-1.102869e+01
4.418986e+01	-1.107451e+01
4.444510e+01	-1.112093e+01
4.470182e+01	-1.116680e+01
4.496001e+01	-1.121354e+01
4.521970e+01	-1.125958e+01
4.548089e+01	-1.130614e+01
4.574358e+01	-1.135214e+01
4.600779e+01	-1.139892e+01
4.627353e+01	-1.144479e+01
4.654081e+01	-1.149130e+01
4.680963e+01	-1.153831e+01
4.708000e+01	-1.158422e+01
4.735193e+01	-1.163128e+01
4.762543e+01	-1.167734e+01
4.790051e+01	-1.172511e+01
4.817719e+01	-1.177092e+01
4.845545e+01	-1.181771e+01
4.873533e+01	-1.186514e+01
4.901682e+01	-1.191125e+01
4.929994e+01	-1.195832e+01
4.958470e+01	-1.200522e+01
4.987110e+01	-1.205215e+01
5.015915e+01	-1.209899e+01
5.044887e+01	-1.214644e+01
5.074026e+01	-1.219309e+01
5.103333e+01	-1.223996e+01
5.132810e+01	-1.228711e+01
5.162457e+01	-1.233471e+01
5.192275e+01	-1.238003e+01
5.222265e+01	-1.242806e+01
5.252429e+01	-1.247537e+01
5.282767e+01	-1.252260e+01
5.313280e+01	-1.256977e+01
5.343969e+01	-1.261754e+01
5.374836e+01	-1.266420e+01
5.405880e+01	-1.271160e+01
5.437105e+01	-1.275914e+01
5.468509e+01	-1.280672e+01
5.500095e+01	-1.285328e+01
5.531863e+01	-1.290094e+01
5.563815e+01	-1.294867e+01
5.595951e+01	-1.299643e+01
5.628273e+01	-1.304365e+01
5.660782e+01	-1.309162e+01
5.693479e+01	-1.313937e+01
5.726364e+01	-1.318642e+01
5.759439e+01	-1.323430e+01
5.792705e+01	-1.328193e+01
5.826164e+01	-1.332872e+01
5.859815e+01	-1.337747e+01
5.893662e+01	-1.342483e+01
5.927703e+01	-1.347270e+01
5.961941e+01	-1.351994e+01
5.996377e+01	-1.356798e+01
6.031012e+01	-1.361668e+01
6.065847e+01	-1.366403e+01
6.100883e+01	-1.371233e+01
6.136121e+01	-1.375944e+01
6.171563e+01	-1.380848e+01
6.207210e+01	-1.385569e+01
6.243063e+01	-1.390399e+01
6.279122e+01	-1.395177e+01
6.315390e+01	-1.400066e+01
6.351868e+01	-1.404818e+01
6.388556e+01	-1.409620e+01
6.425456e+01	-1.414362e+01
6.462569e+01	-1.419136e+01
6.499897e+01	-1.424014e+01
6.537440e+01	-1.428825e+01
6.575200e+01	-1.433680e+01
6.613178e+01	-1.438492e+01
6.651375e+01	-1.443254e+01
6.689793e+01	-1.448186e+01
6.728433e+01	-1.452956e+01
6.767297e+01	-1.457809e+01
6.806384e+01	-1.462625e+01
6.845698e+01	-1.467436e+01
6.885238e+01	-1.472391e+01
6.925007e+01	-1.477144e+01
6.965005e+01	-1.482025e+01
7.005235e+01	-1.486838e+01
7.045697e+01	-1.491600e+01
7.086393e+01	-1.496505e+01
7.127323e+01	-1.501335e+01
7.168490e+01	-1.506155e+01
7.209895e+01	-1.510915e+01
7.251539e+01	-1.515813e+01
7.293424e+01	-1.520664e+01
7.335551e+01	-1.525527e+01
7.377920e+01	-1.530424e+01
7.420535e+01	-1.535299e+01
7.463396e+01	-1.540134e+01
7.506504e+01	-1.544956e+01
7.549861e+01	-1.549806e+01
7.593469e+01	-1.554777e+01
7.637328e+01	-1.559647e+01
7.681441e+01	-1.564440e+01
7.725809e+01	-1.569321e+01
7.770433e+01	-1.574223e+01
7.815315e+01	-1.578976e+01
7.860456e+01	-1.583853e+01
7.905857e+01	-1.588768e+01
7.951521e+01	-1.593713e+01
7.997449e+01	-1.598668e+01
8.043642e+01	-1.603375e+01
8.090102e+01	-1.608341e+01
8.136830e+01	-1.613176e+01
8.183828e+01	-1.618102e+01
8.231097e+01	-1.622945e+01
8.278640e+01	-1.627857e+01
8.326457e+01	-1.632647e+01
8.374550e+01	-1.637654e+01
8.422921e+01	-1.642525e+01
8.471572e+01	-1.647454e+01
8.520503e+01	-1.652296e+01
8.569717e+01	-1.657169e+01
8.619215e+01	-1.662083e+01
8.669000e+01	-1.666974e+01
8.719071e+01	-1.671844e+01
8.769432e+01	-1.676710e+01
8.820084e+01	-1.681682e+01
8.871029e+01	-1.686590e+01
8.922267e+01	-1.691427e+01
8.973802e+01	-1.696339e+01
9.025634e+01	-1.701252e+01
9.077766e+01	-1.706109e+01
9.130199e+01	-1.711099e+01
9.182935e+01	-1.715987e+01
9.235975e+01	-1.720932e+01
9.289321e+01	-1.725882e+01
9.342976e+01	-1.730765e+01
9.396941e+01	-1.735755e+01
9.451217e+01	-1.740417e+01
9.505807e+01	-1.745500e+01
9.560712e+01	-1.750325e+01
9.615934e+01	-1.755260e+01
9.671476e+01	-1.760302e+01
9.727338e+01	-1.765122e+01
9.783522e+01	-1.770083e+01
9.840032e+01	-1.774990e+01
9.896867e+01	-1.779793e+01
9.954031e+01	-1.784642e+01
1.001153e+02	-1.789767e+01
1.006935e+02	-1.794613e+01
1.012751e+02	-1.799567e+01
1.018601e+02	-1.804452e+01
1.024484e+02	-1.809278e+01
1.030402e+02	-1.814222e+01
1.036353e+02	-1.819187e+01
1.042339e+02	-1.824289e+01
1.048360e+02	-1.829163e+01
1.054415e+02	-1.834010e+01
1.060505e+02	-1.838886e+01
1.066631e+02	-1.843915e+01
1.072791e+02	-1.848787e+01
1.078988e+02	-1.853761e+01
1.085220e+02	-1.858718e+01
1.091488e+02	-1.863672e+01
1.097793e+02	-1.868568e+01
1.104133e+02	-1.873568e+01
1.110511e+02	-1.878421e+01
1.116925e+02	-1.883384e+01
1.123376e+02	-1.888445e+01
1.129865e+02	-1.893239e+01
1.136391e+02	-1.898257e+01
1.142955e+02	-1.903188e+01
1.149556e+02	-1.908115e+01
1.156196e+02	-1.912957e+01
1.162874e+02	-1.917978e+01
1.169591e+02	-1.922807e+01
1.176347e+02	-1.927836e+01
1.183141e+02	-1.932756e+01
1.189975e+02	-1.937773e+01
1.196848e+02	-1.942651e+01
1.203761e+02	-1.947597e+01
1.210714e+02	-1.952651e+01
1.217707e+02	-1.957546e+01
1.224740e+02	-1.962266e+01
1.231814e+02	-1.967490e+01
1.238929e+02	-1.972398e+01
1.246085e+02	-1.977349e+01
1.253283e+02	-1.982283e+01
1.260522e+02	-1.987183e+01
1.267802e+02	-1.992307e+01
1.275125e+02	-1.997099e+01
1.282490e+02	-2.002171e+01
1.289898e+02	-2.006974e+01
1.297348e+02	-2.012071e+01
1.304842e+02	-2.016899e+01
1.312378e+02	-2.022039e+01
1.319959e+02	-2.026806e+01
1.327583e+02	-2.031759e+01
1.335251e+02	-2.036763e+01
1.342963e+02	-2.041767e+01
1.350720e+02	-2.046875e+01
1.358522e+02	-2.051645e+01
1.366368e+02	-2.056679e+01
1.374260e+02	-2.061574e+01
1.382198e+02	-2.066405e+01
1.390182e+02	-2.071460e+01
1.398211e+02	-2.076464e+01
1.406287e+02	-2.081400e+01
1.414410e+02	-2.086341e+01
1.422579e+02	-2.091429e+01
1.430796e+02	-2.096287e+01
1.439060e+02	-2.101158e+01
1.447372e+02	-2.106223e+01
1.455732e+02	-2.111214e+01
1.464141e+02	-2.116115e+01
1.472597e+02	-2.121119e+01
1.481103e+02	-2.125946e+01
1.489658e+02	-2.131083e+01
1.498262e+02	-2.135983e+01
1.506916e+02	-2.141050e+01
1.515620e+02	-2.145899e+01
1.524374e+02	-2.150949e+01
1.533179e+02	-2.155950e+01
1.542034e+02	-2.161006e+01
1.550941e+02	-2.165872e+01
1.559899e+02	-2.170858e+01
1.568909e+02	-2.175792e+01
1.577971e+02	-2.180628e+01
1.587085e+02	-2.185757e+01
1.596252e+02	-2.190711e+01
1.605472e+02	-2.195596e+01
1.614745e+02	-2.200759e+01
1.624072e+02	-2.205675e+01
1.633453e+02	-2.210466e+01
1.642887e+02	-2.215339e+01
1.652377e+02	-2.220541e+01
1.661921e+02	-2.225501e+01
1.671520e+02	-2.230435e+01
1.681175e+02	-2.235322e+01
1.690885e+02	-2.240443e+01
1.700651e+02	-2.245415e+01
1.710474e+02	-2.250392e+01
1.720354e+02	-2.255434e+01
1.730291e+02	-2.260623e+01
1.740285e+02	-2.265129e+01
1.750337e+02	-2.270447e+01
1.760446e+02	-2.275231e+01
1.770615e+02	-2.280191e+01
1.780842e+02	-2.285165e+01
1.791128e+02	-2.290263e+01
1.801473e+02	-2.295021e+01
1.811878e+02	-2.300158e+01
1.822344e+02	-2.305141e+01
1.832870e+02	-2.310066e+01
1.843456e+02	-2.315209e+01
1.854104e+02	-2.320006e+01
1.864813e+02	-2.325212e+01
1.875584e+02	-2.330110e+01
1.886418e+02	-2.334899e+01
1.897313e+02	-2.339836e+01
1.908272e+02	-2.345006e+01
1.919294e+02	-2.350056e+01
1.930380e+02	-2.354901e+01
1.941530e+02	-2.359828e+01
1.952744e+02	-2.365140e+01
1.964023e+02	-2.370148e+01
1.975367e+02	-2.374886e+01
1.986777e+02	-2.379813e+01
1.998252e+02	-2.384870e+01
2.009794e+02	-2.389937e+01
2.021403e+02	-2.394851e+01
2.033078e+02	-2.399843e+01
2.044821e+02	-2.404744e+01
2.056632e+02	-2.409917e+01
2.068511e+02	-2.414764e+01
2.080459e+02	-2.419608e+01
2.092475e+02	-2.424818e+01
2.104561e+02	-2.429647e+01
2.116717e+02	-2.434788e+01
2.128943e+02	-2.439970e+01
2.141240e+02	-2.444617e+01
2.153608e+02	-2.449747e+01
2.166047e+02	-2.454604e+01
2.178558e+02	-2.459734e+01
2.191141e+02	-2.464759e+01
2.203797e+02	-2.469561e+01
2.216526e+02	-2.474616e+01
2.229329e+02	-2.479609e+01
2.242205e+02	-2.484457e+01
2.255156e+02	-2.489693e+01
2.268182e+02	-2.494647e+01
2.281283e+02	-2.500030e+01
2.294459e+02	-2.504532e+01
2.307712e+02	-2.509985e+01
2.321041e+02	-2.514463e+01
2.334447e+02	-2.519532e+01
2.347931e+02	-2.524481e+01
2.361493e+02	-2.529811e+01
2.375133e+02	-2.534763e+01
2.388851e+02	-2.539278e+01
2.402649e+02	-2.544723e+01
2.416527e+02	-2.549511e+01
2.430484e+02	-2.554638e+01
2.444523e+02	-2.559600e+01
2.458642e+02	-2.564604e+01
2.472843e+02	-2.569747e+01
2.487126e+02	-2.574471e+01
2.501492e+02	-2.579674e+01
2.515940e+02	-2.584389e+01
2.530472e+02	-2.589640e+01
2.545088e+02	-2.594390e+01
2.559789e+02	-2.599570e+01
2.574574e+02	-2.604522e+01
2.589444e+02	-2.609205e+01
2.604401e+02	-2.614270e+01
2.619444e+02	-2.619719e+01
2.634574e+02	-2.624517e+01
2.649791e+02	-2.629654e+01
2.665096e+02	-2.634547e+01
2.680489e+02	-2.639380e+01
2.695972e+02	-2.644355e+01
2.711544e+02	-2.649616e+01
2.727205e+02	-2.654642e+01
2.742958e+02	-2.659637e+01
2.758801e+02	-2.664291e+01
2.774736e+02	-2.669319e+01
2.790762e+02	-2.674148e+01
2.806882e+02	-2.679384e+01
2.823094e+02	-2.684290e+01
2.839400e+02	-2.689624e+01
2.855800e+02	-2.694260e+01
2.872295e+02	-2.699347e+01
2.888886e+02	-2.704550e+01
2.905572e+02	-2.709597e+01
2.922354e+02	-2.714170e+01
2.939234e+02	-2.719349e+01
2.956211e+02	-2.724828e+01
2.973286e+02	-2.729486e+01
2.990459e+02	-2.734150e+01
3.007732e+02	-2.739291e+01
3.025104e+02	-2.744606e+01
3.042577e+02	-2.749302e+01
3.060151e+02	-2.754683e+01
3.077826e+02	-2.759022e+01
3.095604e+02	-2.764451e+01
3.113484e+02	-2.769445e+01
3.131467e+02	-2.775004e+01
3.149554e+02	-2.779361e+01
3.167746e+02	-2.784273e+01
3.186043e+02	-2.789475e+01
3.204445e+02	-2.794181e+01
3.222954e+02	-2.799299e+01
3.241570e+02	-2.804762e+01
3.260293e+02	-2.809145e+01
3.279124e+02	-2.814383e+01
3.298064e+02	-2.819468e+01
3.317114e+02	-2.824401e+01
3.336273e+02	-2.829540e+01
3.355544e+02	-2.834449e+01
3.374925e+02	-2.839104e+01
3.394418e+02	-2.844555e+01
3.414024e+02	-2.849472e+01
3.433744e+02	-2.854270e+01
3.453577e+02	-2.859498e+01
3.473525e+02	-2.864715e+01
3.493588e+02	-2.869704e+01
3.513766e+02	-2.874710e+01
3.534062e+02	-2.879435e+01
3.554474e+02	-2.884020e+01
3.575005e+02	-2.890174e+01
3.595654e+02	-2.894367e+01
3.616422e+02	-2.899740e+01
3.637311e+02	-2.904043e+01
3.658320e+02	-2.909420e+01
3.679450e+02	-2.914665e+01
3.700702e+02	-2.919623e+01
3.722077e+02	-2.924818e+01
3.743576e+02	-2.929643e+01
3.765199e+02	-2.933920e+01
3.786946e+02	-2.939487e+01
3.808820e+02	-2.944459e+01
3.830819e+02	-2.949352e+01
3.852946e+02	-2.954525e+01
3.875200e+02	-2.959482e+01
3.897583e+02	-2.964875e+01
3.920096e+02	-2.969143e+01
3.942738e+02	-2.974657e+01
3.965511e+02	-2.979547e+01
3.988416e+02	-2.984512e+01
4.011452e+02	-2.990093e+01
4.034622e+02	-2.994585e+01
4.057926e+02	-2.999944e+01
4.081365e+02	-3.004818e+01
4.104938e+02	-3.009527e+01
4.128648e+02	-3.014445e+01
4.152495e+02	-3.019696e+01
4.176480e+02	-3.024741e+01
4.200603e+02	-3.029917e+01
4.224866e+02	-3.035243e+01
4.249268e+02	-3.039895e+01
4.273812e+02	-3.045552e+01
4.298497e+02	-3.049949e+01
4.323325e+02	-3.054163e+01
4.348297e+02	-3.059349e+01
4.373412e+02	-3.065131e+01
4.398673e+02	-3.070212e+01
4.424079e+02	-3.074690e+01
4.449633e+02	-3.079681e+01
4.475334e+02	-3.084939e+01
4.501183e+02	-3.089992e+01
4.527182e+02	-3.094815e+01
4.553330e+02	-3.099843e+01
4.579630e+02	-3.104972e+01
4.606082e+02	-3.109992e+01
4.632687e+02	-3.115215e+01
4.659445e+02	-3.119527e+01
4.686358e+02	-3.125013e+01
4.713426e+02	-3.130003e+01
4.740650e+02	-3.134807e+01
4.768032e+02	-3.140164e+01
4.795572e+02	-3.145103e+01
4.823271e+02	-3.149628e+01
4.851130e+02	-3.155443e+01
4.879150e+02	-3.160031e+01
4.907332e+02	-3.165231e+01
4.935676e+02	-3.170018e+01
4.964185e+02	-3.175611e+01
4.992858e+02	-3.180100e+01
5.021696e+02	-3.185071e+01
5.050701e+02	-3.190426e+01
5.079874e+02	-3.194926e+01
5.109215e+02	-3.200559e+01
5.138726e+02	-3.205586e+01
5.168407e+02	-3.210313e+01
5.198259e+02	-3.215073e+01
5.228284e+02	-3.220306e+01
5.258482e+02	-3.225165e+01
5.288855e+02	-3.230299e+01
5.319403e+02	-3.235214e+01
5.350128e+02	-3.240751e+01
5.381030e+02	-3.245090e+01
5.412111e+02	-3.250311e+01
5.443371e+02	-3.255870e+01
5.474812e+02	-3.261165e+01
5.506434e+02	-3.265787e+01
5.538239e+02	-3.269952e+01
5.570228e+02	-3.275751e+01
5.602401e+02	-3.281611e+01
5.634760e+02	-3.285767e+01
5.667306e+02	-3.290710e+01
5.700040e+02	-3.295667e+01
5.732964e+02	-3.301116e+01
5.766077e+02	-3.306334e+01
5.799382e+02	-3.310907e+01
5.832879e+02	-3.316278e+01
5.866569e+02	-3.320511e+01
5.900454e+02	-3.325934e+01
5.934535e+02	-3.331598e+01
5.968813e+02	-3.336053e+01
6.003288e+02	-3.340242e+01
6.037963e+02	-3.345801e+01
6.072838e+02	-3.351044e+01
6.107914e+02	-3.354782e+01
6.143194e+02	-3.360915e+01
6.178676e+02	-3.365659e+01
6.214364e+02	-3.370634e+01
6.250258e+02	-3.375809e+01
6.286359e+02	-3.381475e+01
6.322669e+02	-3.386081e+01
6.359189e+02	-3.391375e+01
6.395919e+02	-3.395809e+01
6.432862e+02	-3.402126e+01
6.470017e+02	-3.405952e+01
6.507388e+02	-3.411034e+01
6.544974e+02	-3.416407e+01
6.582778e+02	-3.422380e+01
6.620800e+02	-3.426683e+01
6.659041e+02	-3.431830e+01
6.697504e+02	-3.436260e+01
6.736188e+02	-3.441609e+01
6.775096e+02	-3.447078e+01
6.814229e+02	-3.451684e+01
6.853587e+02	-3.457157e+01
6.893173e+02	-3.460630e+01
6.932988e+02	-3.467162e+01
6.973033e+02	-3.472451e+01
7.013309e+02	-3.476367e+01
