Frequency(Hz)	Magnitude(dB)
1.000000e+01	-2.316905e+00
1.005776e+01	-2.337728e+00
1.011585e+01	-2.358714e+00
1.017428e+01	-2.379535e+00
1.023305e+01	-2.400834e+00
1.029215e+01	-2.422184e+00
1.035160e+01	-2.443791e+00
1.041139e+01	-2.465275e+00
1.047153e+01	-2.487057e+00
1.053201e+01	-2.509063e+00
1.059284e+01	-2.530676e+00
1.065403e+01	-2.552904e+00
1.071556e+01	-2.575335e+00
1.077746e+01	-2.597773e+00
1.083971e+01	-2.620307e+00
1.090232e+01	-2.643139e+00
1.096529e+01	-2.666096e+00
1.102862e+01	-2.688903e+00
1.109232e+01	-2.712185e+00
1.115639e+01	-2.735548e+00
1.122083e+01	-2.759055e+00
1.128564e+01	-2.782600e+00
1.135083e+01	-2.806355e+00
1.141639e+01	-2.830119e+00
1.148233e+01	-2.854135e+00
1.154865e+01	-2.878263e+00
1.161536e+01	-2.902768e+00
1.168245e+01	-2.927237e+00
1.174992e+01	-2.951828e+00
1.181779e+01	-2.976529e+00
1.188605e+01	-3.001346e+00
1.195470e+01	-3.026402e+00
1.202375e+01	-3.051555e+00
1.209320e+01	-3.076823e+00
1.216305e+01	-3.102344e+00
1.223330e+01	-3.127699e+00
1.230396e+01	-3.153667e+00
1.237503e+01	-3.179788e+00
1.244651e+01	-3.205467e+00
1.251840e+01	-3.231971e+00
1.259070e+01	-3.258312e+00
1.266343e+01	-3.284569e+00
1.273657e+01	-3.311281e+00
1.281014e+01	-3.338131e+00
1.288413e+01	-3.364820e+00
1.295855e+01	-3.392006e+00
1.303339e+01	-3.419240e+00
1.310867e+01	-3.446309e+00
1.318439e+01	-3.473970e+00
1.326054e+01	-3.501411e+00
1.333713e+01	-3.529231e+00
1.341417e+01	-3.557486e+00
1.349165e+01	-3.585146e+00
1.356958e+01	-3.613624e+00
1.364795e+01	-3.641856e+00
1.372678e+01	-3.670381e+00
1.380607e+01	-3.698998e+00
1.388581e+01	-3.727798e+00
1.396602e+01	-3.756596e+00
1.404668e+01	-3.785209e+00
1.412782e+01	-3.814555e+00
1.420942e+01	-3.844134e+00
1.429149e+01	-3.873462e+00
1.437404e+01	-3.903175e+00
1.445706e+01	-3.932939e+00
1.454057e+01	-3.962705e+00
1.462455e+01	-3.992482e+00
1.470902e+01	-4.022893e+00
1.479398e+01	-4.053102e+00
1.487943e+01	-4.083550e+00
1.496537e+01	-4.114087e+00
1.505181e+01	-4.145119e+00
1.513875e+01	-4.175777e+00
1.522619e+01	-4.206457e+00
1.531414e+01	-4.237621e+00
1.540259e+01	-4.268856e+00
1.549156e+01	-4.300373e+00
1.558103e+01	-4.331940e+00
1.567103e+01	-4.363405e+00
1.576155e+01	-4.395428e+00
1.585258e+01	-4.427265e+00
1.594415e+01	-4.459253e+00
1.603624e+01	-4.491486e+00
1.612886e+01	-4.523447e+00
1.622202e+01	-4.556091e+00
1.631572e+01	-4.588344e+00
1.640996e+01	-4.621495e+00
1.650474e+01	-4.654132e+00
1.660008e+01	-4.687184e+00
1.669596e+01	-4.720294e+00
1.679239e+01	-4.753496e+00
1.688938e+01	-4.786808e+00
1.698694e+01	-4.820171e+00
1.708505e+01	-4.853978e+00
1.718373e+01	-4.887594e+00
1.728299e+01	-4.921247e+00
1.738281e+01	-4.955260e+00
1.748322e+01	-4.989599e+00
1.758420e+01	-5.023674e+00
1.768576e+01	-5.058040e+00
1.778792e+01	-5.092765e+00
1.789066e+01	-5.127338e+00
1.799399e+01	-5.162388e+00
1.809793e+01	-5.196949e+00
1.820246e+01	-5.231661e+00
1.830760e+01	-5.266890e+00
1.841334e+01	-5.301928e+00
1.851969e+01	-5.337251e+00
1.862666e+01	-5.372570e+00
1.873425e+01	-5.408240e+00
1.884246e+01	-5.444050e+00
1.895129e+01	-5.479859e+00
1.906075e+01	-5.515746e+00
1.917085e+01	-5.551628e+00
1.928158e+01	-5.587915e+00
1.939295e+01	-5.624103e+00
1.950496e+01	-5.660195e+00
1.961762e+01	-5.697160e+00
1.973093e+01	-5.733532e+00
1.984490e+01	-5.770288e+00
1.995952e+01	-5.807535e+00
2.007480e+01	-5.844068e+00
2.019076e+01	-5.881426e+00
2.030738e+01	-5.918531e+00
2.042467e+01	-5.955725e+00
2.054264e+01	-5.993140e+00
2.066130e+01	-6.030567e+00
2.078064e+01	-6.068409e+00
2.090066e+01	-6.105779e+00
2.102139e+01	-6.143208e+00
2.114280e+01	-6.181893e+00
2.126492e+01	-6.219504e+00
2.138775e+01	-6.257939e+00
2.151128e+01	-6.296303e+00
2.163553e+01	-6.334690e+00
2.176050e+01	-6.372682e+00
2.188619e+01	-6.411215e+00
2.201260e+01	-6.449904e+00
2.213974e+01	-6.488812e+00
2.226762e+01	-6.527887e+00
2.239624e+01	-6.566498e+00
2.252560e+01	-6.605565e+00
2.265571e+01	-6.644723e+00
2.278656e+01	-6.683999e+00
2.291818e+01	-6.723288e+00
2.305055e+01	-6.762908e+00
2.318369e+01	-6.802135e+00
2.331760e+01	-6.841507e+00
2.345228e+01	-6.881837e+00
2.358774e+01	-6.921365e+00
2.372398e+01	-6.961218e+00
2.386101e+01	-7.001552e+00
2.399883e+01	-7.041199e+00
2.413745e+01	-7.081783e+00
2.427686e+01	-7.121225e+00
2.441709e+01	-7.162146e+00
2.455812e+01	-7.202760e+00
2.469997e+01	-7.243396e+00
2.484263e+01	-7.284320e+00
2.498612e+01	-7.324486e+00
2.513044e+01	-7.365680e+00
2.527559e+01	-7.406779e+00
2.542158e+01	-7.447639e+00
2.556842e+01	-7.488567e+00
2.571610e+01	-7.529634e+00
2.586463e+01	-7.570849e+00
2.601403e+01	-7.611709e+00
2.616428e+01	-7.653779e+00
2.631541e+01	-7.695083e+00
2.646740e+01	-7.736584e+00
2.662028e+01	-7.778057e+00
2.677404e+01	-7.819628e+00
2.692868e+01	-7.861607e+00
2.708422e+01	-7.903475e+00
2.724066e+01	-7.945488e+00
2.739800e+01	-7.987677e+00
2.755625e+01	-8.029737e+00
2.771541e+01	-8.072120e+00
2.787550e+01	-8.114211e+00
2.803650e+01	-8.156566e+00
2.819844e+01	-8.198925e+00
2.836131e+01	-8.241349e+00
2.852513e+01	-8.283767e+00
2.868989e+01	-8.326330e+00
2.885560e+01	-8.369549e+00
2.902227e+01	-8.411716e+00
2.918990e+01	-8.454982e+00
2.935850e+01	-8.497771e+00
2.952807e+01	-8.540796e+00
2.969863e+01	-8.583759e+00
2.987016e+01	-8.626896e+00
3.004269e+01	-8.670613e+00
3.021622e+01	-8.713575e+00
3.039075e+01	-8.756838e+00
3.056628e+01	-8.799907e+00
3.074283e+01	-8.843312e+00
3.092040e+01	-8.887411e+00
3.109900e+01	-8.931118e+00
3.127862e+01	-8.974667e+00
3.145929e+01	-9.017932e+00
3.164099e+01	-9.062226e+00
3.182375e+01	-9.105805e+00
3.200756e+01	-9.149881e+00
3.219244e+01	-9.193496e+00
3.237838e+01	-9.237580e+00
3.256540e+01	-9.281842e+00
3.275349e+01	-9.326053e+00
3.294268e+01	-9.370194e+00
3.313295e+01	-9.414466e+00
3.332433e+01	-9.458754e+00
3.351681e+01	-9.503491e+00
3.371040e+01	-9.547363e+00
3.390511e+01	-9.592336e+00
3.410094e+01	-9.636993e+00
3.429791e+01	-9.681186e+00
3.449601e+01	-9.725960e+00
3.469526e+01	-9.770866e+00
3.489566e+01	-9.815658e+00
3.509721e+01	-9.860454e+00
3.529993e+01	-9.904909e+00
3.550382e+01	-9.949814e+00
3.570889e+01	-9.994804e+00
3.591515e+01	-1.003989e+01
3.612259e+01	-1.008530e+01
3.633123e+01	-1.013048e+01
3.654108e+01	-1.017570e+01
3.675214e+01	-1.022092e+01
3.696442e+01	-1.026638e+01
3.717792e+01	-1.031164e+01
3.739266e+01	-1.035658e+01
3.760864e+01	-1.040250e+01
3.782587e+01	-1.044813e+01
3.804435e+01	-1.049285e+01
3.826409e+01	-1.053860e+01
3.848510e+01	-1.058436e+01
3.870739e+01	-1.063017e+01
3.893096e+01	-1.067586e+01
3.915583e+01	-1.072133e+01
3.938199e+01	-1.076742e+01
3.960946e+01	-1.081414e+01
3.983824e+01	-1.085929e+01
4.006834e+01	-1.090531e+01
4.029978e+01	-1.095125e+01
4.053255e+01	-1.099704e+01
4.076666e+01	-1.104329e+01
4.100213e+01	-1.108953e+01
4.123896e+01	-1.113600e+01
4.147715e+01	-1.118209e+01
4.171672e+01	-1.122819e+01
4.195767e+01	-1.127431e+01
4.220002e+01	-1.132025e+01
4.244377e+01	-1.136641e+01
4.268892e+01	-1.141359e+01
4.293549e+01	-1.145926e+01
4.318348e+01	-1.150643e+01
4.343291e+01	-1.155292e+01
4.368377e+01	-1.159925e+01
4.393609e+01	-1.164599e+01
4.418986e+01	-1.169276e+01
4.444510e+01	-1.173962e+01
4.470182e+01	-1.178596e+01
4.496001e+01	-1.183337e+01
4.521970e+01	-1.187974e+01
4.548089e+01	-1.192673e+01
4.574358e+01	-1.197292e+01
4.600779e+01	-1.202047e+01
4.627353e+01	-1.206652e+01
4.654081e+01	-1.211357e+01
4.680963e+01	-1.216066e+01
4.708000e+01	-1.220771e+01
4.735193e+01	-1.225490e+01
4.762543e+01	-1.230215e+01
4.790051e+01	-1.234877e+01
4.817719e+01	-1.239628e+01
4.845545e+01	-1.244362e+01
4.873533e+01	-1.249082e+01
4.901682e+01	-1.253781e+01
4.929994e+01	-1.258431e+01
4.958470e+01	-1.263181e+01
4.987110e+01	-1.267959e+01
5.015915e+01	-1.272697e+01
5.044887e+01	-1.277364e+01
5.074026e+01	-1.282251e+01
5.103333e+01	-1.286881e+01
5.132810e+01	-1.291596e+01
5.162457e+01	-1.296419e+01
5.192275e+01	-1.301056e+01
5.222265e+01	-1.305877e+01
5.252429e+01	-1.310537e+01
5.282767e+01	-1.315407e+01
5.313280e+01	-1.320212e+01
5.343969e+01	-1.324956e+01
5.374836e+01	-1.329772e+01
5.405880e+01	-1.334443e+01
5.437105e+01	-1.339266e+01
5.468509e+01	-1.344052e+01
5.500095e+01	-1.348790e+01
5.531863e+01	-1.353587e+01
5.563815e+01	-1.358292e+01
5.595951e+01	-1.363160e+01
5.628273e+01	-1.367937e+01
5.660782e+01	-1.372765e+01
5.693479e+01	-1.377465e+01
5.726364e+01	-1.382322e+01
5.759439e+01	-1.387152e+01
5.792705e+01	-1.391878e+01
5.826164e+01	-1.396783e+01
5.859815e+01	-1.401434e+01
5.893662e+01	-1.406357e+01
5.927703e+01	-1.411087e+01
5.961941e+01	-1.415918e+01
5.996377e+01	-1.420724e+01
6.031012e+01	-1.425521e+01
6.065847e+01	-1.430352e+01
6.100883e+01	-1.435162e+01
6.136121e+01	-1.440019e+01
6.171563e+01	-1.444799e+01
6.207210e+01	-1.449693e+01
6.243063e+01	-1.454521e+01
6.279122e+01	-1.459291e+01
6.315390e+01	-1.464143e+01
6.351868e+01	-1.468924e+01
6.388556e+01	-1.473829e+01
6.425456e+01	-1.478739e+01
6.462569e+01	-1.483454e+01
6.499897e+01	-1.488330e+01
6.537440e+01	-1.493223e+01
6.575200e+01	-1.498001e+01
6.613178e+01	-1.502851e+01
6.651375e+01	-1.507642e+01
6.689793e+01	-1.512481e+01
6.728433e+01	-1.517377e+01
6.767297e+01	-1.522307e+01
6.806384e+01	-1.527013e+01
6.845698e+01	-1.531983e+01
6.885238e+01	-1.536743e+01
6.925007e+01	-1.541662e+01
6.965005e+01	-1.546496e+01
7.005235e+01	-1.551398e+01
7.045697e+01	-1.556161e+01
7.086393e+01	-1.561159e+01
7.127323e+01	-1.565984e+01
7.168490e+01	-1.570924e+01
7.209895e+01	-1.575775e+01
7.251539e+01	-1.580765e+01
7.293424e+01	-1.585466e+01
7.335551e+01	-1.590469e+01
7.377920e+01	-1.595314e+01
7.420535e+01	-1.600125e+01
7.463396e+01	-1.605033e+01
7.506504e+01	-1.609906e+01
7.549861e+01	-1.614722e+01
7.593469e+01	-1.619564e+01
7.637328e+01	-1.624524e+01
7.681441e+01	-1.629384e+01
7.725809e+01	-1.634254e+01
7.770433e+01	-1.639140e+01
7.815315e+01	-1.644100e+01
7.860456e+01	-1.648783e+01
7.905857e+01	-1.653848e+01
7.951521e+01	-1.658771e+01
7.997449e+01	-1.663589e+01
8.043642e+01	-1.668440e+01
8.090102e+01	-1.673241e+01
8.136830e+01	-1.678260e+01
8.183828e+01	-1.683132e+01
8.231097e+01	-1.688089e+01
8.278640e+01	-1.693070e+01
8.326457e+01	-1.697927e+01
8.374550e+01	-1.702784e+01
8.422921e+01	-1.707804e+01
8.471572e+01	-1.712665e+01
8.520503e+01	-1.717606e+01
8.569717e+01	-1.722371e+01
8.619215e+01	-1.727426e+01
8.669000e+01	-1.732276e+01
8.719071e+01	-1.737189e+01
8.769432e+01	-1.742013e+01
8.820084e+01	-1.747015e+01
8.871029e+01	-1.751867e+01
8.922267e+01	-1.756863e+01
8.973802e+01	-1.761702e+01
9.025634e+01	-1.766618e+01
9.077766e+01	-1.771522e+01
9.130199e+01	-1.776480e+01
9.182935e+01	-1.781479e+01
9.235975e+01	-1.786296e+01
9.289321e+01	-1.791254e+01
9.342976e+01	-1.796112e+01
9.396941e+01	-1.801164e+01
9.451217e+01	-1.806097e+01
9.505807e+01	-1.810932e+01
9.560712e+01	-1.815813e+01
9.615934e+01	-1.820685e+01
9.671476e+01	-1.825677e+01
9.727338e+01	-1.830767e+01
9.783522e+01	-1.835586e+01
9.840032e+01	-1.840452e+01
9.896867e+01	-1.845510e+01
9.954031e+01	-1.850455e+01
1.001153e+02	-1.855368e+01
1.006935e+02	-1.860157e+01
1.012751e+02	-1.865185e+01
1.018601e+02	-1.870064e+01
1.024484e+02	-1.875022e+01
1.030402e+02	-1.879871e+01
1.036353e+02	-1.884868e+01
1.042339e+02	-1.889694e+01
1.048360e+02	-1.894795e+01
1.054415e+02	-1.899712e+01
1.060505e+02	-1.904630e+01
1.066631e+02	-1.909546e+01
1.072791e+02	-1.914518e+01
1.078988e+02	-1.919552e+01
1.085220e+02	-1.924344e+01
1.091488e+02	-1.929352e+01
1.097793e+02	-1.934380e+01
1.104133e+02	-1.939232e+01
1.110511e+02	-1.944291e+01
1.116925e+02	-1.949292e+01
1.123376e+02	-1.954127e+01
1.129865e+02	-1.959131e+01
1.136391e+02	-1.964154e+01
1.142955e+02	-1.968891e+01
1.149556e+02	-1.973871e+01
1.156196e+02	-1.978856e+01
1.162874e+02	-1.983765e+01
1.169591e+02	-1.988825e+01
1.176347e+02	-1.993745e+01
1.183141e+02	-1.998702e+01
1.189975e+02	-2.003639e+01
1.196848e+02	-2.008648e+01
1.203761e+02	-2.013516e+01
1.210714e+02	-2.018506e+01
1.217707e+02	-2.023448e+01
1.224740e+02	-2.028458e+01
1.231814e+02	-2.033411e+01
1.238929e+02	-2.038341e+01
1.246085e+02	-2.043205e+01
1.253283e+02	-2.048127e+01
1.260522e+02	-2.053097e+01
1.267802e+02	-2.058090e+01
1.275125e+02	-2.063034e+01
1.282490e+02	-2.068185e+01
1.289898e+02	-2.072976e+01
1.297348e+02	-2.078037e+01
1.304842e+02	-2.082961e+01
1.312378e+02	-2.088146e+01
1.319959e+02	-2.092845e+01
1.327583e+02	-2.097849e+01
1.335251e+02	-2.102895e+01
1.342963e+02	-2.107788e+01
1.350720e+02	-2.112825e+01
1.358522e+02	-2.117743e+01
1.366368e+02	-2.122612e+01
1.374260e+02	-2.127540e+01
1.382198e+02	-2.132693e+01
1.390182e+02	-2.137471e+01
1.398211e+02	-2.142608e+01
1.406287e+02	-2.147518e+01
1.414410e+02	-2.152485e+01
1.422579e+02	-2.157457e+01
1.430796e+02	-2.162415e+01
1.439060e+02	-2.167354e+01
1.447372e+02	-2.172298e+01
1.455732e+02	-2.177424e+01
1.464141e+02	-2.182348e+01
1.472597e+02	-2.187325e+01
1.481103e+02	-2.192201e+01
1.489658e+02	-2.197128e+01
1.498262e+02	-2.202304e+01
1.506916e+02	-2.207261e+01
1.515620e+02	-2.212105e+01
1.524374e+02	-2.217183e+01
1.533179e+02	-2.222026e+01
1.542034e+02	-2.227091e+01
1.550941e+02	-2.232267e+01
1.559899e+02	-2.237038e+01
1.568909e+02	-2.241933e+01
1.577971e+02	-2.247079e+01
1.587085e+02	-2.251979e+01
1.596252e+02	-2.256893e+01
1.605472e+02	-2.261893e+01
1.614745e+02	-2.266793e+01
1.624072e+02	-2.271911e+01
1.633453e+02	-2.276955e+01
1.642887e+02	-2.281584e+01
1.652377e+02	-2.286875e+01
1.661921e+02	-2.291903e+01
1.671520e+02	-2.296734e+01
1.681175e+02	-2.301668e+01
1.690885e+02	-2.306500e+01
1.700651e+02	-2.311895e+01
1.710474e+02	-2.316722e+01
1.720354e+02	-2.321495e+01
1.730291e+02	-2.326675e+01
1.740285e+02	-2.331517e+01
1.750337e+02	-2.336656e+01
1.760446e+02	-2.341620e+01
1.770615e+02	-2.346556e+01
1.780842e+02	-2.351398e+01
1.791128e+02	-2.356625e+01
1.801473e+02	-2.361640e+01
1.811878e+02	-2.366444e+01
1.822344e+02	-2.371562e+01
1.832870e+02	-2.376539e+01
1.843456e+02	-2.381575e+01
1.854104e+02	-2.386465e+01
1.864813e+02	-2.391414e+01
1.875584e+02	-2.396673e+01
1.886418e+02	-2.401280e+01
1.897313e+02	-2.406036e+01
1.908272e+02	-2.411364e+01
1.919294e+02	-2.416385e+01
1.930380e+02	-2.421442e+01
1.941530e+02	-2.426350e+01
1.952744e+02	-2.431269e+01
1.964023e+02	-2.436246e+01
1.975367e+02	-2.441451e+01
1.986777e+02	-2.446175e+01
1.998252e+02	-2.451381e+01
2.009794e+02	-2.456212e+01
2.021403e+02	-2.461179e+01
2.033078e+02	-2.466492e+01
2.044821e+02	-2.471160e+01
2.056632e+02	-2.476195e+01
2.068511e+02	-2.481169e+01
2.080459e+02	-2.486120e+01
2.092475e+02	-2.491021e+01
2.104561e+02	-2.496150e+01
2.116717e+02	-2.501393e+01
2.128943e+02	-2.506362e+01
2.141240e+02	-2.511424e+01
2.153608e+02	-2.516082e+01
2.166047e+02	-2.521286e+01
2.178558e+02	-2.526191e+01
2.191141e+02	-2.531358e+01
2.203797e+02	-2.535599e+01
2.216526e+02	-2.540880e+01
2.229329e+02	-2.545787e+01
2.242205e+02	-2.551144e+01
2.255156e+02	-2.556091e+01
2.268182e+02	-2.560898e+01
2.281283e+02	-2.565971e+01
2.294459e+02	-2.571086e+01
2.307712e+02	-2.575957e+01
2.321041e+02	-2.580926e+01
2.334447e+02	-2.586009e+01
2.347931e+02	-2.591091e+01
2.361493e+02	-2.595899e+01
2.375133e+02	-2.600909e+01
2.388851e+02	-2.605982e+01
2.402649e+02	-2.610978e+01
2.416527e+02	-2.616093e+01
2.430484e+02	-2.621104e+01
2.444523e+02	-2.626270e+01
2.458642e+02	-2.631010e+01
2.472843e+02	-2.635953e+01
2.487126e+02	-2.640912e+01
2.501492e+02	-2.646125e+01
2.515940e+02	-2.651177e+01
2.530472e+02	-2.656094e+01
2.545088e+02	-2.660879e+01
2.559789e+02	-2.666031e+01
2.574574e+02	-2.670926e+01
2.589444e+02	-2.676197e+01
2.604401e+02	-2.680864e+01
2.619444e+02	-2.686094e+01
2.634574e+02	-2.690769e+01
2.649791e+02	-2.696006e+01
2.665096e+02	-2.701491e+01
2.680489e+02	-2.706054e+01
2.695972e+02	-2.711120e+01
2.711544e+02	-2.716012e+01
2.727205e+02	-2.721481e+01
2.742958e+02	-2.726063e+01
2.758801e+02	-2.730940e+01
2.774736e+02	-2.736072e+01
2.790762e+02	-2.741087e+01
2.806882e+02	-2.746036e+01
2.823094e+02	-2.750710e+01
2.839400e+02	-2.756053e+01
2.855800e+02	-2.760738e+01
2.872295e+02	-2.765737e+01
2.888886e+02	-2.770791e+01
2.905572e+02	-2.775895e+01
2.922354e+02	-2.780738e+01
2.939234e+02	-2.785708e+01
2.956211e+02	-2.790939e+01
2.973286e+02	-2.795599e+01
2.990459e+02	-2.801011e+01
3.007732e+02	-2.805996e+01
3.025104e+02	-2.810947e+01
3.042577e+02	-2.815768e+01
3.060151e+02	-2.820975e+01
3.077826e+02	-2.826004e+01
3.095604e+02	-2.831044e+01
3.113484e+02	-2.836017e+01
3.131467e+02	-2.840781e+01
3.149554e+02	-2.845728e+01
3.167746e+02	-2.850589e+01
3.186043e+02	-2.856084e+01
3.204445e+02	-2.860669e+01
3.222954e+02	-2.865827e+01
3.241570e+02	-2.871444e+01
3.260293e+02	-2.876021e+01
3.279124e+02	-2.880800e+01
3.298064e+02	-2.885947e+01
3.317114e+02	-2.891426e+01
3.336273e+02	-2.895676e+01
3.355544e+02	-2.901114e+01
3.374925e+02	-2.905803e+01
3.394418e+02	-2.910560e+01
3.414024e+02	-2.916188e+01
3.433744e+02	-2.921240e+01
3.453577e+02	-2.925519e+01
3.473525e+02	-2.931488e+01
3.493588e+02	-2.935821e+01
3.513766e+02	-2.940794e+01
3.534062e+02	-2.946162e+01
3.554474e+02	-2.951145e+01
3.575005e+02	-2.956318e+01
3.595654e+02	-2.961254e+01
3.616422e+02	-2.966359e+01
3.637311e+02	-2.971433e+01
3.658320e+02	-2.975923e+01
3.679450e+02	-2.981145e+01
3.700702e+02	-2.986001e+01
3.722077e+02	-2.991224e+01
3.743576e+02	-2.996042e+01
3.765199e+02	-3.001204e+01
3.786946e+02	-3.006458e+01
3.808820e+02	-3.011267e+01
3.830819e+02	-3.015878e+01
3.852946e+02	-3.021203e+01
3.875200e+02	-3.026489e+01
3.897583e+02	-3.031206e+01
3.920096e+02	-3.036176e+01
3.942738e+02	-3.041275e+01
3.965511e+02	-3.046016e+01
3.988416e+02	-3.051567e+01
4.011452e+02	-3.056272e+01
4.034622e+02	-3.061230e+01
4.057926e+02	-3.066582e+01
4.081365e+02	-3.070967e+01
4.104938e+02	-3.076123e+01
4.128648e+02	-3.080886e+01
4.152495e+02	-3.086454e+01
4.176480e+02	-3.091280e+01
4.200603e+02	-3.096590e+01
4.224866e+02	-3.101915e+01
4.249268e+02	-3.106304e+01
4.273812e+02	-3.111700e+01
4.298497e+02	-3.116268e+01
4.323325e+02	-3.122094e+01
4.348297e+02	-3.126261e+01
4.373412e+02	-3.131248e+01
4.398673e+02	-3.136782e+01
4.424079e+02	-3.141719e+01
4.449633e+02	-3.146326e+01
4.475334e+02	-3.151286e+01
4.501183e+02	-3.157286e+01
4.527182e+02	-3.161996e+01
4.553330e+02	-3.167059e+01
4.579630e+02	-3.171968e+01
4.606082e+02	-3.177307e+01
4.632687e+02	-3.182067e+01
4.659445e+02	-3.186375e+01
4.686358e+02	-3.191904e+01
4.713426e+02	-3.196746e+01
4.740650e+02	-3.201805e+01
4.768032e+02	-3.206716e+01
4.795572e+02	-3.212376e+01
4.823271e+02	-3.216606e+01
4.851130e+02	-3.221998e+01
4.879150e+02	-3.227547e+01
4.907332e+02	-3.231779e+01
4.935676e+02	-3.236921e+01
4.964185e+02	-3.242154e+01
4.992858e+02	-3.246487e+01
5.021696e+02	-3.252293e+01
5.050701e+02	-3.256927e+01
5.079874e+02	-3.261901e+01
5.109215e+02	-3.266767e+01
5.138726e+02	-3.272240e+01
5.168407e+02	-3.276895e+01
5.198259e+02	-3.282167e+01
5.228284e+02	-3.287592e+01
5.258482e+02	-3.292410e+01
5.288855e+02	-3.296458e+01
5.319403e+02	-3.302703e+01
5.350128e+02	-3.307443e+01
5.381030e+02	-3.312188e+01
5.412111e+02	-3.316939e+01
5.443371e+02	-3.321700e+01
5.474812e+02	-3.327457e+01
5.506434e+02	-3.332411e+01
5.538239e+02	-3.337408e+01
5.570228e+02	-3.342100e+01
5.602401e+02	-3.347532e+01
5.634760e+02	-3.352741e+01
5.667306e+02	-3.357559e+01
5.700040e+02	-3.362526e+01
5.732964e+02	-3.367169e+01
5.766077e+02	-3.372782e+01
5.799382e+02	-3.378873e+01
5.832879e+02	-3.382792e+01
5.866569e+02	-3.387459e+01
5.900454e+02	-3.392254e+01
5.934535e+02	-3.397183e+01
5.968813e+02	-3.402232e+01
6.003288e+02	-3.407615e+01
6.037963e+02	-3.413059e+01
6.072838e+02	-3.418122e+01
6.107914e+02	-3.423183e+01
6.143194e+02	-3.428658e+01
6.178676e+02	-3.433454e+01
6.214364e+02	-3.437894e+01
6.250258e+02	-3.443913e+01
6.286359e+02	-3.449135e+01
6.322669e+02	-3.452905e+01
6.359189e+02	-3.457877e+01
6.395919e+02	-3.463076e+01
6.432862e+02	-3.467393e+01
6.470017e+02	-3.472872e+01
6.507388e+02	-3.478776e+01
6.544974e+02	-3.483426e+01
6.582778e+02	-3.488705e+01
6.620800e+02	-3.494104e+01
6.659041e+02	-3.497615e+01
6.697504e+02	-3.503709e+01
6.736188e+02	-3.509589e+01
6.775096e+02	-3.514300e+01
6.814229e+02	-3.519396e+01
6.853587e+02	-3.524043e+01
6.893173e+02	-3.529600e+01
6.932988e+02	-3.534172e+01
6.973033e+02	-3.538275e+01
7.013309e+02	-3.544536e+01
