Frequency(Hz)	Magnitude(dB)
1.000000e+01	-2.157889e+00
1.005776e+01	-2.177290e+00
1.011585e+01	-2.197300e+00
1.017428e+01	-2.217025e+00
1.023305e+01	-2.237210e+00
1.029215e+01	-2.257352e+00
1.035160e+01	-2.277704e+00
1.041139e+01	-2.298091e+00
1.047153e+01	-2.318691e+00
1.053201e+01	-2.339894e+00
1.059284e+01	-2.360547e+00
1.065403e+01	-2.381657e+00
1.071556e+01	-2.402774e+00
1.077746e+01	-2.424181e+00
1.083971e+01	-2.445600e+00
1.090232e+01	-2.467313e+00
1.096529e+01	-2.489024e+00
1.102862e+01	-2.510955e+00
1.109232e+01	-2.532875e+00
1.115639e+01	-2.554982e+00
1.122083e+01	-2.577797e+00
1.128564e+01	-2.599862e+00
1.135083e+01	-2.622598e+00
1.141639e+01	-2.645300e+00
1.148233e+01	-2.668185e+00
1.154865e+01	-2.691223e+00
1.161536e+01	-2.714434e+00
1.168245e+01	-2.737765e+00
1.174992e+01	-2.761075e+00
1.181779e+01	-2.784946e+00
1.188605e+01	-2.808551e+00
1.195470e+01	-2.832378e+00
1.202375e+01	-2.856481e+00
1.209320e+01	-2.880353e+00
1.216305e+01	-2.904820e+00
1.223330e+01	-2.929164e+00
1.230396e+01	-2.953994e+00
1.237503e+01	-2.978910e+00
1.244651e+01	-3.003736e+00
1.251840e+01	-3.028726e+00
1.259070e+01	-3.053787e+00
1.266343e+01	-3.079462e+00
1.273657e+01	-3.104659e+00
1.281014e+01	-3.130288e+00
1.288413e+01	-3.155934e+00
1.295855e+01	-3.181789e+00
1.303339e+01	-3.208017e+00
1.310867e+01	-3.234350e+00
1.318439e+01	-3.260740e+00
1.326054e+01	-3.287105e+00
1.333713e+01	-3.313657e+00
1.341417e+01	-3.340320e+00
1.349165e+01	-3.367579e+00
1.356958e+01	-3.394409e+00
1.364795e+01	-3.421821e+00
1.372678e+01	-3.449187e+00
1.380607e+01	-3.476314e+00
1.388581e+01	-3.504226e+00
1.396602e+01	-3.531945e+00
1.404668e+01	-3.559951e+00
1.412782e+01	-3.587876e+00
1.420942e+01	-3.616088e+00
1.429149e+01	-3.644281e+00
1.437404e+01	-3.672853e+00
1.445706e+01	-3.701233e+00
1.454057e+01	-3.730349e+00
1.462455e+01	-3.759161e+00
1.470902e+01	-3.788130e+00
1.479398e+01	-3.817444e+00
1.487943e+01	-3.846911e+00
1.496537e+01	-3.876352e+00
1.505181e+01	-3.905561e+00
1.513875e+01	-3.935603e+00
1.522619e+01	-3.965392e+00
1.531414e+01	-3.995213e+00
1.540259e+01	-4.025555e+00
1.549156e+01	-4.055959e+00
1.558103e+01	-4.086340e+00
1.567103e+01	-4.117005e+00
1.576155e+01	-4.147655e+00
1.585258e+01	-4.178426e+00
1.594415e+01	-4.209688e+00
1.603624e+01	-4.240554e+00
1.612886e+01	-4.271543e+00
1.622202e+01	-4.303195e+00
1.631572e+01	-4.334589e+00
1.640996e+01	-4.366551e+00
1.650474e+01	-4.398342e+00
1.660008e+01	-4.429839e+00
1.669596e+01	-4.462059e+00
1.679239e+01	-4.494322e+00
1.688938e+01	-4.526542e+00
1.698694e+01	-4.558950e+00
1.708505e+01	-4.591619e+00
1.718373e+01	-4.624226e+00
1.728299e+01	-4.657079e+00
1.738281e+01	-4.690015e+00
1.748322e+01	-4.723801e+00
1.758420e+01	-4.756392e+00
1.768576e+01	-4.789816e+00
1.778792e+01	-4.823351e+00
1.789066e+01	-4.857123e+00
1.799399e+01	-4.890847e+00
1.809793e+01	-4.924585e+00
1.820246e+01	-4.958502e+00
1.830760e+01	-4.992465e+00
1.841334e+01	-5.026858e+00
1.851969e+01	-5.061147e+00
1.862666e+01	-5.096069e+00
1.873425e+01	-5.130174e+00
1.884246e+01	-5.164959e+00
1.895129e+01	-5.200007e+00
1.906075e+01	-5.235116e+00
1.917085e+01	-5.270201e+00
1.928158e+01	-5.305158e+00
1.939295e+01	-5.340716e+00
1.950496e+01	-5.376067e+00
1.961762e+01	-5.411815e+00
1.973093e+01	-5.447109e+00
1.984490e+01	-5.483182e+00
1.995952e+01	-5.518502e+00
2.007480e+01	-5.555218e+00
2.019076e+01	-5.591483e+00
2.030738e+01	-5.627425e+00
2.042467e+01	-5.664022e+00
2.054264e+01	-5.700450e+00
2.066130e+01	-5.737037e+00
2.078064e+01	-5.773722e+00
2.090066e+01	-5.810694e+00
2.102139e+01	-5.847155e+00
2.114280e+01	-5.884707e+00
2.126492e+01	-5.921599e+00
2.138775e+01	-5.959330e+00
2.151128e+01	-5.996481e+00
2.163553e+01	-6.033976e+00
2.176050e+01	-6.071812e+00
2.188619e+01	-6.109390e+00
2.201260e+01	-6.147051e+00
2.213974e+01	-6.185051e+00
2.226762e+01	-6.223091e+00
2.239624e+01	-6.261432e+00
2.252560e+01	-6.299294e+00
2.265571e+01	-6.337769e+00
2.278656e+01	-6.376462e+00
2.291818e+01	-6.414878e+00
2.305055e+01	-6.453641e+00
2.318369e+01	-6.492596e+00
2.331760e+01	-6.531104e+00
2.345228e+01	-6.570203e+00
2.358774e+01	-6.609381e+00
2.372398e+01	-6.648778e+00
2.386101e+01	-6.687628e+00
2.399883e+01	-6.726936e+00
2.413745e+01	-6.766438e+00
2.427686e+01	-6.805741e+00
2.441709e+01	-6.845421e+00
2.455812e+01	-6.885579e+00
2.469997e+01	-6.925067e+00
2.484263e+01	-6.964986e+00
2.498612e+01	-7.004787e+00
2.513044e+01	-7.045305e+00
2.527559e+01	-7.085362e+00
2.542158e+01	-7.125656e+00
2.556842e+01	-7.166205e+00
2.571610e+01	-7.206596e+00
2.586463e+01	-7.247004e+00
2.601403e+01	-7.287770e+00
2.616428e+01	-7.328678e+00
2.631541e+01	-7.369508e+00
2.646740e+01	-7.410035e+00
2.662028e+01	-7.450948e+00
2.677404e+01	-7.491918e+00
2.692868e+01	-7.533353e+00
2.708422e+01	-7.574217e+00
2.724066e+01	-7.616081e+00
2.739800e+01	-7.657334e+00
2.755625e+01	-7.698933e+00
2.771541e+01	-7.740237e+00
2.787550e+01	-7.781818e+00
2.803650e+01	-7.824082e+00
2.819844e+01	-7.865381e+00
2.836131e+01	-7.907662e+00
2.852513e+01	-7.949180e+00
2.868989e+01	-7.991683e+00
2.885560e+01	-8.033538e+00
2.902227e+01	-8.075721e+00
2.918990e+01	-8.118205e+00
2.935850e+01	-8.159990e+00
2.952807e+01	-8.203044e+00
2.969863e+01	-8.244934e+00
2.987016e+01	-8.287368e+00
3.004269e+01	-8.330021e+00
3.021622e+01	-8.373459e+00
3.039075e+01	-8.415881e+00
3.056628e+01	-8.458764e+00
3.074283e+01	-8.501844e+00
3.092040e+01	-8.544798e+00
3.109900e+01	-8.587620e+00
3.127862e+01	-8.630608e+00
3.145929e+01	-8.674357e+00
3.164099e+01	-8.717227e+00
3.182375e+01	-8.760950e+00
3.200756e+01	-8.804369e+00
3.219244e+01	-8.847780e+00
3.237838e+01	-8.891556e+00
3.256540e+01	-8.934496e+00
3.275349e+01	-8.978680e+00
3.294268e+01	-9.021972e+00
3.313295e+01	-9.065344e+00
3.332433e+01	-9.110295e+00
3.351681e+01	-9.153831e+00
3.371040e+01	-9.197513e+00
3.390511e+01	-9.241706e+00
3.410094e+01	-9.285870e+00
3.429791e+01	-9.330012e+00
3.449601e+01	-9.374050e+00
3.469526e+01	-9.418837e+00
3.489566e+01	-9.462509e+00
3.509721e+01	-9.507003e+00
3.529993e+01	-9.552175e+00
3.550382e+01	-9.596093e+00
3.570889e+01	-9.640471e+00
3.591515e+01	-9.685126e+00
3.612259e+01	-9.729826e+00
3.633123e+01	-9.775223e+00
3.654108e+01	-9.819665e+00
3.675214e+01	-9.864110e+00
3.696442e+01	-9.909588e+00
3.717792e+01	-9.954394e+00
3.739266e+01	-9.999038e+00
3.760864e+01	-1.004426e+01
3.782587e+01	-1.008966e+01
3.804435e+01	-1.013414e+01
3.826409e+01	-1.018003e+01
3.848510e+01	-1.022536e+01
3.870739e+01	-1.027002e+01
3.893096e+01	-1.031552e+01
3.915583e+01	-1.036113e+01
3.938199e+01	-1.040592e+01
3.960946e+01	-1.045157e+01
3.983824e+01	-1.049712e+01
4.006834e+01	-1.054330e+01
4.029978e+01	-1.058853e+01
4.053255e+01	-1.063468e+01
4.076666e+01	-1.068038e+01
4.100213e+01	-1.072625e+01
4.123896e+01	-1.077178e+01
4.147715e+01	-1.081733e+01
4.171672e+01	-1.086390e+01
4.195767e+01	-1.090931e+01
4.220002e+01	-1.095492e+01
4.244377e+01	-1.100162e+01
4.268892e+01	-1.104754e+01
4.293549e+01	-1.109411e+01
4.318348e+01	-1.114006e+01
4.343291e+01	-1.118583e+01
4.368377e+01	-1.123237e+01
4.393609e+01	-1.127820e+01
4.418986e+01	-1.132440e+01
4.444510e+01	-1.137126e+01
4.470182e+01	-1.141712e+01
4.496001e+01	-1.146441e+01
4.521970e+01	-1.151079e+01
4.548089e+01	-1.155711e+01
4.574358e+01	-1.160307e+01
4.600779e+01	-1.165044e+01
4.627353e+01	-1.169690e+01
4.654081e+01	-1.174300e+01
4.680963e+01	-1.179011e+01
4.708000e+01	-1.183663e+01
4.735193e+01	-1.188336e+01
4.762543e+01	-1.193045e+01
4.790051e+01	-1.197746e+01
4.817719e+01	-1.202447e+01
4.845545e+01	-1.207152e+01
4.873533e+01	-1.211788e+01
4.901682e+01	-1.216486e+01
4.929994e+01	-1.221234e+01
4.958470e+01	-1.225937e+01
4.987110e+01	-1.230590e+01
5.015915e+01	-1.235325e+01
5.044887e+01	-1.240021e+01
5.074026e+01	-1.244704e+01
5.103333e+01	-1.249459e+01
5.132810e+01	-1.254156e+01
5.162457e+01	-1.258908e+01
5.192275e+01	-1.263625e+01
5.222265e+01	-1.268358e+01
5.252429e+01	-1.273114e+01
5.282767e+01	-1.277877e+01
5.313280e+01	-1.282502e+01
5.343969e+01	-1.287326e+01
5.374836e+01	-1.292096e+01
5.405880e+01	-1.296856e+01
5.437105e+01	-1.301557e+01
5.468509e+01	-1.306296e+01
5.500095e+01	-1.311102e+01
5.531863e+01	-1.315847e+01
5.563815e+01	-1.320652e+01
5.595951e+01	-1.325400e+01
5.628273e+01	-1.330160e+01
5.660782e+01	-1.334884e+01
5.693479e+01	-1.339717e+01
5.726364e+01	-1.344386e+01
5.759439e+01	-1.349261e+01
5.792705e+01	-1.353954e+01
5.826164e+01	-1.358738e+01
5.859815e+01	-1.363621e+01
5.893662e+01	-1.368379e+01
5.927703e+01	-1.373171e+01
5.961941e+01	-1.377980e+01
5.996377e+01	-1.382726e+01
6.031012e+01	-1.387592e+01
6.065847e+01	-1.392402e+01
6.100883e+01	-1.397148e+01
6.136121e+01	-1.401987e+01
6.171563e+01	-1.406779e+01
6.207210e+01	-1.411586e+01
6.243063e+01	-1.416365e+01
6.279122e+01	-1.421174e+01
6.315390e+01	-1.426012e+01
6.351868e+01	-1.430807e+01
6.388556e+01	-1.435737e+01
6.425456e+01	-1.440431e+01
6.462569e+01	-1.445171e+01
6.499897e+01	-1.450146e+01
6.537440e+01	-1.454901e+01
6.575200e+01	-1.459732e+01
6.613178e+01	-1.464562e+01
6.651375e+01	-1.469482e+01
6.689793e+01	-1.474178e+01
6.728433e+01	-1.479025e+01
6.767297e+01	-1.483965e+01
6.806384e+01	-1.488770e+01
6.845698e+01	-1.493608e+01
6.885238e+01	-1.498507e+01
6.925007e+01	-1.503266e+01
6.965005e+01	-1.508081e+01
7.005235e+01	-1.512915e+01
7.045697e+01	-1.517837e+01
7.086393e+01	-1.522655e+01
7.127323e+01	-1.527493e+01
7.168490e+01	-1.532394e+01
7.209895e+01	-1.537220e+01
7.251539e+01	-1.542170e+01
7.293424e+01	-1.546944e+01
7.335551e+01	-1.551831e+01
7.377920e+01	-1.556721e+01
7.420535e+01	-1.561598e+01
7.463396e+01	-1.566473e+01
7.506504e+01	-1.571322e+01
7.549861e+01	-1.576217e+01
7.593469e+01	-1.581003e+01
7.637328e+01	-1.585907e+01
7.681441e+01	-1.590877e+01
7.725809e+01	-1.595717e+01
7.770433e+01	-1.600558e+01
7.815315e+01	-1.605442e+01
7.860456e+01	-1.610393e+01
7.905857e+01	-1.615154e+01
7.951521e+01	-1.620042e+01
7.997449e+01	-1.624967e+01
8.043642e+01	-1.629831e+01
8.090102e+01	-1.634798e+01
8.136830e+01	-1.639602e+01
8.183828e+01	-1.644293e+01
8.231097e+01	-1.649432e+01
8.278640e+01	-1.654257e+01
8.326457e+01	-1.659144e+01
8.374550e+01	-1.664143e+01
8.422921e+01	-1.668922e+01
8.471572e+01	-1.673896e+01
8.520503e+01	-1.678788e+01
8.569717e+01	-1.683626e+01
8.619215e+01	-1.688502e+01
8.669000e+01	-1.693361e+01
8.719071e+01	-1.698279e+01
8.769432e+01	-1.703268e+01
8.820084e+01	-1.708241e+01
8.871029e+01	-1.713154e+01
8.922267e+01	-1.717875e+01
8.973802e+01	-1.722818e+01
9.025634e+01	-1.727778e+01
9.077766e+01	-1.732797e+01
9.130199e+01	-1.737649e+01
9.182935e+01	-1.742544e+01
9.235975e+01	-1.747517e+01
9.289321e+01	-1.752329e+01
9.342976e+01	-1.757283e+01
9.396941e+01	-1.762208e+01
9.451217e+01	-1.767190e+01
9.505807e+01	-1.772048e+01
9.560712e+01	-1.776939e+01
9.615934e+01	-1.781953e+01
9.671476e+01	-1.786813e+01
9.727338e+01	-1.791605e+01
9.783522e+01	-1.796595e+01
9.840032e+01	-1.801612e+01
9.896867e+01	-1.806465e+01
9.954031e+01	-1.811434e+01
1.001153e+02	-1.816292e+01
1.006935e+02	-1.821152e+01
1.012751e+02	-1.826215e+01
1.018601e+02	-1.831172e+01
1.024484e+02	-1.835991e+01
1.030402e+02	-1.841015e+01
1.036353e+02	-1.846003e+01
1.042339e+02	-1.850898e+01
1.048360e+02	-1.855878e+01
1.054415e+02	-1.860687e+01
1.060505e+02	-1.865527e+01
1.066631e+02	-1.870650e+01
1.072791e+02	-1.875523e+01
1.078988e+02	-1.880466e+01
1.085220e+02	-1.885344e+01
1.091488e+02	-1.890321e+01
1.097793e+02	-1.895339e+01
1.104133e+02	-1.900197e+01
1.110511e+02	-1.905221e+01
1.116925e+02	-1.910164e+01
1.123376e+02	-1.914997e+01
1.129865e+02	-1.919972e+01
1.136391e+02	-1.924881e+01
1.142955e+02	-1.929978e+01
1.149556e+02	-1.934766e+01
1.156196e+02	-1.939777e+01
1.162874e+02	-1.944658e+01
1.169591e+02	-1.949640e+01
1.176347e+02	-1.954456e+01
1.183141e+02	-1.959588e+01
1.189975e+02	-1.964532e+01
1.196848e+02	-1.969386e+01
1.203761e+02	-1.974317e+01
1.210714e+02	-1.979462e+01
1.217707e+02	-1.984379e+01
1.224740e+02	-1.989202e+01
1.231814e+02	-1.994292e+01
1.238929e+02	-1.999242e+01
1.246085e+02	-2.004267e+01
1.253283e+02	-2.009098e+01
1.260522e+02	-2.013982e+01
1.267802e+02	-2.018896e+01
1.275125e+02	-2.024055e+01
1.282490e+02	-2.028841e+01
1.289898e+02	-2.033720e+01
1.297348e+02	-2.038834e+01
1.304842e+02	-2.043715e+01
1.312378e+02	-2.048776e+01
1.319959e+02	-2.053827e+01
1.327583e+02	-2.058579e+01
1.335251e+02	-2.063661e+01
1.342963e+02	-2.068487e+01
1.350720e+02	-2.073497e+01
1.358522e+02	-2.078504e+01
1.366368e+02	-2.083271e+01
1.374260e+02	-2.088366e+01
1.382198e+02	-2.093406e+01
1.390182e+02	-2.098402e+01
1.398211e+02	-2.103316e+01
1.406287e+02	-2.108269e+01
1.414410e+02	-2.113287e+01
1.422579e+02	-2.118265e+01
1.430796e+02	-2.123017e+01
1.439060e+02	-2.128215e+01
1.447372e+02	-2.132962e+01
1.455732e+02	-2.138289e+01
1.464141e+02	-2.143072e+01
1.472597e+02	-2.147912e+01
1.481103e+02	-2.152871e+01
1.489658e+02	-2.158053e+01
1.498262e+02	-2.162727e+01
1.506916e+02	-2.167931e+01
1.515620e+02	-2.172850e+01
1.524374e+02	-2.177974e+01
1.533179e+02	-2.182661e+01
1.542034e+02	-2.187766e+01
1.550941e+02	-2.192786e+01
1.559899e+02	-2.197603e+01
1.568909e+02	-2.202785e+01
1.577971e+02	-2.207699e+01
1.587085e+02	-2.212639e+01
1.596252e+02	-2.217576e+01
1.605472e+02	-2.222657e+01
1.614745e+02	-2.227392e+01
1.624072e+02	-2.232573e+01
1.633453e+02	-2.237536e+01
1.642887e+02	-2.242395e+01
1.652377e+02	-2.247339e+01
1.661921e+02	-2.252475e+01
1.671520e+02	-2.257327e+01
1.681175e+02	-2.262362e+01
1.690885e+02	-2.267603e+01
1.700651e+02	-2.272506e+01
1.710474e+02	-2.277331e+01
1.720354e+02	-2.282377e+01
1.730291e+02	-2.287178e+01
1.740285e+02	-2.292189e+01
1.750337e+02	-2.297080e+01
1.760446e+02	-2.302354e+01
1.770615e+02	-2.307164e+01
1.780842e+02	-2.312324e+01
1.791128e+02	-2.317248e+01
1.801473e+02	-2.321765e+01
1.811878e+02	-2.327148e+01
1.822344e+02	-2.332077e+01
1.832870e+02	-2.337117e+01
1.843456e+02	-2.341972e+01
1.854104e+02	-2.347044e+01
1.864813e+02	-2.352016e+01
1.875584e+02	-2.357046e+01
1.886418e+02	-2.361950e+01
1.897313e+02	-2.366929e+01
1.908272e+02	-2.372230e+01
1.919294e+02	-2.377072e+01
1.930380e+02	-2.381905e+01
1.941530e+02	-2.387149e+01
1.952744e+02	-2.391941e+01
1.964023e+02	-2.396884e+01
1.975367e+02	-2.401856e+01
1.986777e+02	-2.406896e+01
1.998252e+02	-2.411872e+01
2.009794e+02	-2.416993e+01
2.021403e+02	-2.421802e+01
2.033078e+02	-2.427013e+01
2.044821e+02	-2.431831e+01
2.056632e+02	-2.436713e+01
2.068511e+02	-2.441888e+01
2.080459e+02	-2.446850e+01
2.092475e+02	-2.451547e+01
2.104561e+02	-2.456765e+01
2.116717e+02	-2.461964e+01
2.128943e+02	-2.466411e+01
2.141240e+02	-2.471521e+01
2.153608e+02	-2.476641e+01
2.166047e+02	-2.481744e+01
2.178558e+02	-2.486397e+01
2.191141e+02	-2.491718e+01
2.203797e+02	-2.496814e+01
2.216526e+02	-2.501857e+01
2.229329e+02	-2.506604e+01
2.242205e+02	-2.511698e+01
2.255156e+02	-2.516693e+01
2.268182e+02	-2.521363e+01
2.281283e+02	-2.526576e+01
2.294459e+02	-2.531404e+01
2.307712e+02	-2.536279e+01
2.321041e+02	-2.541475e+01
2.334447e+02	-2.546483e+01
2.347931e+02	-2.551520e+01
2.361493e+02	-2.556304e+01
2.375133e+02	-2.561645e+01
2.388851e+02	-2.566613e+01
2.402649e+02	-2.571709e+01
2.416527e+02	-2.576454e+01
2.430484e+02	-2.581677e+01
2.444523e+02	-2.586376e+01
2.458642e+02	-2.591912e+01
2.472843e+02	-2.596359e+01
2.487126e+02	-2.601349e+01
2.501492e+02	-2.606593e+01
2.515940e+02	-2.611673e+01
2.530472e+02	-2.616712e+01
2.545088e+02	-2.621594e+01
2.559789e+02	-2.626562e+01
2.574574e+02	-2.631368e+01
2.589444e+02	-2.636731e+01
2.604401e+02	-2.641487e+01
2.619444e+02	-2.646332e+01
2.634574e+02	-2.651734e+01
2.649791e+02	-2.656595e+01
2.665096e+02	-2.661452e+01
2.680489e+02	-2.666584e+01
2.695972e+02	-2.671245e+01
2.711544e+02	-2.676624e+01
2.727205e+02	-2.681856e+01
2.742958e+02	-2.686379e+01
2.758801e+02	-2.691489e+01
2.774736e+02	-2.696457e+01
2.790762e+02	-2.701558e+01
2.806882e+02	-2.706717e+01
2.823094e+02	-2.711071e+01
2.839400e+02	-2.716663e+01
2.855800e+02	-2.721400e+01
2.872295e+02	-2.726408e+01
2.888886e+02	-2.731292e+01
2.905572e+02	-2.736504e+01
2.922354e+02	-2.741389e+01
2.939234e+02	-2.746758e+01
2.956211e+02	-2.751568e+01
2.973286e+02	-2.756418e+01
2.990459e+02	-2.761322e+01
3.007732e+02	-2.766632e+01
3.025104e+02	-2.771581e+01
3.042577e+02	-2.776316e+01
3.060151e+02	-2.781417e+01
3.077826e+02	-2.786631e+01
3.095604e+02	-2.791320e+01
3.113484e+02	-2.796336e+01
3.131467e+02	-2.801853e+01
3.149554e+02	-2.806170e+01
3.167746e+02	-2.811737e+01
3.186043e+02	-2.816384e+01
3.204445e+02	-2.821517e+01
3.222954e+02	-2.826147e+01
3.241570e+02	-2.831500e+01
3.260293e+02	-2.836772e+01
3.279124e+02	-2.841606e+01
3.298064e+02	-2.846636e+01
3.317114e+02	-2.852032e+01
3.336273e+02	-2.856106e+01
3.355544e+02	-2.861424e+01
3.374925e+02	-2.866403e+01
3.394418e+02	-2.871541e+01
3.414024e+02	-2.876392e+01
3.433744e+02	-2.881781e+01
3.453577e+02	-2.886714e+01
3.473525e+02	-2.891548e+01
3.493588e+02	-2.896634e+01
3.513766e+02	-2.901660e+01
3.534062e+02	-2.905998e+01
3.554474e+02	-2.911640e+01
3.575005e+02	-2.916628e+01
3.595654e+02	-2.921775e+01
3.616422e+02	-2.926721e+01
3.637311e+02	-2.930747e+01
3.658320e+02	-2.936463e+01
3.679450e+02	-2.941664e+01
3.700702e+02	-2.946511e+01
3.722077e+02	-2.951723e+01
3.743576e+02	-2.956185e+01
3.765199e+02	-2.961602e+01
3.786946e+02	-2.967139e+01
3.808820e+02	-2.972040e+01
3.830819e+02	-2.976773e+01
3.852946e+02	-2.982045e+01
3.875200e+02	-2.987004e+01
3.897583e+02	-2.991648e+01
3.920096e+02	-2.996592e+01
3.942738e+02	-3.001906e+01
3.965511e+02	-3.006290e+01
3.988416e+02	-3.011539e+01
4.011452e+02	-3.017396e+01
4.034622e+02	-3.022155e+01
4.057926e+02	-3.026763e+01
4.081365e+02	-3.031494e+01
4.104938e+02	-3.036920e+01
4.128648e+02	-3.041890e+01
4.152495e+02	-3.047209e+01
4.176480e+02	-3.051824e+01
4.200603e+02	-3.057212e+01
4.224866e+02	-3.062306e+01
4.249268e+02	-3.067474e+01
4.273812e+02	-3.072093e+01
4.298497e+02	-3.077260e+01
4.323325e+02	-3.082025e+01
4.348297e+02	-3.086775e+01
4.373412e+02	-3.091616e+01
4.398673e+02	-3.096779e+01
4.424079e+02	-3.101694e+01
4.449633e+02	-3.107082e+01
4.475334e+02	-3.111966e+01
4.501183e+02	-3.117037e+01
4.527182e+02	-3.121976e+01
4.553330e+02	-3.127456e+01
4.579630e+02	-3.132092e+01
4.606082e+02	-3.137524e+01
4.632687e+02	-3.141828e+01
4.659445e+02	-3.147190e+01
4.686358e+02	-3.151732e+01
4.713426e+02	-3.156715e+01
4.740650e+02	-3.162229e+01
4.768032e+02	-3.167276e+01
4.795572e+02	-3.171953e+01
4.823271e+02	-3.177455e+01
4.851130e+02	-3.182819e+01
4.879150e+02	-3.187022e+01
4.907332e+02	-3.192665e+01
4.935676e+02	-3.197926e+01
4.964185e+02	-3.202678e+01
4.992858e+02	-3.207438e+01
5.021696e+02	-3.212530e+01
5.050701e+02	-3.217518e+01
5.079874e+02	-3.222577e+01
5.109215e+02	-3.227137e+01
5.138726e+02	-3.232186e+01
5.168407e+02	-3.238153e+01
5.198259e+02	-3.242035e+01
5.228284e+02	-3.247661e+01
5.258482e+02	-3.252363e+01
5.288855e+02	-3.258327e+01
5.319403e+02	-3.263128e+01
5.350128e+02	-3.267962e+01
5.381030e+02	-3.272421e+01
5.412111e+02	-3.277542e+01
5.443371e+02	-3.283321e+01
5.474812e+02	-3.287770e+01
5.506434e+02	-3.293038e+01
5.538239e+02	-3.298184e+01
5.570228e+02	-3.302799e+01
5.602401e+02	-3.307919e+01
5.634760e+02	-3.313383e+01
5.667306e+02	-3.317175e+01
5.700040e+02	-3.323469e+01
5.732964e+02	-3.327725e+01
5.766077e+02	-3.332826e+01
5.799382e+02	-3.338312e+01
5.832879e+02	-3.342801e+01
5.866569e+02	-3.348454e+01
5.900454e+02	-3.353069e+01
5.934535e+02	-3.358502e+01
5.968813e+02	-3.363904e+01
6.003288e+02	-3.368294e+01
6.037963e+02	-3.373716e+01
6.072838e+02	-3.379187e+01
6.107914e+02	-3.383186e+01
6.143194e+02	-3.387875e+01
6.178676e+02	-3.393248e+01
6.214364e+02	-3.397925e+01
6.250258e+02	-3.402973e+01
6.286359e+02	-3.408293e+01
6.322669e+02	-3.413538e+01
6.359189e+02	-3.418942e+01
6.395919e+02	-3.423806e+01
6.432862e+02	-3.428739e+01
6.470017e+02	-3.434252e+01
6.507388e+02	-3.439195e+01
6.544974e+02	-3.444110e+01
6.582778e+02	-3.448605e+01
6.620800e+02	-3.454408e+01
6.659041e+02	-3.459435e+01
6.697504e+02	-3.464519e+01
6.736188e+02	-3.468452e+01
6.775096e+02	-3.474633e+01
6.814229e+02	-3.478881e+01
6.853587e+02	-3.484549e+01
6.893173e+02	-3.489114e+01
6.932988e+02	-3.494048e+01
6.973033e+02	-3.499342e+01
7.013309e+02	-3.504568e+01
