Frequency(Hz)	Magnitude(dB)
1.000000e+01	-2.221401e+00
1.005776e+01	-2.241376e+00
1.011585e+01	-2.261594e+00
1.017428e+01	-2.282110e+00
1.023305e+01	-2.302527e+00
1.029215e+01	-2.323205e+00
1.035160e+01	-2.344162e+00
1.041139e+01	-2.364909e+00
1.047153e+01	-2.385821e+00
1.053201e+01	-2.407250e+00
1.059284e+01	-2.428528e+00
1.065403e+01	-2.450192e+00
1.071556e+01	-2.471647e+00
1.077746e+01	-2.493668e+00
1.083971e+01	-2.515631e+00
1.090232e+01	-2.537344e+00
1.096529e+01	-2.559633e+00
1.102862e+01	-2.581940e+00
1.109232e+01	-2.604625e+00
1.115639e+01	-2.627219e+00
1.122083e+01	-2.649828e+00
1.128564e+01	-2.673032e+00
1.135083e+01	-2.696041e+00
1.141639e+01	-2.719083e+00
1.148233e+01	-2.742466e+00
1.154865e+01	-2.765949e+00
1.161536e+01	-2.789893e+00
1.168245e+01	-2.813261e+00
1.174992e+01	-2.837331e+00
1.181779e+01	-2.861224e+00
1.188605e+01	-2.885489e+00
1.195470e+01	-2.909943e+00
1.202375e+01	-2.934617e+00
1.209320e+01	-2.958886e+00
1.216305e+01	-2.983923e+00
1.223330e+01	-3.008867e+00
1.230396e+01	-3.033787e+00
1.237503e+01	-3.059104e+00
1.244651e+01	-3.084316e+00
1.251840e+01	-3.109794e+00
1.259070e+01	-3.135464e+00
1.266343e+01	-3.161564e+00
1.273657e+01	-3.187464e+00
1.281014e+01	-3.213428e+00
1.288413e+01	-3.239742e+00
1.295855e+01	-3.266035e+00
1.303339e+01	-3.292316e+00
1.310867e+01	-3.319154e+00
1.318439e+01	-3.346023e+00
1.326054e+01	-3.372763e+00
1.333713e+01	-3.400090e+00
1.341417e+01	-3.427418e+00
1.349165e+01	-3.454625e+00
1.356958e+01	-3.482325e+00
1.364795e+01	-3.509716e+00
1.372678e+01	-3.537347e+00
1.380607e+01	-3.565439e+00
1.388581e+01	-3.593566e+00
1.396602e+01	-3.622079e+00
1.404668e+01	-3.650434e+00
1.412782e+01	-3.678886e+00
1.420942e+01	-3.707463e+00
1.429149e+01	-3.736252e+00
1.437404e+01	-3.765033e+00
1.445706e+01	-3.794106e+00
1.454057e+01	-3.823352e+00
1.462455e+01	-3.852819e+00
1.470902e+01	-3.882249e+00
1.479398e+01	-3.912037e+00
1.487943e+01	-3.941679e+00
1.496537e+01	-3.971425e+00
1.505181e+01	-4.001659e+00
1.513875e+01	-4.031558e+00
1.522619e+01	-4.062156e+00
1.531414e+01	-4.092761e+00
1.540259e+01	-4.122855e+00
1.549156e+01	-4.153768e+00
1.558103e+01	-4.184567e+00
1.567103e+01	-4.215925e+00
1.576155e+01	-4.246752e+00
1.585258e+01	-4.278128e+00
1.594415e+01	-4.309371e+00
1.603624e+01	-4.341165e+00
1.612886e+01	-4.372867e+00
1.622202e+01	-4.404759e+00
1.631572e+01	-4.436385e+00
1.640996e+01	-4.468760e+00
1.650474e+01	-4.500810e+00
1.660008e+01	-4.533403e+00
1.669596e+01	-4.565811e+00
1.679239e+01	-4.598706e+00
1.688938e+01	-4.631074e+00
1.698694e+01	-4.663874e+00
1.708505e+01	-4.696956e+00
1.718373e+01	-4.730310e+00
1.728299e+01	-4.763322e+00
1.738281e+01	-4.796930e+00
1.748322e+01	-4.830330e+00
1.758420e+01	-4.863723e+00
1.768576e+01	-4.897608e+00
1.778792e+01	-4.931820e+00
1.789066e+01	-4.965549e+00
1.799399e+01	-4.999465e+00
1.809793e+01	-5.033801e+00
1.820246e+01	-5.068118e+00
1.830760e+01	-5.102909e+00
1.841334e+01	-5.137511e+00
1.851969e+01	-5.172305e+00
1.862666e+01	-5.207055e+00
1.873425e+01	-5.242216e+00
1.884246e+01	-5.277395e+00
1.895129e+01	-5.312621e+00
1.906075e+01	-5.347919e+00
1.917085e+01	-5.383439e+00
1.928158e+01	-5.418887e+00
1.939295e+01	-5.454544e+00
1.950496e+01	-5.490700e+00
1.961762e+01	-5.526756e+00
1.973093e+01	-5.562559e+00
1.984490e+01	-5.598709e+00
1.995952e+01	-5.634975e+00
2.007480e+01	-5.671467e+00
2.019076e+01	-5.707810e+00
2.030738e+01	-5.744602e+00
2.042467e+01	-5.781406e+00
2.054264e+01	-5.818313e+00
2.066130e+01	-5.855197e+00
2.078064e+01	-5.892166e+00
2.090066e+01	-5.929670e+00
2.102139e+01	-5.966912e+00
2.114280e+01	-6.004217e+00
2.126492e+01	-6.041592e+00
2.138775e+01	-6.079232e+00
2.151128e+01	-6.117150e+00
2.163553e+01	-6.154820e+00
2.176050e+01	-6.192953e+00
2.188619e+01	-6.230673e+00
2.201260e+01	-6.269219e+00
2.213974e+01	-6.307548e+00
2.226762e+01	-6.345907e+00
2.239624e+01	-6.384092e+00
2.252560e+01	-6.422824e+00
2.265571e+01	-6.461695e+00
2.278656e+01	-6.500194e+00
2.291818e+01	-6.539267e+00
2.305055e+01	-6.577795e+00
2.318369e+01	-6.617165e+00
2.331760e+01	-6.656421e+00
2.345228e+01	-6.695493e+00
2.358774e+01	-6.734916e+00
2.372398e+01	-6.774449e+00
2.386101e+01	-6.813892e+00
2.399883e+01	-6.853796e+00
2.413745e+01	-6.893232e+00
2.427686e+01	-6.933198e+00
2.441709e+01	-6.973330e+00
2.455812e+01	-7.013046e+00
2.469997e+01	-7.053163e+00
2.484263e+01	-7.093353e+00
2.498612e+01	-7.133841e+00
2.513044e+01	-7.174513e+00
2.527559e+01	-7.214685e+00
2.542158e+01	-7.255732e+00
2.556842e+01	-7.296190e+00
2.571610e+01	-7.336644e+00
2.586463e+01	-7.377363e+00
2.601403e+01	-7.418509e+00
2.616428e+01	-7.459468e+00
2.631541e+01	-7.500403e+00
2.646740e+01	-7.542003e+00
2.662028e+01	-7.582656e+00
2.677404e+01	-7.624217e+00
2.692868e+01	-7.666162e+00
2.708422e+01	-7.706937e+00
2.724066e+01	-7.748624e+00
2.739800e+01	-7.790591e+00
2.755625e+01	-7.832467e+00
2.771541e+01	-7.874310e+00
2.787550e+01	-7.915548e+00
2.803650e+01	-7.958419e+00
2.819844e+01	-8.000265e+00
2.836131e+01	-8.042274e+00
2.852513e+01	-8.084282e+00
2.868989e+01	-8.126701e+00
2.885560e+01	-8.169130e+00
2.902227e+01	-8.212081e+00
2.918990e+01	-8.253694e+00
2.935850e+01	-8.296345e+00
2.952807e+01	-8.338620e+00
2.969863e+01	-8.382149e+00
2.987016e+01	-8.425095e+00
3.004269e+01	-8.467621e+00
3.021622e+01	-8.510256e+00
3.039075e+01	-8.553843e+00
3.056628e+01	-8.596875e+00
3.074283e+01	-8.639588e+00
3.092040e+01	-8.683140e+00
3.109900e+01	-8.726301e+00
3.127862e+01	-8.769566e+00
3.145929e+01	-8.813121e+00
3.164099e+01	-8.856560e+00
3.182375e+01	-8.900236e+00
3.200756e+01	-8.944299e+00
3.219244e+01	-8.987450e+00
3.237838e+01	-9.031141e+00
3.256540e+01	-9.075296e+00
3.275349e+01	-9.118730e+00
3.294268e+01	-9.162612e+00
3.313295e+01	-9.207108e+00
3.332433e+01	-9.250463e+00
3.351681e+01	-9.294691e+00
3.371040e+01	-9.339137e+00
3.390511e+01	-9.383244e+00
3.410094e+01	-9.427500e+00
3.429791e+01	-9.472304e+00
3.449601e+01	-9.516424e+00
3.469526e+01	-9.560696e+00
3.489566e+01	-9.605088e+00
3.509721e+01	-9.649916e+00
3.529993e+01	-9.694511e+00
3.550382e+01	-9.739454e+00
3.570889e+01	-9.784117e+00
3.591515e+01	-9.828993e+00
3.612259e+01	-9.873327e+00
3.633123e+01	-9.918109e+00
3.654108e+01	-9.963273e+00
3.675214e+01	-1.000827e+01
3.696442e+01	-1.005367e+01
3.717792e+01	-1.009896e+01
3.739266e+01	-1.014361e+01
3.760864e+01	-1.018860e+01
3.782587e+01	-1.023445e+01
3.804435e+01	-1.027988e+01
3.826409e+01	-1.032515e+01
3.848510e+01	-1.037009e+01
3.870739e+01	-1.041584e+01
3.893096e+01	-1.046168e+01
3.915583e+01	-1.050655e+01
3.938199e+01	-1.055231e+01
3.960946e+01	-1.059819e+01
3.983824e+01	-1.064345e+01
4.006834e+01	-1.068971e+01
4.029978e+01	-1.073550e+01
4.053255e+01	-1.078142e+01
4.076666e+01	-1.082640e+01
4.100213e+01	-1.087309e+01
4.123896e+01	-1.091907e+01
4.147715e+01	-1.096521e+01
4.171672e+01	-1.101079e+01
4.195767e+01	-1.105727e+01
4.220002e+01	-1.110325e+01
4.244377e+01	-1.114935e+01
4.268892e+01	-1.119559e+01
4.293549e+01	-1.124171e+01
4.318348e+01	-1.128830e+01
4.343291e+01	-1.133483e+01
4.368377e+01	-1.138048e+01
4.393609e+01	-1.142720e+01
4.418986e+01	-1.147369e+01
4.444510e+01	-1.152006e+01
4.470182e+01	-1.156620e+01
4.496001e+01	-1.161344e+01
4.521970e+01	-1.166008e+01
4.548089e+01	-1.170649e+01
4.574358e+01	-1.175334e+01
4.600779e+01	-1.179947e+01
4.627353e+01	-1.184642e+01
4.654081e+01	-1.189293e+01
4.680963e+01	-1.194018e+01
4.708000e+01	-1.198686e+01
4.735193e+01	-1.203387e+01
4.762543e+01	-1.208044e+01
4.790051e+01	-1.212777e+01
4.817719e+01	-1.217420e+01
4.845545e+01	-1.222190e+01
4.873533e+01	-1.226857e+01
4.901682e+01	-1.231532e+01
4.929994e+01	-1.236292e+01
4.958470e+01	-1.241036e+01
4.987110e+01	-1.245743e+01
5.015915e+01	-1.250347e+01
5.044887e+01	-1.255151e+01
5.074026e+01	-1.259920e+01
5.103333e+01	-1.264577e+01
5.132810e+01	-1.269410e+01
5.162457e+01	-1.274057e+01
5.192275e+01	-1.278818e+01
5.222265e+01	-1.283507e+01
5.252429e+01	-1.288324e+01
5.282767e+01	-1.293002e+01
5.313280e+01	-1.297749e+01
5.343969e+01	-1.302503e+01
5.374836e+01	-1.307320e+01
5.405880e+01	-1.312030e+01
5.437105e+01	-1.316744e+01
5.468509e+01	-1.321548e+01
5.500095e+01	-1.326309e+01
5.531863e+01	-1.331072e+01
5.563815e+01	-1.335902e+01
5.595951e+01	-1.340701e+01
5.628273e+01	-1.345442e+01
5.660782e+01	-1.350174e+01
5.693479e+01	-1.355061e+01
5.726364e+01	-1.359786e+01
5.759439e+01	-1.364551e+01
5.792705e+01	-1.369325e+01
5.826164e+01	-1.374059e+01
5.859815e+01	-1.378932e+01
5.893662e+01	-1.383723e+01
5.927703e+01	-1.388501e+01
5.961941e+01	-1.393324e+01
5.996377e+01	-1.398131e+01
6.031012e+01	-1.402915e+01
6.065847e+01	-1.407768e+01
6.100883e+01	-1.412452e+01
6.136121e+01	-1.417518e+01
6.171563e+01	-1.422138e+01
6.207210e+01	-1.427010e+01
6.243063e+01	-1.431757e+01
6.279122e+01	-1.436591e+01
6.315390e+01	-1.441440e+01
6.351868e+01	-1.446227e+01
6.388556e+01	-1.451130e+01
6.425456e+01	-1.455917e+01
6.462569e+01	-1.460694e+01
6.499897e+01	-1.465548e+01
6.537440e+01	-1.470409e+01
6.575200e+01	-1.475254e+01
6.613178e+01	-1.480141e+01
6.651375e+01	-1.484912e+01
6.689793e+01	-1.489662e+01
6.728433e+01	-1.494529e+01
6.767297e+01	-1.499378e+01
6.806384e+01	-1.504354e+01
6.845698e+01	-1.509141e+01
6.885238e+01	-1.514007e+01
6.925007e+01	-1.518800e+01
6.965005e+01	-1.523750e+01
7.005235e+01	-1.528576e+01
7.045697e+01	-1.533488e+01
7.086393e+01	-1.538269e+01
7.127323e+01	-1.543149e+01
7.168490e+01	-1.547902e+01
7.209895e+01	-1.552830e+01
7.251539e+01	-1.557729e+01
7.293424e+01	-1.562503e+01
7.335551e+01	-1.567502e+01
7.377920e+01	-1.572310e+01
7.420535e+01	-1.577183e+01
7.463396e+01	-1.582025e+01
7.506504e+01	-1.586891e+01
7.549861e+01	-1.591784e+01
7.593469e+01	-1.596672e+01
7.637328e+01	-1.601468e+01
7.681441e+01	-1.606377e+01
7.725809e+01	-1.611305e+01
7.770433e+01	-1.616270e+01
7.815315e+01	-1.621049e+01
7.860456e+01	-1.625932e+01
7.905857e+01	-1.630802e+01
7.951521e+01	-1.635889e+01
7.997449e+01	-1.640634e+01
8.043642e+01	-1.645393e+01
8.090102e+01	-1.650378e+01
8.136830e+01	-1.655258e+01
8.183828e+01	-1.660279e+01
8.231097e+01	-1.665029e+01
8.278640e+01	-1.669918e+01
8.326457e+01	-1.674958e+01
8.374550e+01	-1.679680e+01
8.422921e+01	-1.684642e+01
8.471572e+01	-1.689612e+01
8.520503e+01	-1.694419e+01
8.569717e+01	-1.699384e+01
8.619215e+01	-1.704311e+01
8.669000e+01	-1.709130e+01
8.719071e+01	-1.714059e+01
8.769432e+01	-1.718932e+01
8.820084e+01	-1.723842e+01
8.871029e+01	-1.728740e+01
8.922267e+01	-1.733752e+01
8.973802e+01	-1.738471e+01
9.025634e+01	-1.743385e+01
9.077766e+01	-1.748399e+01
9.130199e+01	-1.753475e+01
9.182935e+01	-1.758240e+01
9.235975e+01	-1.763231e+01
9.289321e+01	-1.768132e+01
9.342976e+01	-1.773020e+01
9.396941e+01	-1.777997e+01
9.451217e+01	-1.782814e+01
9.505807e+01	-1.787860e+01
9.560712e+01	-1.792762e+01
9.615934e+01	-1.797516e+01
9.671476e+01	-1.802513e+01
9.727338e+01	-1.807453e+01
9.783522e+01	-1.812336e+01
9.840032e+01	-1.817283e+01
9.896867e+01	-1.822112e+01
9.954031e+01	-1.827161e+01
1.001153e+02	-1.832304e+01
1.006935e+02	-1.837047e+01
1.012751e+02	-1.841969e+01
1.018601e+02	-1.846797e+01
1.024484e+02	-1.851812e+01
1.030402e+02	-1.856794e+01
1.036353e+02	-1.861795e+01
1.042339e+02	-1.866628e+01
1.048360e+02	-1.871609e+01
1.054415e+02	-1.876626e+01
1.060505e+02	-1.881497e+01
1.066631e+02	-1.886290e+01
1.072791e+02	-1.891264e+01
1.078988e+02	-1.896467e+01
1.085220e+02	-1.901111e+01
1.091488e+02	-1.906172e+01
1.097793e+02	-1.911253e+01
1.104133e+02	-1.915873e+01
1.110511e+02	-1.921076e+01
1.116925e+02	-1.925926e+01
1.123376e+02	-1.930941e+01
1.129865e+02	-1.935951e+01
1.136391e+02	-1.940644e+01
1.142955e+02	-1.945670e+01
1.149556e+02	-1.950623e+01
1.156196e+02	-1.955672e+01
1.162874e+02	-1.960677e+01
1.169591e+02	-1.965383e+01
1.176347e+02	-1.970560e+01
1.183141e+02	-1.975427e+01
1.189975e+02	-1.980363e+01
1.196848e+02	-1.985373e+01
1.203761e+02	-1.990255e+01
1.210714e+02	-1.995238e+01
1.217707e+02	-2.000083e+01
1.224740e+02	-2.005220e+01
1.231814e+02	-2.010073e+01
1.238929e+02	-2.015026e+01
1.246085e+02	-2.019882e+01
1.253283e+02	-2.024880e+01
1.260522e+02	-2.029965e+01
1.267802e+02	-2.034689e+01
1.275125e+02	-2.039800e+01
1.282490e+02	-2.044876e+01
1.289898e+02	-2.049805e+01
1.297348e+02	-2.054638e+01
1.304842e+02	-2.059514e+01
1.312378e+02	-2.064593e+01
1.319959e+02	-2.069506e+01
1.327583e+02	-2.074579e+01
1.335251e+02	-2.079417e+01
1.342963e+02	-2.084444e+01
1.350720e+02	-2.089172e+01
1.358522e+02	-2.094260e+01
1.366368e+02	-2.099523e+01
1.374260e+02	-2.104063e+01
1.382198e+02	-2.109279e+01
1.390182e+02	-2.114220e+01
1.398211e+02	-2.119236e+01
1.406287e+02	-2.124096e+01
1.414410e+02	-2.129131e+01
1.422579e+02	-2.134137e+01
1.430796e+02	-2.139254e+01
1.439060e+02	-2.144042e+01
1.447372e+02	-2.149021e+01
1.455732e+02	-2.153895e+01
1.464141e+02	-2.158953e+01
1.472597e+02	-2.163839e+01
1.481103e+02	-2.169027e+01
1.489658e+02	-2.174110e+01
1.498262e+02	-2.178482e+01
1.506916e+02	-2.183777e+01
1.515620e+02	-2.188737e+01
1.524374e+02	-2.193830e+01
1.533179e+02	-2.198683e+01
1.542034e+02	-2.203775e+01
1.550941e+02	-2.208619e+01
1.559899e+02	-2.213669e+01
1.568909e+02	-2.218569e+01
1.577971e+02	-2.223796e+01
1.587085e+02	-2.228515e+01
1.596252e+02	-2.233561e+01
1.605472e+02	-2.238571e+01
1.614745e+02	-2.243513e+01
1.624072e+02	-2.248379e+01
1.633453e+02	-2.253629e+01
1.642887e+02	-2.258405e+01
1.652377e+02	-2.263356e+01
1.661921e+02	-2.268290e+01
1.671520e+02	-2.273508e+01
1.681175e+02	-2.278251e+01
1.690885e+02	-2.283201e+01
1.700651e+02	-2.288299e+01
1.710474e+02	-2.293365e+01
1.720354e+02	-2.298324e+01
1.730291e+02	-2.303271e+01
1.740285e+02	-2.308196e+01
1.750337e+02	-2.313143e+01
1.760446e+02	-2.318080e+01
1.770615e+02	-2.323228e+01
1.780842e+02	-2.327982e+01
1.791128e+02	-2.333028e+01
1.801473e+02	-2.338191e+01
1.811878e+02	-2.343050e+01
1.822344e+02	-2.348139e+01
1.832870e+02	-2.353148e+01
1.843456e+02	-2.358059e+01
1.854104e+02	-2.363000e+01
1.864813e+02	-2.367690e+01
1.875584e+02	-2.372613e+01
1.886418e+02	-2.377906e+01
1.897313e+02	-2.382870e+01
1.908272e+02	-2.388082e+01
1.919294e+02	-2.392989e+01
1.930380e+02	-2.397879e+01
1.941530e+02	-2.402594e+01
1.952744e+02	-2.407755e+01
1.964023e+02	-2.413045e+01
1.975367e+02	-2.417886e+01
1.986777e+02	-2.422524e+01
1.998252e+02	-2.427831e+01
2.009794e+02	-2.433022e+01
2.021403e+02	-2.437769e+01
2.033078e+02	-2.443000e+01
2.044821e+02	-2.447850e+01
2.056632e+02	-2.452816e+01
2.068511e+02	-2.457959e+01
2.080459e+02	-2.462997e+01
2.092475e+02	-2.467606e+01
2.104561e+02	-2.472793e+01
2.116717e+02	-2.477650e+01
2.128943e+02	-2.482528e+01
2.141240e+02	-2.487693e+01
2.153608e+02	-2.492761e+01
2.166047e+02	-2.497684e+01
2.178558e+02	-2.502593e+01
2.191141e+02	-2.507793e+01
2.203797e+02	-2.512434e+01
2.216526e+02	-2.517656e+01
2.229329e+02	-2.522564e+01
2.242205e+02	-2.527570e+01
2.255156e+02	-2.532528e+01
2.268182e+02	-2.537510e+01
2.281283e+02	-2.542706e+01
2.294459e+02	-2.547191e+01
2.307712e+02	-2.552464e+01
2.321041e+02	-2.557585e+01
2.334447e+02	-2.562728e+01
2.347931e+02	-2.567306e+01
2.361493e+02	-2.572151e+01
2.375133e+02	-2.577889e+01
2.388851e+02	-2.582405e+01
2.402649e+02	-2.587735e+01
2.416527e+02	-2.592320e+01
2.430484e+02	-2.597164e+01
2.444523e+02	-2.602488e+01
2.458642e+02	-2.607798e+01
2.472843e+02	-2.612469e+01
2.487126e+02	-2.617608e+01
2.501492e+02	-2.622074e+01
2.515940e+02	-2.627628e+01
2.530472e+02	-2.632602e+01
2.545088e+02	-2.637454e+01
2.559789e+02	-2.642695e+01
2.574574e+02	-2.647567e+01
2.589444e+02	-2.652579e+01
2.604401e+02	-2.657452e+01
2.619444e+02	-2.662574e+01
2.634574e+02	-2.667362e+01
2.649791e+02	-2.672299e+01
2.665096e+02	-2.677037e+01
2.680489e+02	-2.682378e+01
2.695972e+02	-2.687281e+01
2.711544e+02	-2.692516e+01
2.727205e+02	-2.697455e+01
2.742958e+02	-2.702467e+01
2.758801e+02	-2.707611e+01
2.774736e+02	-2.712498e+01
2.790762e+02	-2.717244e+01
2.806882e+02	-2.722233e+01
2.823094e+02	-2.727358e+01
2.839400e+02	-2.732361e+01
2.855800e+02	-2.737326e+01
2.872295e+02	-2.742326e+01
2.888886e+02	-2.747099e+01
2.905572e+02	-2.752311e+01
2.922354e+02	-2.757326e+01
2.939234e+02	-2.762624e+01
2.956211e+02	-2.767512e+01
2.973286e+02	-2.772597e+01
2.990459e+02	-2.777572e+01
3.007732e+02	-2.782534e+01
3.025104e+02	-2.787555e+01
3.042577e+02	-2.792456e+01
3.060151e+02	-2.797497e+01
3.077826e+02	-2.802382e+01
3.095604e+02	-2.807424e+01
3.113484e+02	-2.812662e+01
3.131467e+02	-2.817228e+01
3.149554e+02	-2.822459e+01
3.167746e+02	-2.827393e+01
3.186043e+02	-2.832042e+01
3.204445e+02	-2.837547e+01
3.222954e+02	-2.842424e+01
3.241570e+02	-2.847268e+01
3.260293e+02	-2.852416e+01
3.279124e+02	-2.857536e+01
3.298064e+02	-2.862479e+01
3.317114e+02	-2.867285e+01
3.336273e+02	-2.871971e+01
3.355544e+02	-2.877285e+01
3.374925e+02	-2.882386e+01
3.394418e+02	-2.887646e+01
3.414024e+02	-2.892407e+01
3.433744e+02	-2.897529e+01
3.453577e+02	-2.902359e+01
3.473525e+02	-2.907709e+01
3.493588e+02	-2.912586e+01
3.513766e+02	-2.917469e+01
3.534062e+02	-2.922687e+01
3.554474e+02	-2.927637e+01
3.575005e+02	-2.932309e+01
3.595654e+02	-2.937948e+01
3.616422e+02	-2.942606e+01
3.637311e+02	-2.947966e+01
3.658320e+02	-2.952720e+01
3.679450e+02	-2.957451e+01
3.700702e+02	-2.962545e+01
3.722077e+02	-2.967646e+01
3.743576e+02	-2.972251e+01
3.765199e+02	-2.977502e+01
3.786946e+02	-2.982974e+01
3.808820e+02	-2.987569e+01
3.830819e+02	-2.992331e+01
3.852946e+02	-2.997466e+01
3.875200e+02	-3.003061e+01
3.897583e+02	-3.008008e+01
3.920096e+02	-3.012811e+01
3.942738e+02	-3.017526e+01
3.965511e+02	-3.022676e+01
3.988416e+02	-3.027261e+01
4.011452e+02	-3.032806e+01
4.034622e+02	-3.037620e+01
4.057926e+02	-3.042917e+01
4.081365e+02	-3.048058e+01
4.104938e+02	-3.052500e+01
4.128648e+02	-3.058310e+01
4.152495e+02	-3.062479e+01
4.176480e+02	-3.067753e+01
4.200603e+02	-3.072636e+01
4.224866e+02	-3.077993e+01
4.249268e+02	-3.082711e+01
4.273812e+02	-3.087843e+01
4.298497e+02	-3.092607e+01
4.323325e+02	-3.097555e+01
4.348297e+02	-3.101827e+01
4.373412e+02	-3.107986e+01
4.398673e+02	-3.113036e+01
4.424079e+02	-3.118744e+01
4.449633e+02	-3.122799e+01
4.475334e+02	-3.127944e+01
4.501183e+02	-3.132876e+01
4.527182e+02	-3.137951e+01
4.553330e+02	-3.143253e+01
4.579630e+02	-3.148198e+01
4.606082e+02	-3.153415e+01
4.632687e+02	-3.158237e+01
4.659445e+02	-3.162974e+01
4.686358e+02	-3.167995e+01
4.713426e+02	-3.172933e+01
4.740650e+02	-3.177877e+01
4.768032e+02	-3.183268e+01
4.795572e+02	-3.187894e+01
4.823271e+02	-3.193085e+01
4.851130e+02	-3.198209e+01
4.879150e+02	-3.203882e+01
4.907332e+02	-3.208011e+01
4.935676e+02	-3.212571e+01
4.964185e+02	-3.218564e+01
4.992858e+02	-3.223210e+01
5.021696e+02	-3.228418e+01
5.050701e+02	-3.232597e+01
5.079874e+02	-3.238120e+01
5.109215e+02	-3.243905e+01
5.138726e+02	-3.248769e+01
5.168407e+02	-3.253182e+01
5.198259e+02	-3.258471e+01
5.228284e+02	-3.263485e+01
5.258482e+02	-3.268735e+01
5.288855e+02	-3.273903e+01
5.319403e+02	-3.278506e+01
5.350128e+02	-3.283626e+01
5.381030e+02	-3.288744e+01
5.412111e+02	-3.293122e+01
5.443371e+02	-3.299158e+01
5.474812e+02	-3.302973e+01
5.506434e+02	-3.307946e+01
5.538239e+02	-3.313475e+01
5.570228e+02	-3.319617e+01
5.602401e+02	-3.323337e+01
5.634760e+02	-3.328495e+01
5.667306e+02	-3.334161e+01
5.700040e+02	-3.339258e+01
5.732964e+02	-3.342913e+01
5.766077e+02	-3.349217e+01
5.799382e+02	-3.352931e+01
5.832879e+02	-3.358755e+01
5.866569e+02	-3.363847e+01
5.900454e+02	-3.369303e+01
5.934535e+02	-3.374257e+01
5.968813e+02	-3.378620e+01
6.003288e+02	-3.384146e+01
6.037963e+02	-3.388116e+01
6.072838e+02	-3.394819e+01
6.107914e+02	-3.398775e+01
6.143194e+02	-3.404297e+01
6.178676e+02	-3.409335e+01
6.214364e+02	-3.414460e+01
6.250258e+02	-3.419528e+01
6.286359e+02	-3.423411e+01
6.322669e+02	-3.429458e+01
6.359189e+02	-3.434547e+01
6.395919e+02	-3.439779e+01
6.432862e+02	-3.444690e+01
6.470017e+02	-3.449223e+01
6.507388e+02	-3.454105e+01
6.544974e+02	-3.459633e+01
6.582778e+02	-3.464190e+01
6.620800e+02	-3.469147e+01
6.659041e+02	-3.474338e+01
6.697504e+02	-3.479878e+01
6.736188e+02	-3.484714e+01
6.775096e+02	-3.490694e+01
6.814229e+02	-3.494772e+01
6.853587e+02	-3.500022e+01
6.893173e+02	-3.504887e+01
6.932988e+02	-3.509561e+01
6.973033e+02	-3.515126e+01
7.013309e+02	-3.519741e+01
