Frequency(Hz)	Magnitude(dB)
1.000000e+01	-1.622288e-05
1.005776e+01	-1.641082e-05
1.011585e+01	-1.660095e-05
1.017428e+01	-1.679327e-05
1.023305e+01	-1.698783e-05
1.029215e+01	-1.718464e-05
1.035160e+01	-1.738372e-05
1.041139e+01	-1.758512e-05
1.047153e+01	-1.778885e-05
1.053201e+01	-1.799494e-05
1.059284e+01	-1.820341e-05
1.065403e+01	-1.841430e-05
1.071556e+01	-1.862764e-05
1.077746e+01	-1.884344e-05
1.083971e+01	-1.906175e-05
1.090232e+01	-1.928258e-05
1.096529e+01	-1.950598e-05
1.102862e+01	-1.973196e-05
1.109232e+01	-1.996056e-05
1.115639e+01	-2.019181e-05
1.122083e+01	-2.042573e-05
1.128564e+01	-2.066237e-05
1.135083e+01	-2.090175e-05
1.141639e+01	-2.114390e-05
1.148233e+01	-2.138886e-05
1.154865e+01	-2.163665e-05
1.161536e+01	-2.188732e-05
1.168245e+01	-2.214089e-05
1.174992e+01	-2.239740e-05
1.181779e+01	-2.265688e-05
1.188605e+01	-2.291936e-05
1.195470e+01	-2.318489e-05
1.202375e+01	-2.345349e-05
1.209320e+01	-2.372521e-05
1.216305e+01	-2.400007e-05
1.223330e+01	-2.427812e-05
1.230396e+01	-2.455939e-05
1.237503e+01	-2.484391e-05
1.244651e+01	-2.513173e-05
1.251840e+01	-2.542289e-05
1.259070e+01	-2.571742e-05
1.266343e+01	-2.601536e-05
1.273657e+01	-2.631676e-05
1.281014e+01	-2.662165e-05
1.288413e+01	-2.693006e-05
1.295855e+01	-2.724205e-05
1.303339e+01	-2.755766e-05
1.310867e+01	-2.787692e-05
1.318439e+01	-2.819988e-05
1.326054e+01	-2.852659e-05
1.333713e+01	-2.885707e-05
1.341417e+01	-2.919139e-05
1.349165e+01	-2.952958e-05
1.356958e+01	-2.987169e-05
1.364795e+01	-3.021776e-05
1.372678e+01	-3.056784e-05
1.380607e+01	-3.092197e-05
1.388581e+01	-3.128021e-05
1.396602e+01	-3.164260e-05
1.404668e+01	-3.200919e-05
1.412782e+01	-3.238002e-05
1.420942e+01	-3.275515e-05
1.429149e+01	-3.313463e-05
1.437404e+01	-3.351850e-05
1.445706e+01	-3.390682e-05
1.454057e+01	-3.429964e-05
1.462455e+01	-3.469701e-05
1.470902e+01	-3.509898e-05
1.479398e+01	-3.550561e-05
1.487943e+01	-3.591695e-05
1.496537e+01	-3.633306e-05
1.505181e+01	-3.675398e-05
1.513875e+01	-3.717979e-05
1.522619e+01	-3.761052e-05
1.531414e+01	-3.804625e-05
1.540259e+01	-3.848702e-05
1.549156e+01	-3.893291e-05
1.558103e+01	-3.938395e-05
1.567103e+01	-3.984022e-05
1.576155e+01	-4.030178e-05
1.585258e+01	-4.076869e-05
1.594415e+01	-4.124100e-05
1.603624e+01	-4.171879e-05
1.612886e+01	-4.220211e-05
1.622202e+01	-4.269103e-05
1.631572e+01	-4.318562e-05
1.640996e+01	-4.368593e-05
1.650474e+01	-4.419204e-05
1.660008e+01	-4.470402e-05
1.669596e+01	-4.522192e-05
1.679239e+01	-4.574583e-05
1.688938e+01	-4.627580e-05
1.698694e+01	-4.681192e-05
1.708505e+01	-4.735424e-05
1.718373e+01	-4.790285e-05
1.728299e+01	-4.845782e-05
1.738281e+01	-4.901921e-05
1.748322e+01	-4.958711e-05
1.758420e+01	-5.016159e-05
1.768576e+01	-5.074272e-05
1.778792e+01	-5.133059e-05
1.789066e+01	-5.192526e-05
1.799399e+01	-5.252683e-05
1.809793e+01	-5.313536e-05
1.820246e+01	-5.375095e-05
1.830760e+01	-5.437366e-05
1.841334e+01	-5.500359e-05
1.851969e+01	-5.564082e-05
1.862666e+01	-5.628543e-05
1.873425e+01	-5.693751e-05
1.884246e+01	-5.759714e-05
1.895129e+01	-5.826441e-05
1.906075e+01	-5.893942e-05
1.917085e+01	-5.962224e-05
1.928158e+01	-6.031298e-05
1.939295e+01	-6.101172e-05
1.950496e+01	-6.171855e-05
1.961762e+01	-6.243357e-05
1.973093e+01	-6.315688e-05
1.984490e+01	-6.388856e-05
1.995952e+01	-6.462872e-05
2.007480e+01	-6.537746e-05
2.019076e+01	-6.613487e-05
2.030738e+01	-6.690106e-05
2.042467e+01	-6.767612e-05
2.054264e+01	-6.846016e-05
2.066130e+01	-6.925328e-05
2.078064e+01	-7.005559e-05
2.090066e+01	-7.086720e-05
2.102139e+01	-7.168821e-05
2.114280e+01	-7.251873e-05
2.126492e+01	-7.335887e-05
2.138775e+01	-7.420875e-05
2.151128e+01	-7.506847e-05
2.163553e+01	-7.593815e-05
2.176050e+01	-7.681791e-05
2.188619e+01	-7.770786e-05
2.201260e+01	-7.860812e-05
2.213974e+01	-7.951881e-05
2.226762e+01	-8.044005e-05
2.239624e+01	-8.137196e-05
2.252560e+01	-8.231467e-05
2.265571e+01	-8.326829e-05
2.278656e+01	-8.423297e-05
2.291818e+01	-8.520882e-05
2.305055e+01	-8.619598e-05
2.318369e+01	-8.719458e-05
2.331760e+01	-8.820474e-05
2.345228e+01	-8.922661e-05
2.358774e+01	-9.026031e-05
2.372398e+01	-9.130599e-05
2.386101e+01	-9.236379e-05
2.399883e+01	-9.343383e-05
2.413745e+01	-9.451628e-05
2.427686e+01	-9.561126e-05
2.441709e+01	-9.671894e-05
2.455812e+01	-9.783944e-05
2.469997e+01	-9.897292e-05
2.484263e+01	-1.001195e-04
2.498612e+01	-1.012794e-04
2.513044e+01	-1.024528e-04
2.527559e+01	-1.036397e-04
2.542158e+01	-1.048404e-04
2.556842e+01	-1.060550e-04
2.571610e+01	-1.072836e-04
2.586463e+01	-1.085265e-04
2.601403e+01	-1.097838e-04
2.616428e+01	-1.110557e-04
2.631541e+01	-1.123423e-04
2.646740e+01	-1.136438e-04
2.662028e+01	-1.149604e-04
2.677404e+01	-1.162922e-04
2.692868e+01	-1.176394e-04
2.708422e+01	-1.190023e-04
2.724066e+01	-1.203810e-04
2.739800e+01	-1.217756e-04
2.755625e+01	-1.231864e-04
2.771541e+01	-1.246135e-04
2.787550e+01	-1.260572e-04
2.803650e+01	-1.275176e-04
2.819844e+01	-1.289949e-04
2.836131e+01	-1.304893e-04
2.852513e+01	-1.320010e-04
2.868989e+01	-1.335303e-04
2.885560e+01	-1.350772e-04
2.902227e+01	-1.366421e-04
2.918990e+01	-1.382251e-04
2.935850e+01	-1.398265e-04
2.952807e+01	-1.414464e-04
2.969863e+01	-1.430850e-04
2.987016e+01	-1.447427e-04
3.004269e+01	-1.464195e-04
3.021622e+01	-1.481158e-04
3.039075e+01	-1.498318e-04
3.056628e+01	-1.515676e-04
3.074283e+01	-1.533235e-04
3.092040e+01	-1.550998e-04
3.109900e+01	-1.568966e-04
3.127862e+01	-1.587143e-04
3.145929e+01	-1.605530e-04
3.164099e+01	-1.624130e-04
3.182375e+01	-1.642946e-04
3.200756e+01	-1.661979e-04
3.219244e+01	-1.681233e-04
3.237838e+01	-1.700710e-04
3.256540e+01	-1.720413e-04
3.275349e+01	-1.740344e-04
3.294268e+01	-1.760506e-04
3.313295e+01	-1.780902e-04
3.332433e+01	-1.801534e-04
3.351681e+01	-1.822404e-04
3.371040e+01	-1.843517e-04
3.390511e+01	-1.864874e-04
3.410094e+01	-1.886479e-04
3.429791e+01	-1.908334e-04
3.449601e+01	-1.930442e-04
3.469526e+01	-1.952806e-04
3.489566e+01	-1.975429e-04
3.509721e+01	-1.998315e-04
3.529993e+01	-2.021465e-04
3.550382e+01	-2.044884e-04
3.570889e+01	-2.068574e-04
3.591515e+01	-2.092538e-04
3.612259e+01	-2.116780e-04
3.633123e+01	-2.141303e-04
3.654108e+01	-2.166110e-04
3.675214e+01	-2.191205e-04
3.696442e+01	-2.216590e-04
3.717792e+01	-2.242269e-04
3.739266e+01	-2.268246e-04
3.760864e+01	-2.294523e-04
3.782587e+01	-2.321105e-04
3.804435e+01	-2.347995e-04
3.826409e+01	-2.375196e-04
3.848510e+01	-2.402713e-04
3.870739e+01	-2.430548e-04
3.893096e+01	-2.458706e-04
3.915583e+01	-2.487190e-04
3.938199e+01	-2.516004e-04
3.960946e+01	-2.545152e-04
3.983824e+01	-2.574637e-04
4.006834e+01	-2.604464e-04
4.029978e+01	-2.634637e-04
4.053255e+01	-2.665159e-04
4.076666e+01	-2.696034e-04
4.100213e+01	-2.727268e-04
4.123896e+01	-2.758863e-04
4.147715e+01	-2.790824e-04
4.171672e+01	-2.823155e-04
4.195767e+01	-2.855861e-04
4.220002e+01	-2.888946e-04
4.244377e+01	-2.922414e-04
4.268892e+01	-2.956270e-04
4.293549e+01	-2.990518e-04
4.318348e+01	-3.025163e-04
4.343291e+01	-3.060209e-04
4.368377e+01	-3.095661e-04
4.393609e+01	-3.131524e-04
4.418986e+01	-3.167802e-04
4.444510e+01	-3.204501e-04
4.470182e+01	-3.241625e-04
4.496001e+01	-3.279178e-04
4.521970e+01	-3.317167e-04
4.548089e+01	-3.355596e-04
4.574358e+01	-3.394470e-04
4.600779e+01	-3.433794e-04
4.627353e+01	-3.473574e-04
4.654081e+01	-3.513815e-04
4.680963e+01	-3.554521e-04
4.708000e+01	-3.595700e-04
4.735193e+01	-3.637355e-04
4.762543e+01	-3.679493e-04
4.790051e+01	-3.722119e-04
4.817719e+01	-3.765239e-04
4.845545e+01	-3.808859e-04
4.873533e+01	-3.852984e-04
4.901682e+01	-3.897619e-04
4.929994e+01	-3.942772e-04
4.958470e+01	-3.988448e-04
4.987110e+01	-4.034654e-04
5.015915e+01	-4.081394e-04
5.044887e+01	-4.128676e-04
5.074026e+01	-4.176505e-04
5.103333e+01	-4.224889e-04
5.132810e+01	-4.273833e-04
5.162457e+01	-4.323344e-04
5.192275e+01	-4.373429e-04
5.222265e+01	-4.424093e-04
5.252429e+01	-4.475345e-04
5.282767e+01	-4.527191e-04
5.313280e+01	-4.579637e-04
5.343969e+01	-4.632690e-04
5.374836e+01	-4.686358e-04
5.405880e+01	-4.740648e-04
5.437105e+01	-4.795567e-04
5.468509e+01	-4.851122e-04
5.500095e+01	-4.907320e-04
5.531863e+01	-4.964169e-04
5.563815e+01	-5.021677e-04
5.595951e+01	-5.079851e-04
5.628273e+01	-5.138699e-04
5.660782e+01	-5.198229e-04
5.693479e+01	-5.258448e-04
5.726364e+01	-5.319365e-04
5.759439e+01	-5.380988e-04
5.792705e+01	-5.443324e-04
5.826164e+01	-5.506383e-04
5.859815e+01	-5.570171e-04
5.893662e+01	-5.634699e-04
5.927703e+01	-5.699974e-04
5.961941e+01	-5.766006e-04
5.996377e+01	-5.832802e-04
6.031012e+01	-5.900372e-04
6.065847e+01	-5.968725e-04
6.100883e+01	-6.037869e-04
6.136121e+01	-6.107815e-04
6.171563e+01	-6.178571e-04
6.207210e+01	-6.250146e-04
6.243063e+01	-6.322550e-04
6.279122e+01	-6.395793e-04
6.315390e+01	-6.469885e-04
6.351868e+01	-6.544835e-04
6.388556e+01	-6.620653e-04
6.425456e+01	-6.697349e-04
6.462569e+01	-6.774933e-04
6.499897e+01	-6.853417e-04
6.537440e+01	-6.932809e-04
6.575200e+01	-7.013121e-04
6.613178e+01	-7.094363e-04
6.651375e+01	-7.176547e-04
6.689793e+01	-7.259682e-04
6.728433e+01	-7.343780e-04
6.767297e+01	-7.428853e-04
6.806384e+01	-7.514911e-04
6.845698e+01	-7.601965e-04
6.885238e+01	-7.690028e-04
6.925007e+01	-7.779111e-04
6.965005e+01	-7.869226e-04
7.005235e+01	-7.960385e-04
7.045697e+01	-8.052600e-04
7.086393e+01	-8.145883e-04
7.127323e+01	-8.240246e-04
7.168490e+01	-8.335702e-04
7.209895e+01	-8.432264e-04
7.251539e+01	-8.529945e-04
7.293424e+01	-8.628757e-04
7.335551e+01	-8.728713e-04
7.377920e+01	-8.829828e-04
7.420535e+01	-8.932113e-04
7.463396e+01	-9.035583e-04
7.506504e+01	-9.140252e-04
7.549861e+01	-9.246133e-04
7.593469e+01	-9.353240e-04
7.637328e+01	-9.461588e-04
7.681441e+01	-9.571191e-04
7.725809e+01	-9.682064e-04
7.770433e+01	-9.794221e-04
7.815315e+01	-9.907676e-04
7.860456e+01	-1.002245e-03
7.905857e+01	-1.013855e-03
7.951521e+01	-1.025599e-03
7.997449e+01	-1.037479e-03
8.043642e+01	-1.049497e-03
8.090102e+01	-1.061655e-03
8.136830e+01	-1.073953e-03
8.183828e+01	-1.086393e-03
8.231097e+01	-1.098978e-03
8.278640e+01	-1.111708e-03
8.326457e+01	-1.124586e-03
8.374550e+01	-1.137613e-03
8.422921e+01	-1.150791e-03
8.471572e+01	-1.164121e-03
8.520503e+01	-1.177606e-03
8.569717e+01	-1.191247e-03
8.619215e+01	-1.205046e-03
8.669000e+01	-1.219005e-03
8.719071e+01	-1.233125e-03
8.769432e+01	-1.247409e-03
8.820084e+01	-1.261859e-03
8.871029e+01	-1.276475e-03
8.922267e+01	-1.291262e-03
8.973802e+01	-1.306219e-03
9.025634e+01	-1.321350e-03
9.077766e+01	-1.336655e-03
9.130199e+01	-1.352139e-03
9.182935e+01	-1.367801e-03
9.235975e+01	-1.383645e-03
9.289321e+01	-1.399672e-03
9.342976e+01	-1.415885e-03
9.396941e+01	-1.432286e-03
9.451217e+01	-1.448876e-03
9.505807e+01	-1.465659e-03
9.560712e+01	-1.482636e-03
9.615934e+01	-1.499810e-03
9.671476e+01	-1.517183e-03
9.727338e+01	-1.534757e-03
9.783522e+01	-1.552534e-03
9.840032e+01	-1.570517e-03
9.896867e+01	-1.588709e-03
9.954031e+01	-1.607111e-03
1.001153e+02	-1.625726e-03
1.006935e+02	-1.644557e-03
1.012751e+02	-1.663606e-03
1.018601e+02	-1.682876e-03
1.024484e+02	-1.702369e-03
1.030402e+02	-1.722087e-03
1.036353e+02	-1.742034e-03
1.042339e+02	-1.762212e-03
1.048360e+02	-1.782623e-03
1.054415e+02	-1.803271e-03
1.060505e+02	-1.824158e-03
1.066631e+02	-1.845287e-03
1.072791e+02	-1.866661e-03
1.078988e+02	-1.888282e-03
1.085220e+02	-1.910153e-03
1.091488e+02	-1.932278e-03
1.097793e+02	-1.954659e-03
1.104133e+02	-1.977299e-03
1.110511e+02	-2.000201e-03
1.116925e+02	-2.023368e-03
1.123376e+02	-2.046804e-03
1.129865e+02	-2.070511e-03
1.136391e+02	-2.094493e-03
1.142955e+02	-2.118752e-03
1.149556e+02	-2.143293e-03
1.156196e+02	-2.168117e-03
1.162874e+02	-2.193229e-03
1.169591e+02	-2.218631e-03
1.176347e+02	-2.244328e-03
1.183141e+02	-2.270323e-03
1.189975e+02	-2.296618e-03
1.196848e+02	-2.323218e-03
1.203761e+02	-2.350126e-03
1.210714e+02	-2.377345e-03
1.217707e+02	-2.404879e-03
1.224740e+02	-2.432733e-03
1.231814e+02	-2.460909e-03
1.238929e+02	-2.489411e-03
1.246085e+02	-2.518243e-03
1.253283e+02	-2.547409e-03
1.260522e+02	-2.576913e-03
1.267802e+02	-2.606758e-03
1.275125e+02	-2.636949e-03
1.282490e+02	-2.667489e-03
1.289898e+02	-2.698383e-03
1.297348e+02	-2.729635e-03
1.304842e+02	-2.761248e-03
1.312378e+02	-2.793228e-03
1.319959e+02	-2.825577e-03
1.327583e+02	-2.858302e-03
1.335251e+02	-2.891405e-03
1.342963e+02	-2.924891e-03
1.350720e+02	-2.958765e-03
1.358522e+02	-2.993031e-03
1.366368e+02	-3.027694e-03
1.374260e+02	-3.062759e-03
1.382198e+02	-3.098229e-03
1.390182e+02	-3.134110e-03
1.398211e+02	-3.170406e-03
1.406287e+02	-3.207122e-03
1.414410e+02	-3.244264e-03
1.422579e+02	-3.281835e-03
1.430796e+02	-3.319842e-03
1.439060e+02	-3.358288e-03
1.447372e+02	-3.397179e-03
1.455732e+02	-3.436521e-03
1.464141e+02	-3.476318e-03
1.472597e+02	-3.516576e-03
1.481103e+02	-3.557299e-03
1.489658e+02	-3.598495e-03
1.498262e+02	-3.640167e-03
1.506916e+02	-3.682321e-03
1.515620e+02	-3.724963e-03
1.524374e+02	-3.768099e-03
1.533179e+02	-3.811734e-03
1.542034e+02	-3.855875e-03
1.550941e+02	-3.900526e-03
1.559899e+02	-3.945694e-03
1.568909e+02	-3.991385e-03
1.577971e+02	-4.037605e-03
1.587085e+02	-4.084359e-03
1.596252e+02	-4.131655e-03
1.605472e+02	-4.179498e-03
1.614745e+02	-4.227895e-03
1.624072e+02	-4.276852e-03
1.633453e+02	-4.326376e-03
1.642887e+02	-4.376473e-03
1.652377e+02	-4.427150e-03
1.661921e+02	-4.478413e-03
1.671520e+02	-4.530269e-03
1.681175e+02	-4.582726e-03
1.690885e+02	-4.635790e-03
1.700651e+02	-4.689467e-03
1.710474e+02	-4.743766e-03
1.720354e+02	-4.798694e-03
1.730291e+02	-4.854257e-03
1.740285e+02	-4.910463e-03
1.750337e+02	-4.967319e-03
1.760446e+02	-5.024833e-03
1.770615e+02	-5.083013e-03
1.780842e+02	-5.141866e-03
1.791128e+02	-5.201401e-03
1.801473e+02	-5.261624e-03
1.811878e+02	-5.322543e-03
1.822344e+02	-5.384168e-03
1.832870e+02	-5.446506e-03
1.843456e+02	-5.509565e-03
1.854104e+02	-5.573354e-03
1.864813e+02	-5.637880e-03
1.875584e+02	-5.703154e-03
1.886418e+02	-5.769182e-03
1.897313e+02	-5.835975e-03
1.908272e+02	-5.903540e-03
1.919294e+02	-5.971887e-03
1.930380e+02	-6.041024e-03
1.941530e+02	-6.110962e-03
1.952744e+02	-6.181709e-03
1.964023e+02	-6.253274e-03
1.975367e+02	-6.325666e-03
1.986777e+02	-6.398897e-03
1.998252e+02	-6.472974e-03
2.009794e+02	-6.547909e-03
2.021403e+02	-6.623710e-03
2.033078e+02	-6.700388e-03
2.044821e+02	-6.777953e-03
2.056632e+02	-6.856415e-03
2.068511e+02	-6.935785e-03
2.080459e+02	-7.016073e-03
2.092475e+02	-7.097289e-03
2.104561e+02	-7.179445e-03
2.116717e+02	-7.262551e-03
2.128943e+02	-7.346618e-03
2.141240e+02	-7.431658e-03
2.153608e+02	-7.517681e-03
2.166047e+02	-7.604698e-03
2.178558e+02	-7.692723e-03
2.191141e+02	-7.781765e-03
2.203797e+02	-7.871836e-03
2.216526e+02	-7.962950e-03
2.229329e+02	-8.055117e-03
2.242205e+02	-8.148350e-03
2.255156e+02	-8.242661e-03
2.268182e+02	-8.338062e-03
2.281283e+02	-8.434567e-03
2.294459e+02	-8.532187e-03
2.307712e+02	-8.630936e-03
2.321041e+02	-8.730827e-03
2.334447e+02	-8.831873e-03
2.347931e+02	-8.934087e-03
2.361493e+02	-9.037482e-03
2.375133e+02	-9.142073e-03
2.388851e+02	-9.247874e-03
2.402649e+02	-9.354897e-03
2.416527e+02	-9.463157e-03
2.430484e+02	-9.572669e-03
2.444523e+02	-9.683447e-03
2.458642e+02	-9.795505e-03
2.472843e+02	-9.908859e-03
2.487126e+02	-1.002352e-02
2.501492e+02	-1.013951e-02
2.515940e+02	-1.025684e-02
2.530472e+02	-1.037553e-02
2.545088e+02	-1.049558e-02
2.559789e+02	-1.061703e-02
2.574574e+02	-1.073988e-02
2.589444e+02	-1.086415e-02
2.604401e+02	-1.098985e-02
2.619444e+02	-1.111701e-02
2.634574e+02	-1.124563e-02
2.649791e+02	-1.137575e-02
2.665096e+02	-1.150736e-02
2.680489e+02	-1.164050e-02
2.695972e+02	-1.177517e-02
2.711544e+02	-1.191140e-02
2.727205e+02	-1.204921e-02
2.742958e+02	-1.218861e-02
2.758801e+02	-1.232961e-02
2.774736e+02	-1.247225e-02
2.790762e+02	-1.261653e-02
2.806882e+02	-1.276248e-02
2.823094e+02	-1.291012e-02
2.839400e+02	-1.305946e-02
2.855800e+02	-1.321053e-02
2.872295e+02	-1.336334e-02
2.888886e+02	-1.351791e-02
2.905572e+02	-1.367427e-02
2.922354e+02	-1.383244e-02
2.939234e+02	-1.399244e-02
2.956211e+02	-1.415428e-02
2.973286e+02	-1.431799e-02
2.990459e+02	-1.448359e-02
3.007732e+02	-1.465110e-02
3.025104e+02	-1.482054e-02
3.042577e+02	-1.499195e-02
3.060151e+02	-1.516533e-02
3.077826e+02	-1.534071e-02
3.095604e+02	-1.551812e-02
3.113484e+02	-1.569757e-02
3.131467e+02	-1.587910e-02
3.149554e+02	-1.606272e-02
3.167746e+02	-1.624847e-02
3.186043e+02	-1.643635e-02
3.204445e+02	-1.662640e-02
3.222954e+02	-1.681865e-02
3.241570e+02	-1.701312e-02
3.260293e+02	-1.720983e-02
3.279124e+02	-1.740881e-02
3.298064e+02	-1.761008e-02
3.317114e+02	-1.781368e-02
3.336273e+02	-1.801963e-02
3.355544e+02	-1.822795e-02
3.374925e+02	-1.843867e-02
3.394418e+02	-1.865183e-02
3.414024e+02	-1.886745e-02
3.433744e+02	-1.908555e-02
3.453577e+02	-1.930617e-02
3.473525e+02	-1.952933e-02
3.493588e+02	-1.975506e-02
3.513766e+02	-1.998340e-02
3.534062e+02	-2.021438e-02
3.554474e+02	-2.044801e-02
3.575005e+02	-2.068434e-02
3.595654e+02	-2.092340e-02
3.616422e+02	-2.116521e-02
3.637311e+02	-2.140981e-02
3.658320e+02	-2.165722e-02
3.679450e+02	-2.190749e-02
3.700702e+02	-2.216065e-02
3.722077e+02	-2.241672e-02
3.743576e+02	-2.267574e-02
3.765199e+02	-2.293775e-02
3.786946e+02	-2.320278e-02
3.808820e+02	-2.347086e-02
3.830819e+02	-2.374203e-02
3.852946e+02	-2.401633e-02
3.875200e+02	-2.429378e-02
3.897583e+02	-2.457443e-02
3.920096e+02	-2.485832e-02
3.942738e+02	-2.514547e-02
3.965511e+02	-2.543593e-02
3.988416e+02	-2.572974e-02
4.011452e+02	-2.602693e-02
4.034622e+02	-2.632754e-02
4.057926e+02	-2.663161e-02
4.081365e+02	-2.693919e-02
4.104938e+02	-2.725030e-02
4.128648e+02	-2.756500e-02
4.152495e+02	-2.788332e-02
4.176480e+02	-2.820530e-02
4.200603e+02	-2.853099e-02
4.224866e+02	-2.886043e-02
4.249268e+02	-2.919366e-02
4.273812e+02	-2.953072e-02
4.298497e+02	-2.987167e-02
4.323325e+02	-3.021653e-02
4.348297e+02	-3.056536e-02
4.373412e+02	-3.091820e-02
4.398673e+02	-3.127511e-02
4.424079e+02	-3.163611e-02
4.449633e+02	-3.200127e-02
4.475334e+02	-3.237063e-02
4.501183e+02	-3.274424e-02
4.527182e+02	-3.312214e-02
4.553330e+02	-3.350438e-02
4.579630e+02	-3.389102e-02
4.606082e+02	-3.428210e-02
4.632687e+02	-3.467768e-02
4.659445e+02	-3.507780e-02
4.686358e+02	-3.548253e-02
4.713426e+02	-3.589190e-02
4.740650e+02	-3.630597e-02
4.768032e+02	-3.672480e-02
4.795572e+02	-3.714845e-02
4.823271e+02	-3.757696e-02
4.851130e+02	-3.801039e-02
4.879150e+02	-3.844879e-02
4.907332e+02	-3.889223e-02
4.935676e+02	-3.934076e-02
4.964185e+02	-3.979445e-02
4.992858e+02	-4.025333e-02
5.021696e+02	-4.071749e-02
5.050701e+02	-4.118697e-02
5.079874e+02	-4.166184e-02
5.109215e+02	-4.214216e-02
5.138726e+02	-4.262798e-02
5.168407e+02	-4.311938e-02
5.198259e+02	-4.361642e-02
5.228284e+02	-4.411916e-02
5.258482e+02	-4.462766e-02
5.288855e+02	-4.514199e-02
5.319403e+02	-4.566222e-02
5.350128e+02	-4.618841e-02
5.381030e+02	-4.672063e-02
5.412111e+02	-4.725895e-02
5.443371e+02	-4.780344e-02
5.474812e+02	-4.835417e-02
5.506434e+02	-4.891121e-02
5.538239e+02	-4.947462e-02
5.570228e+02	-5.004449e-02
5.602401e+02	-5.062089e-02
5.634760e+02	-5.120388e-02
5.667306e+02	-5.179355e-02
5.700040e+02	-5.238997e-02
5.732964e+02	-5.299321e-02
5.766077e+02	-5.360336e-02
5.799382e+02	-5.422049e-02
5.832879e+02	-5.484468e-02
5.866569e+02	-5.547601e-02
5.900454e+02	-5.611455e-02
5.934535e+02	-5.676040e-02
5.968813e+02	-5.741364e-02
6.003288e+02	-5.807434e-02
6.037963e+02	-5.874259e-02
6.072838e+02	-5.941848e-02
6.107914e+02	-6.010209e-02
6.143194e+02	-6.079352e-02
6.178676e+02	-6.149284e-02
6.214364e+02	-6.220014e-02
6.250258e+02	-6.291553e-02
6.286359e+02	-6.363908e-02
6.322669e+02	-6.437089e-02
6.359189e+02	-6.511105e-02
6.395919e+02	-6.585966e-02
6.432862e+02	-6.661680e-02
6.470017e+02	-6.738259e-02
6.507388e+02	-6.815711e-02
6.544974e+02	-6.894046e-02
6.582778e+02	-6.973274e-02
6.620800e+02	-7.053405e-02
6.659041e+02	-7.134450e-02
6.697504e+02	-7.216418e-02
6.736188e+02	-7.299320e-02
6.775096e+02	-7.383166e-02
6.814229e+02	-7.467966e-02
6.853587e+02	-7.553733e-02
6.893173e+02	-7.640475e-02
6.932988e+02	-7.728205e-02
6.973033e+02	-7.816933e-02
7.013309e+02	-7.906671e-02
