Frequency(Hz)	Magnitude(dB)
1.000000e+01	-2.066468e+00
1.005776e+01	-2.085501e+00
1.011585e+01	-2.104476e+00
1.017428e+01	-2.124042e+00
1.023305e+01	-2.143206e+00
1.029215e+01	-2.162965e+00
1.035160e+01	-2.182795e+00
1.041139e+01	-2.202530e+00
1.047153e+01	-2.222331e+00
1.053201e+01	-2.242499e+00
1.059284e+01	-2.262760e+00
1.065403e+01	-2.283159e+00
1.071556e+01	-2.303753e+00
1.077746e+01	-2.324284e+00
1.083971e+01	-2.345353e+00
1.090232e+01	-2.366159e+00
1.096529e+01	-2.387244e+00
1.102862e+01	-2.408502e+00
1.109232e+01	-2.429682e+00
1.115639e+01	-2.451075e+00
1.122083e+01	-2.472908e+00
1.128564e+01	-2.494634e+00
1.135083e+01	-2.516640e+00
1.141639e+01	-2.538684e+00
1.148233e+01	-2.561114e+00
1.154865e+01	-2.583315e+00
1.161536e+01	-2.605671e+00
1.168245e+01	-2.628390e+00
1.174992e+01	-2.651138e+00
1.181779e+01	-2.674219e+00
1.188605e+01	-2.697292e+00
1.195470e+01	-2.720557e+00
1.202375e+01	-2.743935e+00
1.209320e+01	-2.767347e+00
1.216305e+01	-2.790662e+00
1.223330e+01	-2.814813e+00
1.230396e+01	-2.838552e+00
1.237503e+01	-2.862757e+00
1.244651e+01	-2.886765e+00
1.251840e+01	-2.911350e+00
1.259070e+01	-2.935949e+00
1.266343e+01	-2.960509e+00
1.273657e+01	-2.985297e+00
1.281014e+01	-3.010094e+00
1.288413e+01	-3.035363e+00
1.295855e+01	-3.060480e+00
1.303339e+01	-3.085876e+00
1.310867e+01	-3.111603e+00
1.318439e+01	-3.136891e+00
1.326054e+01	-3.162730e+00
1.333713e+01	-3.188574e+00
1.341417e+01	-3.214835e+00
1.349165e+01	-3.241097e+00
1.356958e+01	-3.267550e+00
1.364795e+01	-3.293872e+00
1.372678e+01	-3.320827e+00
1.380607e+01	-3.347555e+00
1.388581e+01	-3.374432e+00
1.396602e+01	-3.401432e+00
1.404668e+01	-3.428842e+00
1.412782e+01	-3.456317e+00
1.420942e+01	-3.483644e+00
1.429149e+01	-3.511483e+00
1.437404e+01	-3.539167e+00
1.445706e+01	-3.567262e+00
1.454057e+01	-3.595125e+00
1.462455e+01	-3.623496e+00
1.470902e+01	-3.651861e+00
1.479398e+01	-3.680306e+00
1.487943e+01	-3.709012e+00
1.496537e+01	-3.737939e+00
1.505181e+01	-3.766694e+00
1.513875e+01	-3.795723e+00
1.522619e+01	-3.824928e+00
1.531414e+01	-3.854380e+00
1.540259e+01	-3.883913e+00
1.549156e+01	-3.913539e+00
1.558103e+01	-3.943171e+00
1.567103e+01	-3.973278e+00
1.576155e+01	-4.003280e+00
1.585258e+01	-4.033648e+00
1.594415e+01	-4.063868e+00
1.603624e+01	-4.094358e+00
1.612886e+01	-4.124810e+00
1.622202e+01	-4.155635e+00
1.631572e+01	-4.186473e+00
1.640996e+01	-4.217582e+00
1.650474e+01	-4.248586e+00
1.660008e+01	-4.279772e+00
1.669596e+01	-4.311297e+00
1.679239e+01	-4.343105e+00
1.688938e+01	-4.374738e+00
1.698694e+01	-4.406513e+00
1.708505e+01	-4.438160e+00
1.718373e+01	-4.470485e+00
1.728299e+01	-4.502538e+00
1.738281e+01	-4.535030e+00
1.748322e+01	-4.567289e+00
1.758420e+01	-4.600459e+00
1.768576e+01	-4.633189e+00
1.778792e+01	-4.665707e+00
1.789066e+01	-4.698835e+00
1.799399e+01	-4.731795e+00
1.809793e+01	-4.764895e+00
1.820246e+01	-4.798596e+00
1.830760e+01	-4.832006e+00
1.841334e+01	-4.865763e+00
1.851969e+01	-4.899497e+00
1.862666e+01	-4.933669e+00
1.873425e+01	-4.967463e+00
1.884246e+01	-5.001579e+00
1.895129e+01	-5.035788e+00
1.906075e+01	-5.070431e+00
1.917085e+01	-5.104701e+00
1.928158e+01	-5.139528e+00
1.939295e+01	-5.174540e+00
1.950496e+01	-5.208948e+00
1.961762e+01	-5.243902e+00
1.973093e+01	-5.279167e+00
1.984490e+01	-5.314532e+00
1.995952e+01	-5.349950e+00
2.007480e+01	-5.385524e+00
2.019076e+01	-5.421095e+00
2.030738e+01	-5.456474e+00
2.042467e+01	-5.492369e+00
2.054264e+01	-5.528443e+00
2.066130e+01	-5.564427e+00
2.078064e+01	-5.600789e+00
2.090066e+01	-5.636982e+00
2.102139e+01	-5.673550e+00
2.114280e+01	-5.710171e+00
2.126492e+01	-5.746350e+00
2.138775e+01	-5.783653e+00
2.151128e+01	-5.820116e+00
2.163553e+01	-5.857192e+00
2.176050e+01	-5.894226e+00
2.188619e+01	-5.931603e+00
2.201260e+01	-5.969025e+00
2.213974e+01	-6.006142e+00
2.226762e+01	-6.043880e+00
2.239624e+01	-6.081637e+00
2.252560e+01	-6.119290e+00
2.265571e+01	-6.157072e+00
2.278656e+01	-6.195265e+00
2.291818e+01	-6.233347e+00
2.305055e+01	-6.271086e+00
2.318369e+01	-6.309691e+00
2.331760e+01	-6.347924e+00
2.345228e+01	-6.386376e+00
2.358774e+01	-6.424700e+00
2.372398e+01	-6.463585e+00
2.386101e+01	-6.502619e+00
2.399883e+01	-6.541299e+00
2.413745e+01	-6.580200e+00
2.427686e+01	-6.619475e+00
2.441709e+01	-6.658447e+00
2.455812e+01	-6.697935e+00
2.469997e+01	-6.737316e+00
2.484263e+01	-6.776552e+00
2.498612e+01	-6.816471e+00
2.513044e+01	-6.855764e+00
2.527559e+01	-6.895815e+00
2.542158e+01	-6.935527e+00
2.556842e+01	-6.975142e+00
2.571610e+01	-7.015455e+00
2.586463e+01	-7.055265e+00
2.601403e+01	-7.095609e+00
2.616428e+01	-7.135986e+00
2.631541e+01	-7.176377e+00
2.646740e+01	-7.216854e+00
2.662028e+01	-7.258021e+00
2.677404e+01	-7.298444e+00
2.692868e+01	-7.339091e+00
2.708422e+01	-7.379699e+00
2.724066e+01	-7.420800e+00
2.739800e+01	-7.461588e+00
2.755625e+01	-7.503092e+00
2.771541e+01	-7.543757e+00
2.787550e+01	-7.584930e+00
2.803650e+01	-7.626808e+00
2.819844e+01	-7.667693e+00
2.836131e+01	-7.709705e+00
2.852513e+01	-7.751209e+00
2.868989e+01	-7.792724e+00
2.885560e+01	-7.834494e+00
2.902227e+01	-7.876727e+00
2.918990e+01	-7.918054e+00
2.935850e+01	-7.960167e+00
2.952807e+01	-8.002436e+00
2.969863e+01	-8.044655e+00
2.987016e+01	-8.086548e+00
3.004269e+01	-8.129149e+00
3.021622e+01	-8.171310e+00
3.039075e+01	-8.214047e+00
3.056628e+01	-8.256579e+00
3.074283e+01	-8.298970e+00
3.092040e+01	-8.341304e+00
3.109900e+01	-8.384274e+00
3.127862e+01	-8.427037e+00
3.145929e+01	-8.469752e+00
3.164099e+01	-8.512604e+00
3.182375e+01	-8.556010e+00
3.200756e+01	-8.598961e+00
3.219244e+01	-8.641891e+00
3.237838e+01	-8.685601e+00
3.256540e+01	-8.728539e+00
3.275349e+01	-8.771798e+00
3.294268e+01	-8.815260e+00
3.313295e+01	-8.859254e+00
3.332433e+01	-8.902654e+00
3.351681e+01	-8.946081e+00
3.371040e+01	-8.989863e+00
3.390511e+01	-9.033531e+00
3.410094e+01	-9.077387e+00
3.429791e+01	-9.121555e+00
3.449601e+01	-9.165106e+00
3.469526e+01	-9.209137e+00
3.489566e+01	-9.253500e+00
3.509721e+01	-9.297386e+00
3.529993e+01	-9.341436e+00
3.550382e+01	-9.385066e+00
3.570889e+01	-9.430057e+00
3.591515e+01	-9.474401e+00
3.612259e+01	-9.518695e+00
3.633123e+01	-9.562897e+00
3.654108e+01	-9.607590e+00
3.675214e+01	-9.651863e+00
3.696442e+01	-9.696941e+00
3.717792e+01	-9.741632e+00
3.739266e+01	-9.786725e+00
3.760864e+01	-9.830925e+00
3.782587e+01	-9.876519e+00
3.804435e+01	-9.920559e+00
3.826409e+01	-9.966185e+00
3.848510e+01	-1.001084e+01
3.870739e+01	-1.005578e+01
3.893096e+01	-1.010123e+01
3.915583e+01	-1.014640e+01
3.938199e+01	-1.019172e+01
3.960946e+01	-1.023704e+01
3.983824e+01	-1.028229e+01
4.006834e+01	-1.032722e+01
4.029978e+01	-1.037285e+01
4.053255e+01	-1.041826e+01
4.076666e+01	-1.046469e+01
4.100213e+01	-1.050910e+01
4.123896e+01	-1.055497e+01
4.147715e+01	-1.060043e+01
4.171672e+01	-1.064619e+01
4.195767e+01	-1.069171e+01
4.220002e+01	-1.073725e+01
4.244377e+01	-1.078369e+01
4.268892e+01	-1.082967e+01
4.293549e+01	-1.087522e+01
4.318348e+01	-1.092181e+01
4.343291e+01	-1.096714e+01
4.368377e+01	-1.101331e+01
4.393609e+01	-1.105963e+01
4.418986e+01	-1.110536e+01
4.444510e+01	-1.115202e+01
4.470182e+01	-1.119786e+01
4.496001e+01	-1.124369e+01
4.521970e+01	-1.129012e+01
4.548089e+01	-1.133674e+01
4.574358e+01	-1.138375e+01
4.600779e+01	-1.142978e+01
4.627353e+01	-1.147608e+01
4.654081e+01	-1.152274e+01
4.680963e+01	-1.156883e+01
4.708000e+01	-1.161574e+01
4.735193e+01	-1.166219e+01
4.762543e+01	-1.170937e+01
4.790051e+01	-1.175509e+01
4.817719e+01	-1.180241e+01
4.845545e+01	-1.184891e+01
4.873533e+01	-1.189547e+01
4.901682e+01	-1.194206e+01
4.929994e+01	-1.198926e+01
4.958470e+01	-1.203606e+01
4.987110e+01	-1.208338e+01
5.015915e+01	-1.213083e+01
5.044887e+01	-1.217707e+01
5.074026e+01	-1.222400e+01
5.103333e+01	-1.227134e+01
5.132810e+01	-1.231828e+01
5.162457e+01	-1.236555e+01
5.192275e+01	-1.241289e+01
5.222265e+01	-1.245978e+01
5.252429e+01	-1.250667e+01
5.282767e+01	-1.255413e+01
5.313280e+01	-1.260098e+01
5.343969e+01	-1.264836e+01
5.374836e+01	-1.269605e+01
5.405880e+01	-1.274320e+01
5.437105e+01	-1.279056e+01
5.468509e+01	-1.283814e+01
5.500095e+01	-1.288600e+01
5.531863e+01	-1.293311e+01
5.563815e+01	-1.298100e+01
5.595951e+01	-1.302840e+01
5.628273e+01	-1.307573e+01
5.660782e+01	-1.312360e+01
5.693479e+01	-1.317120e+01
5.726364e+01	-1.321862e+01
5.759439e+01	-1.326621e+01
5.792705e+01	-1.331490e+01
5.826164e+01	-1.336133e+01
5.859815e+01	-1.340947e+01
5.893662e+01	-1.345694e+01
5.927703e+01	-1.350541e+01
5.961941e+01	-1.355205e+01
5.996377e+01	-1.360070e+01
6.031012e+01	-1.364802e+01
6.065847e+01	-1.369556e+01
6.100883e+01	-1.374394e+01
6.136121e+01	-1.379197e+01
6.171563e+01	-1.384042e+01
6.207210e+01	-1.388760e+01
6.243063e+01	-1.393615e+01
6.279122e+01	-1.398455e+01
6.315390e+01	-1.403295e+01
6.351868e+01	-1.408002e+01
6.388556e+01	-1.412774e+01
6.425456e+01	-1.417644e+01
6.462569e+01	-1.422363e+01
6.499897e+01	-1.427206e+01
6.537440e+01	-1.432057e+01
6.575200e+01	-1.436876e+01
6.613178e+01	-1.441746e+01
6.651375e+01	-1.446571e+01
6.689793e+01	-1.451431e+01
6.728433e+01	-1.456213e+01
6.767297e+01	-1.460984e+01
6.806384e+01	-1.465866e+01
6.845698e+01	-1.470664e+01
6.885238e+01	-1.475435e+01
6.925007e+01	-1.480316e+01
6.965005e+01	-1.485129e+01
7.005235e+01	-1.490010e+01
7.045697e+01	-1.494925e+01
7.086393e+01	-1.499825e+01
7.127323e+01	-1.504609e+01
7.168490e+01	-1.509386e+01
7.209895e+01	-1.514293e+01
7.251539e+01	-1.519101e+01
7.293424e+01	-1.523937e+01
7.335551e+01	-1.528798e+01
7.377920e+01	-1.533705e+01
7.420535e+01	-1.538557e+01
7.463396e+01	-1.543397e+01
7.506504e+01	-1.548309e+01
7.549861e+01	-1.553092e+01
7.593469e+01	-1.557920e+01
7.637328e+01	-1.562792e+01
7.681441e+01	-1.567691e+01
7.725809e+01	-1.572556e+01
7.770433e+01	-1.577473e+01
7.815315e+01	-1.582265e+01
7.860456e+01	-1.587195e+01
7.905857e+01	-1.592053e+01
7.951521e+01	-1.596944e+01
7.997449e+01	-1.601847e+01
8.043642e+01	-1.606641e+01
8.090102e+01	-1.611526e+01
8.136830e+01	-1.616341e+01
8.183828e+01	-1.621368e+01
8.231097e+01	-1.626235e+01
8.278640e+01	-1.631154e+01
8.326457e+01	-1.635877e+01
8.374550e+01	-1.640952e+01
8.422921e+01	-1.645789e+01
8.471572e+01	-1.650680e+01
8.520503e+01	-1.655637e+01
8.569717e+01	-1.660541e+01
8.619215e+01	-1.665372e+01
8.669000e+01	-1.670167e+01
8.719071e+01	-1.675103e+01
8.769432e+01	-1.679998e+01
8.820084e+01	-1.684906e+01
8.871029e+01	-1.689791e+01
8.922267e+01	-1.694655e+01
8.973802e+01	-1.699615e+01
9.025634e+01	-1.704480e+01
9.077766e+01	-1.709444e+01
9.130199e+01	-1.714299e+01
9.182935e+01	-1.719249e+01
9.235975e+01	-1.724149e+01
9.289321e+01	-1.729077e+01
9.342976e+01	-1.734094e+01
9.396941e+01	-1.738901e+01
9.451217e+01	-1.743810e+01
9.505807e+01	-1.748742e+01
9.560712e+01	-1.753675e+01
9.615934e+01	-1.758504e+01
9.671476e+01	-1.763492e+01
9.727338e+01	-1.768264e+01
9.783522e+01	-1.773373e+01
9.840032e+01	-1.778192e+01
9.896867e+01	-1.783132e+01
9.954031e+01	-1.788057e+01
1.001153e+02	-1.792816e+01
1.006935e+02	-1.797809e+01
1.012751e+02	-1.802884e+01
1.018601e+02	-1.807734e+01
1.024484e+02	-1.812644e+01
1.030402e+02	-1.817476e+01
1.036353e+02	-1.822587e+01
1.042339e+02	-1.827411e+01
1.048360e+02	-1.832313e+01
1.054415e+02	-1.837401e+01
1.060505e+02	-1.842194e+01
1.066631e+02	-1.847351e+01
1.072791e+02	-1.852100e+01
1.078988e+02	-1.857179e+01
1.085220e+02	-1.861868e+01
1.091488e+02	-1.866896e+01
1.097793e+02	-1.871937e+01
1.104133e+02	-1.876838e+01
1.110511e+02	-1.881683e+01
1.116925e+02	-1.886725e+01
1.123376e+02	-1.891625e+01
1.129865e+02	-1.896432e+01
1.136391e+02	-1.901471e+01
1.142955e+02	-1.906366e+01
1.149556e+02	-1.911245e+01
1.156196e+02	-1.916263e+01
1.162874e+02	-1.921155e+01
1.169591e+02	-1.926110e+01
1.176347e+02	-1.931193e+01
1.183141e+02	-1.936006e+01
1.189975e+02	-1.940970e+01
1.196848e+02	-1.945912e+01
1.203761e+02	-1.951099e+01
1.210714e+02	-1.955934e+01
1.217707e+02	-1.960889e+01
1.224740e+02	-1.966015e+01
1.231814e+02	-1.970750e+01
1.238929e+02	-1.975659e+01
1.246085e+02	-1.980678e+01
1.253283e+02	-1.985533e+01
1.260522e+02	-1.990503e+01
1.267802e+02	-1.995447e+01
1.275125e+02	-2.000579e+01
1.282490e+02	-2.005496e+01
1.289898e+02	-2.010377e+01
1.297348e+02	-2.015287e+01
1.304842e+02	-2.020203e+01
1.312378e+02	-2.025253e+01
1.319959e+02	-2.030125e+01
1.327583e+02	-2.035233e+01
1.335251e+02	-2.040091e+01
1.342963e+02	-2.045019e+01
1.350720e+02	-2.049946e+01
1.358522e+02	-2.054926e+01
1.366368e+02	-2.059954e+01
1.374260e+02	-2.064932e+01
1.382198e+02	-2.069952e+01
1.390182e+02	-2.074784e+01
1.398211e+02	-2.079860e+01
1.406287e+02	-2.084739e+01
1.414410e+02	-2.089567e+01
1.422579e+02	-2.094644e+01
1.430796e+02	-2.099641e+01
1.439060e+02	-2.104521e+01
1.447372e+02	-2.109428e+01
1.455732e+02	-2.114471e+01
1.464141e+02	-2.119534e+01
1.472597e+02	-2.124385e+01
1.481103e+02	-2.129486e+01
1.489658e+02	-2.134432e+01
1.498262e+02	-2.139221e+01
1.506916e+02	-2.144390e+01
1.515620e+02	-2.149454e+01
1.524374e+02	-2.154284e+01
1.533179e+02	-2.159067e+01
1.542034e+02	-2.164170e+01
1.550941e+02	-2.169101e+01
1.559899e+02	-2.174063e+01
1.568909e+02	-2.179018e+01
1.577971e+02	-2.184113e+01
1.587085e+02	-2.188918e+01
1.596252e+02	-2.193911e+01
1.605472e+02	-2.199062e+01
1.614745e+02	-2.203951e+01
1.624072e+02	-2.209142e+01
1.633453e+02	-2.213951e+01
1.642887e+02	-2.218739e+01
1.652377e+02	-2.223911e+01
1.661921e+02	-2.229000e+01
1.671520e+02	-2.233749e+01
1.681175e+02	-2.238702e+01
1.690885e+02	-2.243847e+01
1.700651e+02	-2.248504e+01
1.710474e+02	-2.253821e+01
1.720354e+02	-2.258577e+01
1.730291e+02	-2.263783e+01
1.740285e+02	-2.268695e+01
1.750337e+02	-2.273494e+01
1.760446e+02	-2.278560e+01
1.770615e+02	-2.283627e+01
1.780842e+02	-2.288587e+01
1.791128e+02	-2.293465e+01
1.801473e+02	-2.298483e+01
1.811878e+02	-2.303517e+01
1.822344e+02	-2.308482e+01
1.832870e+02	-2.313767e+01
1.843456e+02	-2.318522e+01
1.854104e+02	-2.323504e+01
1.864813e+02	-2.328181e+01
1.875584e+02	-2.333522e+01
1.886418e+02	-2.338279e+01
1.897313e+02	-2.343350e+01
1.908272e+02	-2.348331e+01
1.919294e+02	-2.353454e+01
1.930380e+02	-2.358373e+01
1.941530e+02	-2.363198e+01
1.952744e+02	-2.368153e+01
1.964023e+02	-2.373299e+01
1.975367e+02	-2.378370e+01
1.986777e+02	-2.383067e+01
1.998252e+02	-2.387890e+01
2.009794e+02	-2.393253e+01
2.021403e+02	-2.397962e+01
2.033078e+02	-2.402850e+01
2.044821e+02	-2.408251e+01
2.056632e+02	-2.412990e+01
2.068511e+02	-2.417801e+01
2.080459e+02	-2.423046e+01
2.092475e+02	-2.427971e+01
2.104561e+02	-2.433104e+01
2.116717e+02	-2.437969e+01
2.128943e+02	-2.442909e+01
2.141240e+02	-2.447988e+01
2.153608e+02	-2.453121e+01
2.166047e+02	-2.458018e+01
2.178558e+02	-2.462815e+01
2.191141e+02	-2.468172e+01
2.203797e+02	-2.473145e+01
2.216526e+02	-2.477901e+01
2.229329e+02	-2.482946e+01
2.242205e+02	-2.487805e+01
2.255156e+02	-2.492845e+01
2.268182e+02	-2.497835e+01
2.281283e+02	-2.502819e+01
2.294459e+02	-2.507800e+01
2.307712e+02	-2.513003e+01
2.321041e+02	-2.518012e+01
2.334447e+02	-2.522973e+01
2.347931e+02	-2.527882e+01
2.361493e+02	-2.532863e+01
2.375133e+02	-2.538089e+01
2.388851e+02	-2.542578e+01
2.402649e+02	-2.547784e+01
2.416527e+02	-2.552635e+01
2.430484e+02	-2.557719e+01
2.444523e+02	-2.562919e+01
2.458642e+02	-2.568091e+01
2.472843e+02	-2.572704e+01
2.487126e+02	-2.577622e+01
2.501492e+02	-2.582619e+01
2.515940e+02	-2.587863e+01
2.530472e+02	-2.592456e+01
2.545088e+02	-2.598164e+01
2.559789e+02	-2.602798e+01
2.574574e+02	-2.607845e+01
2.589444e+02	-2.612813e+01
2.604401e+02	-2.617656e+01
2.619444e+02	-2.622846e+01
2.634574e+02	-2.627576e+01
2.649791e+02	-2.633026e+01
2.665096e+02	-2.637985e+01
2.680489e+02	-2.642744e+01
2.695972e+02	-2.647584e+01
2.711544e+02	-2.652371e+01
2.727205e+02	-2.657838e+01
2.742958e+02	-2.662579e+01
2.758801e+02	-2.667688e+01
2.774736e+02	-2.672747e+01
2.790762e+02	-2.677435e+01
2.806882e+02	-2.682553e+01
2.823094e+02	-2.687506e+01
2.839400e+02	-2.692555e+01
2.855800e+02	-2.697623e+01
2.872295e+02	-2.702734e+01
2.888886e+02	-2.707539e+01
2.905572e+02	-2.712846e+01
2.922354e+02	-2.717723e+01
2.939234e+02	-2.722536e+01
2.956211e+02	-2.727756e+01
2.973286e+02	-2.732607e+01
2.990459e+02	-2.737386e+01
3.007732e+02	-2.742460e+01
3.025104e+02	-2.747371e+01
3.042577e+02	-2.752492e+01
3.060151e+02	-2.757732e+01
3.077826e+02	-2.762410e+01
3.095604e+02	-2.767432e+01
3.113484e+02	-2.772877e+01
3.131467e+02	-2.777775e+01
3.149554e+02	-2.782548e+01
3.167746e+02	-2.787701e+01
3.186043e+02	-2.792402e+01
3.204445e+02	-2.797763e+01
3.222954e+02	-2.802935e+01
3.241570e+02	-2.808159e+01
3.260293e+02	-2.812707e+01
3.279124e+02	-2.817544e+01
3.298064e+02	-2.822616e+01
3.317114e+02	-2.827958e+01
3.336273e+02	-2.832286e+01
3.355544e+02	-2.837545e+01
3.374925e+02	-2.842718e+01
3.394418e+02	-2.847940e+01
3.414024e+02	-2.853018e+01
3.433744e+02	-2.857580e+01
3.453577e+02	-2.862749e+01
3.473525e+02	-2.867907e+01
3.493588e+02	-2.872632e+01
3.513766e+02	-2.877941e+01
3.534062e+02	-2.882714e+01
3.554474e+02	-2.887681e+01
3.575005e+02	-2.892522e+01
3.595654e+02	-2.897624e+01
3.616422e+02	-2.903188e+01
3.637311e+02	-2.907780e+01
3.658320e+02	-2.912893e+01
3.679450e+02	-2.917860e+01
3.700702e+02	-2.922561e+01
3.722077e+02	-2.927614e+01
3.743576e+02	-2.932457e+01
3.765199e+02	-2.937412e+01
3.786946e+02	-2.943231e+01
3.808820e+02	-2.947821e+01
3.830819e+02	-2.952468e+01
3.852946e+02	-2.958015e+01
3.875200e+02	-2.962897e+01
3.897583e+02	-2.968250e+01
3.920096e+02	-2.972906e+01
3.942738e+02	-2.977534e+01
3.965511e+02	-2.982641e+01
3.988416e+02	-2.987875e+01
4.011452e+02	-2.993180e+01
4.034622e+02	-2.997370e+01
4.057926e+02	-3.002547e+01
4.081365e+02	-3.007589e+01
4.104938e+02	-3.013137e+01
4.128648e+02	-3.018272e+01
4.152495e+02	-3.022915e+01
4.176480e+02	-3.028171e+01
4.200603e+02	-3.032472e+01
4.224866e+02	-3.037925e+01
4.249268e+02	-3.043002e+01
4.273812e+02	-3.048236e+01
4.298497e+02	-3.053208e+01
4.323325e+02	-3.057458e+01
4.348297e+02	-3.062862e+01
4.373412e+02	-3.067797e+01
4.398673e+02	-3.073158e+01
4.424079e+02	-3.077767e+01
4.449633e+02	-3.082734e+01
4.475334e+02	-3.088385e+01
4.501183e+02	-3.092647e+01
4.527182e+02	-3.097827e+01
4.553330e+02	-3.102756e+01
4.579630e+02	-3.107933e+01
4.606082e+02	-3.113663e+01
4.632687e+02	-3.118158e+01
4.659445e+02	-3.123261e+01
4.686358e+02	-3.128119e+01
4.713426e+02	-3.133506e+01
4.740650e+02	-3.138231e+01
4.768032e+02	-3.142904e+01
4.795572e+02	-3.147975e+01
4.823271e+02	-3.153226e+01
4.851130e+02	-3.158169e+01
4.879150e+02	-3.162696e+01
4.907332e+02	-3.168871e+01
4.935676e+02	-3.173523e+01
4.964185e+02	-3.178395e+01
4.992858e+02	-3.183658e+01
5.021696e+02	-3.188514e+01
5.050701e+02	-3.193429e+01
5.079874e+02	-3.198253e+01
5.109215e+02	-3.202431e+01
5.138726e+02	-3.208846e+01
5.168407e+02	-3.213163e+01
5.198259e+02	-3.218266e+01
5.228284e+02	-3.223945e+01
5.258482e+02	-3.228773e+01
5.288855e+02	-3.233252e+01
5.319403e+02	-3.238009e+01
5.350128e+02	-3.243831e+01
5.381030e+02	-3.248318e+01
5.412111e+02	-3.253687e+01
5.443371e+02	-3.258347e+01
5.474812e+02	-3.263223e+01
5.506434e+02	-3.268342e+01
5.538239e+02	-3.273482e+01
5.570228e+02	-3.278606e+01
5.602401e+02	-3.282860e+01
5.634760e+02	-3.289000e+01
5.667306e+02	-3.293988e+01
5.700040e+02	-3.299401e+01
5.732964e+02	-3.303702e+01
5.766077e+02	-3.309188e+01
5.799382e+02	-3.314423e+01
5.832879e+02	-3.319074e+01
5.866569e+02	-3.323820e+01
5.900454e+02	-3.328533e+01
5.934535e+02	-3.334114e+01
5.968813e+02	-3.339631e+01
6.003288e+02	-3.344046e+01
6.037963e+02	-3.348640e+01
6.072838e+02	-3.354094e+01
6.107914e+02	-3.359271e+01
6.143194e+02	-3.364177e+01
6.178676e+02	-3.368798e+01
6.214364e+02	-3.374632e+01
6.250258e+02	-3.378966e+01
6.286359e+02	-3.383615e+01
6.322669e+02	-3.389413e+01
6.359189e+02	-3.394459e+01
6.395919e+02	-3.399355e+01
6.432862e+02	-3.404364e+01
6.470017e+02	-3.409283e+01
6.507388e+02	-3.413873e+01
6.544974e+02	-3.419273e+01
6.582778e+02	-3.424970e+01
6.620800e+02	-3.429202e+01
6.659041e+02	-3.434526e+01
6.697504e+02	-3.439513e+01
6.736188e+02	-3.444129e+01
6.775096e+02	-3.449862e+01
6.814229e+02	-3.454311e+01
6.853587e+02	-3.459545e+01
6.893173e+02	-3.464579e+01
6.932988e+02	-3.469319e+01
6.973033e+02	-3.474054e+01
7.013309e+02	-3.479176e+01
