Frequency(Hz)	Magnitude(dB)
1.000000e+01	-2.179824e+00
1.005776e+01	-2.199822e+00
1.011585e+01	-2.219750e+00
1.017428e+01	-2.239714e+00
1.023305e+01	-2.260002e+00
1.029215e+01	-2.280444e+00
1.035160e+01	-2.300983e+00
1.041139e+01	-2.321402e+00
1.047153e+01	-2.342330e+00
1.053201e+01	-2.363110e+00
1.059284e+01	-2.384228e+00
1.065403e+01	-2.405494e+00
1.071556e+01	-2.427007e+00
1.077746e+01	-2.448180e+00
1.083971e+01	-2.470088e+00
1.090232e+01	-2.491650e+00
1.096529e+01	-2.513721e+00
1.102862e+01	-2.535768e+00
1.109232e+01	-2.558055e+00
1.115639e+01	-2.580149e+00
1.122083e+01	-2.602791e+00
1.128564e+01	-2.625395e+00
1.135083e+01	-2.648004e+00
1.141639e+01	-2.671284e+00
1.148233e+01	-2.694024e+00
1.154865e+01	-2.717097e+00
1.161536e+01	-2.740668e+00
1.168245e+01	-2.764036e+00
1.174992e+01	-2.787650e+00
1.181779e+01	-2.811391e+00
1.188605e+01	-2.835336e+00
1.195470e+01	-2.859362e+00
1.202375e+01	-2.883594e+00
1.209320e+01	-2.907942e+00
1.216305e+01	-2.932513e+00
1.223330e+01	-2.957251e+00
1.230396e+01	-2.982058e+00
1.237503e+01	-3.006789e+00
1.244651e+01	-3.031801e+00
1.251840e+01	-3.056989e+00
1.259070e+01	-3.082506e+00
1.266343e+01	-3.107922e+00
1.273657e+01	-3.133284e+00
1.281014e+01	-3.159398e+00
1.288413e+01	-3.185218e+00
1.295855e+01	-3.211251e+00
1.303339e+01	-3.237581e+00
1.310867e+01	-3.263879e+00
1.318439e+01	-3.290180e+00
1.326054e+01	-3.317056e+00
1.333713e+01	-3.343795e+00
1.341417e+01	-3.370826e+00
1.349165e+01	-3.397994e+00
1.356958e+01	-3.425065e+00
1.364795e+01	-3.452399e+00
1.372678e+01	-3.479912e+00
1.380607e+01	-3.507610e+00
1.388581e+01	-3.535584e+00
1.396602e+01	-3.563368e+00
1.404668e+01	-3.591414e+00
1.412782e+01	-3.619716e+00
1.420942e+01	-3.647800e+00
1.429149e+01	-3.676329e+00
1.437404e+01	-3.705102e+00
1.445706e+01	-3.733847e+00
1.454057e+01	-3.762690e+00
1.462455e+01	-3.791921e+00
1.470902e+01	-3.821133e+00
1.479398e+01	-3.850460e+00
1.487943e+01	-3.879843e+00
1.496537e+01	-3.909698e+00
1.505181e+01	-3.939275e+00
1.513875e+01	-3.969239e+00
1.522619e+01	-3.999214e+00
1.531414e+01	-4.029471e+00
1.540259e+01	-4.059629e+00
1.549156e+01	-4.090059e+00
1.558103e+01	-4.120775e+00
1.567103e+01	-4.151538e+00
1.576155e+01	-4.182280e+00
1.585258e+01	-4.213093e+00
1.594415e+01	-4.244747e+00
1.603624e+01	-4.275775e+00
1.612886e+01	-4.307153e+00
1.622202e+01	-4.338658e+00
1.631572e+01	-4.370232e+00
1.640996e+01	-4.402240e+00
1.650474e+01	-4.434156e+00
1.660008e+01	-4.466179e+00
1.669596e+01	-4.498642e+00
1.679239e+01	-4.530924e+00
1.688938e+01	-4.563284e+00
1.698694e+01	-4.595646e+00
1.708505e+01	-4.628731e+00
1.718373e+01	-4.661321e+00
1.728299e+01	-4.694257e+00
1.738281e+01	-4.727486e+00
1.748322e+01	-4.760802e+00
1.758420e+01	-4.794012e+00
1.768576e+01	-4.827288e+00
1.778792e+01	-4.861104e+00
1.789066e+01	-4.894662e+00
1.799399e+01	-4.928669e+00
1.809793e+01	-4.962835e+00
1.820246e+01	-4.996810e+00
1.830760e+01	-5.031380e+00
1.841334e+01	-5.065573e+00
1.851969e+01	-5.100019e+00
1.862666e+01	-5.134773e+00
1.873425e+01	-5.169622e+00
1.884246e+01	-5.204234e+00
1.895129e+01	-5.239260e+00
1.906075e+01	-5.274492e+00
1.917085e+01	-5.309489e+00
1.928158e+01	-5.344916e+00
1.939295e+01	-5.380212e+00
1.950496e+01	-5.416072e+00
1.961762e+01	-5.451696e+00
1.973093e+01	-5.487652e+00
1.984490e+01	-5.523723e+00
1.995952e+01	-5.559720e+00
2.007480e+01	-5.595773e+00
2.019076e+01	-5.632220e+00
2.030738e+01	-5.668959e+00
2.042467e+01	-5.704913e+00
2.054264e+01	-5.741892e+00
2.066130e+01	-5.778283e+00
2.078064e+01	-5.815474e+00
2.090066e+01	-5.851991e+00
2.102139e+01	-5.889326e+00
2.114280e+01	-5.926254e+00
2.126492e+01	-5.963805e+00
2.138775e+01	-6.001349e+00
2.151128e+01	-6.038702e+00
2.163553e+01	-6.076289e+00
2.176050e+01	-6.113902e+00
2.188619e+01	-6.152188e+00
2.201260e+01	-6.189860e+00
2.213974e+01	-6.228061e+00
2.226762e+01	-6.266101e+00
2.239624e+01	-6.304413e+00
2.252560e+01	-6.342852e+00
2.265571e+01	-6.381203e+00
2.278656e+01	-6.420162e+00
2.291818e+01	-6.458468e+00
2.305055e+01	-6.497110e+00
2.318369e+01	-6.535995e+00
2.331760e+01	-6.574948e+00
2.345228e+01	-6.614049e+00
2.358774e+01	-6.653546e+00
2.372398e+01	-6.692244e+00
2.386101e+01	-6.732135e+00
2.399883e+01	-6.771798e+00
2.413745e+01	-6.810930e+00
2.427686e+01	-6.849925e+00
2.441709e+01	-6.890051e+00
2.455812e+01	-6.929923e+00
2.469997e+01	-6.970579e+00
2.484263e+01	-7.010158e+00
2.498612e+01	-7.050436e+00
2.513044e+01	-7.090315e+00
2.527559e+01	-7.130887e+00
2.542158e+01	-7.170901e+00
2.556842e+01	-7.211818e+00
2.571610e+01	-7.251732e+00
2.586463e+01	-7.292954e+00
2.601403e+01	-7.333298e+00
2.616428e+01	-7.374086e+00
2.631541e+01	-7.415339e+00
2.646740e+01	-7.456118e+00
2.662028e+01	-7.497185e+00
2.677404e+01	-7.538336e+00
2.692868e+01	-7.580054e+00
2.708422e+01	-7.621129e+00
2.724066e+01	-7.662711e+00
2.739800e+01	-7.704119e+00
2.755625e+01	-7.745497e+00
2.771541e+01	-7.787147e+00
2.787550e+01	-7.829147e+00
2.803650e+01	-7.870623e+00
2.819844e+01	-7.912440e+00
2.836131e+01	-7.954675e+00
2.852513e+01	-7.996606e+00
2.868989e+01	-8.039107e+00
2.885560e+01	-8.081207e+00
2.902227e+01	-8.122888e+00
2.918990e+01	-8.165323e+00
2.935850e+01	-8.208213e+00
2.952807e+01	-8.250247e+00
2.969863e+01	-8.293229e+00
2.987016e+01	-8.335447e+00
3.004269e+01	-8.378759e+00
3.021622e+01	-8.421417e+00
3.039075e+01	-8.464104e+00
3.056628e+01	-8.507401e+00
3.074283e+01	-8.549838e+00
3.092040e+01	-8.593339e+00
3.109900e+01	-8.636160e+00
3.127862e+01	-8.679709e+00
3.145929e+01	-8.722867e+00
3.164099e+01	-8.766062e+00
3.182375e+01	-8.809643e+00
3.200756e+01	-8.853405e+00
3.219244e+01	-8.896864e+00
3.237838e+01	-8.940259e+00
3.256540e+01	-8.983978e+00
3.275349e+01	-9.027609e+00
3.294268e+01	-9.071324e+00
3.313295e+01	-9.115874e+00
3.332433e+01	-9.159055e+00
3.351681e+01	-9.202403e+00
3.371040e+01	-9.247112e+00
3.390511e+01	-9.291338e+00
3.410094e+01	-9.335734e+00
3.429791e+01	-9.379374e+00
3.449601e+01	-9.423533e+00
3.469526e+01	-9.468039e+00
3.489566e+01	-9.512790e+00
3.509721e+01	-9.557200e+00
3.529993e+01	-9.601606e+00
3.550382e+01	-9.646250e+00
3.570889e+01	-9.690917e+00
3.591515e+01	-9.735720e+00
3.612259e+01	-9.780373e+00
3.633123e+01	-9.825172e+00
3.654108e+01	-9.870265e+00
3.675214e+01	-9.914893e+00
3.696442e+01	-9.960084e+00
3.717792e+01	-1.000499e+01
3.739266e+01	-1.005018e+01
3.760864e+01	-1.009523e+01
3.782587e+01	-1.014037e+01
3.804435e+01	-1.018496e+01
3.826409e+01	-1.023032e+01
3.848510e+01	-1.027609e+01
3.870739e+01	-1.032092e+01
3.893096e+01	-1.036638e+01
3.915583e+01	-1.041200e+01
3.938199e+01	-1.045743e+01
3.960946e+01	-1.050325e+01
3.983824e+01	-1.054882e+01
4.006834e+01	-1.059409e+01
4.029978e+01	-1.063980e+01
4.053255e+01	-1.068566e+01
4.076666e+01	-1.073176e+01
4.100213e+01	-1.077722e+01
4.123896e+01	-1.082280e+01
4.147715e+01	-1.086866e+01
4.171672e+01	-1.091524e+01
4.195767e+01	-1.096076e+01
4.220002e+01	-1.100767e+01
4.244377e+01	-1.105322e+01
4.268892e+01	-1.109926e+01
4.293549e+01	-1.114555e+01
4.318348e+01	-1.119225e+01
4.343291e+01	-1.123781e+01
4.368377e+01	-1.128445e+01
4.393609e+01	-1.133078e+01
4.418986e+01	-1.137687e+01
4.444510e+01	-1.142323e+01
4.470182e+01	-1.147012e+01
4.496001e+01	-1.151642e+01
4.521970e+01	-1.156236e+01
4.548089e+01	-1.160904e+01
4.574358e+01	-1.165595e+01
4.600779e+01	-1.170301e+01
4.627353e+01	-1.174915e+01
4.654081e+01	-1.179596e+01
4.680963e+01	-1.184268e+01
4.708000e+01	-1.188947e+01
4.735193e+01	-1.193644e+01
4.762543e+01	-1.198345e+01
4.790051e+01	-1.203055e+01
4.817719e+01	-1.207733e+01
4.845545e+01	-1.212392e+01
4.873533e+01	-1.217031e+01
4.901682e+01	-1.221810e+01
4.929994e+01	-1.226495e+01
4.958470e+01	-1.231159e+01
4.987110e+01	-1.235860e+01
5.015915e+01	-1.240563e+01
5.044887e+01	-1.245323e+01
5.074026e+01	-1.249973e+01
5.103333e+01	-1.254788e+01
5.132810e+01	-1.259563e+01
5.162457e+01	-1.264184e+01
5.192275e+01	-1.269000e+01
5.222265e+01	-1.273732e+01
5.252429e+01	-1.278476e+01
5.282767e+01	-1.283109e+01
5.313280e+01	-1.287893e+01
5.343969e+01	-1.292700e+01
5.374836e+01	-1.297481e+01
5.405880e+01	-1.302245e+01
5.437105e+01	-1.306995e+01
5.468509e+01	-1.311751e+01
5.500095e+01	-1.316421e+01
5.531863e+01	-1.321245e+01
5.563815e+01	-1.326004e+01
5.595951e+01	-1.330825e+01
5.628273e+01	-1.335570e+01
5.660782e+01	-1.340268e+01
5.693479e+01	-1.345051e+01
5.726364e+01	-1.349826e+01
5.759439e+01	-1.354566e+01
5.792705e+01	-1.359451e+01
5.826164e+01	-1.364208e+01
5.859815e+01	-1.368985e+01
5.893662e+01	-1.373701e+01
5.927703e+01	-1.378575e+01
5.961941e+01	-1.383279e+01
5.996377e+01	-1.388143e+01
6.031012e+01	-1.392929e+01
6.065847e+01	-1.397728e+01
6.100883e+01	-1.402579e+01
6.136121e+01	-1.407395e+01
6.171563e+01	-1.412178e+01
6.207210e+01	-1.416930e+01
6.243063e+01	-1.421737e+01
6.279122e+01	-1.426566e+01
6.315390e+01	-1.431449e+01
6.351868e+01	-1.436251e+01
6.388556e+01	-1.441007e+01
6.425456e+01	-1.445827e+01
6.462569e+01	-1.450726e+01
6.499897e+01	-1.455559e+01
6.537440e+01	-1.460368e+01
6.575200e+01	-1.465192e+01
6.613178e+01	-1.469980e+01
6.651375e+01	-1.474823e+01
6.689793e+01	-1.479673e+01
6.728433e+01	-1.484555e+01
6.767297e+01	-1.489426e+01
6.806384e+01	-1.494199e+01
6.845698e+01	-1.498991e+01
6.885238e+01	-1.504003e+01
6.925007e+01	-1.508624e+01
6.965005e+01	-1.513556e+01
7.005235e+01	-1.518399e+01
7.045697e+01	-1.523296e+01
7.086393e+01	-1.528154e+01
7.127323e+01	-1.533048e+01
7.168490e+01	-1.537814e+01
7.209895e+01	-1.542702e+01
7.251539e+01	-1.547599e+01
7.293424e+01	-1.552426e+01
7.335551e+01	-1.557372e+01
7.377920e+01	-1.562094e+01
7.420535e+01	-1.567095e+01
7.463396e+01	-1.571904e+01
7.506504e+01	-1.576828e+01
7.549861e+01	-1.581696e+01
7.593469e+01	-1.586568e+01
7.637328e+01	-1.591355e+01
7.681441e+01	-1.596349e+01
7.725809e+01	-1.601159e+01
7.770433e+01	-1.606169e+01
7.815315e+01	-1.610989e+01
7.860456e+01	-1.615720e+01
7.905857e+01	-1.620643e+01
7.951521e+01	-1.625538e+01
7.997449e+01	-1.630495e+01
8.043642e+01	-1.635347e+01
8.090102e+01	-1.640127e+01
8.136830e+01	-1.645126e+01
8.183828e+01	-1.650018e+01
8.231097e+01	-1.654920e+01
8.278640e+01	-1.659882e+01
8.326457e+01	-1.664706e+01
8.374550e+01	-1.669550e+01
8.422921e+01	-1.674389e+01
8.471572e+01	-1.679264e+01
8.520503e+01	-1.684228e+01
8.569717e+01	-1.689116e+01
8.619215e+01	-1.694019e+01
8.669000e+01	-1.698958e+01
8.719071e+01	-1.703984e+01
8.769432e+01	-1.708864e+01
8.820084e+01	-1.713585e+01
8.871029e+01	-1.718543e+01
8.922267e+01	-1.723430e+01
8.973802e+01	-1.728415e+01
9.025634e+01	-1.733263e+01
9.077766e+01	-1.738193e+01
9.130199e+01	-1.743177e+01
9.182935e+01	-1.748052e+01
9.235975e+01	-1.752931e+01
9.289321e+01	-1.757845e+01
9.342976e+01	-1.762750e+01
9.396941e+01	-1.767559e+01
9.451217e+01	-1.772627e+01
9.505807e+01	-1.777543e+01
9.560712e+01	-1.782466e+01
9.615934e+01	-1.787442e+01
9.671476e+01	-1.792363e+01
9.727338e+01	-1.797201e+01
9.783522e+01	-1.802238e+01
9.840032e+01	-1.807025e+01
9.896867e+01	-1.811900e+01
9.954031e+01	-1.816964e+01
1.001153e+02	-1.821831e+01
1.006935e+02	-1.826825e+01
1.012751e+02	-1.831746e+01
1.018601e+02	-1.836741e+01
1.024484e+02	-1.841586e+01
1.030402e+02	-1.846528e+01
1.036353e+02	-1.851518e+01
1.042339e+02	-1.856362e+01
1.048360e+02	-1.861373e+01
1.054415e+02	-1.866299e+01
1.060505e+02	-1.871169e+01
1.066631e+02	-1.876066e+01
1.072791e+02	-1.881007e+01
1.078988e+02	-1.885923e+01
1.085220e+02	-1.890965e+01
1.091488e+02	-1.895787e+01
1.097793e+02	-1.900718e+01
1.104133e+02	-1.905778e+01
1.110511e+02	-1.910604e+01
1.116925e+02	-1.915685e+01
1.123376e+02	-1.920599e+01
1.129865e+02	-1.925516e+01
1.136391e+02	-1.930602e+01
1.142955e+02	-1.935542e+01
1.149556e+02	-1.940475e+01
1.156196e+02	-1.945378e+01
1.162874e+02	-1.950304e+01
1.169591e+02	-1.955285e+01
1.176347e+02	-1.960069e+01
1.183141e+02	-1.965180e+01
1.189975e+02	-1.969904e+01
1.196848e+02	-1.974972e+01
1.203761e+02	-1.980029e+01
1.210714e+02	-1.985020e+01
1.217707e+02	-1.989860e+01
1.224740e+02	-1.994916e+01
1.231814e+02	-1.999728e+01
1.238929e+02	-2.004761e+01
1.246085e+02	-2.009622e+01
1.253283e+02	-2.014494e+01
1.260522e+02	-2.019648e+01
1.267802e+02	-2.024579e+01
1.275125e+02	-2.029501e+01
1.282490e+02	-2.034392e+01
1.289898e+02	-2.039440e+01
1.297348e+02	-2.044446e+01
1.304842e+02	-2.049333e+01
1.312378e+02	-2.054171e+01
1.319959e+02	-2.059242e+01
1.327583e+02	-2.064201e+01
1.335251e+02	-2.069178e+01
1.342963e+02	-2.074161e+01
1.350720e+02	-2.079054e+01
1.358522e+02	-2.084085e+01
1.366368e+02	-2.088961e+01
1.374260e+02	-2.093965e+01
1.382198e+02	-2.098937e+01
1.390182e+02	-2.103896e+01
1.398211e+02	-2.108669e+01
1.406287e+02	-2.114004e+01
1.414410e+02	-2.118846e+01
1.422579e+02	-2.123771e+01
1.430796e+02	-2.128793e+01
1.439060e+02	-2.133640e+01
1.447372e+02	-2.138720e+01
1.455732e+02	-2.143667e+01
1.464141e+02	-2.148575e+01
1.472597e+02	-2.153496e+01
1.481103e+02	-2.158803e+01
1.489658e+02	-2.163349e+01
1.498262e+02	-2.168580e+01
1.506916e+02	-2.173751e+01
1.515620e+02	-2.178368e+01
1.524374e+02	-2.183446e+01
1.533179e+02	-2.188457e+01
1.542034e+02	-2.193423e+01
1.550941e+02	-2.198276e+01
1.559899e+02	-2.203041e+01
1.568909e+02	-2.208208e+01
1.577971e+02	-2.213327e+01
1.587085e+02	-2.218114e+01
1.596252e+02	-2.223060e+01
1.605472e+02	-2.228158e+01
1.614745e+02	-2.233146e+01
1.624072e+02	-2.238045e+01
1.633453e+02	-2.243030e+01
1.642887e+02	-2.248069e+01
1.652377e+02	-2.253073e+01
1.661921e+02	-2.258109e+01
1.671520e+02	-2.262808e+01
1.681175e+02	-2.267770e+01
1.690885e+02	-2.272987e+01
1.700651e+02	-2.277897e+01
1.710474e+02	-2.282921e+01
1.720354e+02	-2.287798e+01
1.730291e+02	-2.292940e+01
1.740285e+02	-2.297876e+01
1.750337e+02	-2.302669e+01
1.760446e+02	-2.307599e+01
1.770615e+02	-2.312677e+01
1.780842e+02	-2.317769e+01
1.791128e+02	-2.322716e+01
1.801473e+02	-2.327695e+01
1.811878e+02	-2.332913e+01
1.822344e+02	-2.337776e+01
1.832870e+02	-2.342784e+01
1.843456e+02	-2.347597e+01
1.854104e+02	-2.352685e+01
1.864813e+02	-2.357511e+01
1.875584e+02	-2.362327e+01
1.886418e+02	-2.367616e+01
1.897313e+02	-2.372805e+01
1.908272e+02	-2.377417e+01
1.919294e+02	-2.382191e+01
1.930380e+02	-2.387735e+01
1.941530e+02	-2.392276e+01
1.952744e+02	-2.397351e+01
1.964023e+02	-2.402595e+01
1.975367e+02	-2.407310e+01
1.986777e+02	-2.412421e+01
1.998252e+02	-2.417479e+01
2.009794e+02	-2.422445e+01
2.021403e+02	-2.427124e+01
2.033078e+02	-2.432507e+01
2.044821e+02	-2.437642e+01
2.056632e+02	-2.442071e+01
2.068511e+02	-2.447074e+01
2.080459e+02	-2.452546e+01
2.092475e+02	-2.457246e+01
2.104561e+02	-2.462262e+01
2.116717e+02	-2.467388e+01
2.128943e+02	-2.472304e+01
2.141240e+02	-2.477264e+01
2.153608e+02	-2.482149e+01
2.166047e+02	-2.487570e+01
2.178558e+02	-2.492172e+01
2.191141e+02	-2.497464e+01
2.203797e+02	-2.502135e+01
2.216526e+02	-2.507213e+01
2.229329e+02	-2.512034e+01
2.242205e+02	-2.517055e+01
2.255156e+02	-2.522190e+01
2.268182e+02	-2.527145e+01
2.281283e+02	-2.531725e+01
2.294459e+02	-2.537581e+01
2.307712e+02	-2.542231e+01
2.321041e+02	-2.547497e+01
2.334447e+02	-2.552032e+01
2.347931e+02	-2.556947e+01
2.361493e+02	-2.562042e+01
2.375133e+02	-2.567047e+01
2.388851e+02	-2.572361e+01
2.402649e+02	-2.577092e+01
2.416527e+02	-2.582230e+01
2.430484e+02	-2.587071e+01
2.444523e+02	-2.592045e+01
2.458642e+02	-2.597119e+01
2.472843e+02	-2.601807e+01
2.487126e+02	-2.607433e+01
2.501492e+02	-2.612029e+01
2.515940e+02	-2.617100e+01
2.530472e+02	-2.621902e+01
2.545088e+02	-2.627113e+01
2.559789e+02	-2.632074e+01
2.574574e+02	-2.636822e+01
2.589444e+02	-2.641983e+01
2.604401e+02	-2.647013e+01
2.619444e+02	-2.652079e+01
2.634574e+02	-2.657182e+01
2.649791e+02	-2.661915e+01
2.665096e+02	-2.666846e+01
2.680489e+02	-2.672115e+01
2.695972e+02	-2.676944e+01
2.711544e+02	-2.682411e+01
2.727205e+02	-2.686774e+01
2.742958e+02	-2.691912e+01
2.758801e+02	-2.697055e+01
2.774736e+02	-2.701701e+01
2.790762e+02	-2.706947e+01
2.806882e+02	-2.712151e+01
2.823094e+02	-2.716873e+01
2.839400e+02	-2.721753e+01
2.855800e+02	-2.727298e+01
2.872295e+02	-2.731504e+01
2.888886e+02	-2.737145e+01
2.905572e+02	-2.741789e+01
2.922354e+02	-2.746633e+01
2.939234e+02	-2.752017e+01
2.956211e+02	-2.757030e+01
2.973286e+02	-2.761775e+01
2.990459e+02	-2.767097e+01
3.007732e+02	-2.772124e+01
3.025104e+02	-2.777094e+01
3.042577e+02	-2.781851e+01
3.060151e+02	-2.786816e+01
3.077826e+02	-2.791991e+01
3.095604e+02	-2.796604e+01
3.113484e+02	-2.801489e+01
3.131467e+02	-2.807489e+01
3.149554e+02	-2.811710e+01
3.167746e+02	-2.817106e+01
3.186043e+02	-2.821805e+01
3.204445e+02	-2.826457e+01
3.222954e+02	-2.832006e+01
3.241570e+02	-2.836726e+01
3.260293e+02	-2.841712e+01
3.279124e+02	-2.847105e+01
3.298064e+02	-2.852099e+01
3.317114e+02	-2.857134e+01
3.336273e+02	-2.861928e+01
3.355544e+02	-2.867300e+01
3.374925e+02	-2.872521e+01
3.394418e+02	-2.877291e+01
3.414024e+02	-2.882135e+01
3.433744e+02	-2.886985e+01
3.453577e+02	-2.892062e+01
3.473525e+02	-2.896896e+01
3.493588e+02	-2.901834e+01
3.513766e+02	-2.907053e+01
3.534062e+02	-2.912349e+01
3.554474e+02	-2.917153e+01
3.575005e+02	-2.921842e+01
3.595654e+02	-2.926907e+01
3.616422e+02	-2.931917e+01
3.637311e+02	-2.936792e+01
3.658320e+02	-2.942379e+01
3.679450e+02	-2.947410e+01
3.700702e+02	-2.952364e+01
3.722077e+02	-2.957269e+01
3.743576e+02	-2.961772e+01
3.765199e+02	-2.967029e+01
3.786946e+02	-2.972360e+01
3.808820e+02	-2.977447e+01
3.830819e+02	-2.982532e+01
3.852946e+02	-2.987001e+01
3.875200e+02	-2.991675e+01
3.897583e+02	-2.997080e+01
3.920096e+02	-3.002160e+01
3.942738e+02	-3.006898e+01
3.965511e+02	-3.012237e+01
3.988416e+02	-3.017612e+01
4.011452e+02	-3.022280e+01
4.034622e+02	-3.027232e+01
4.057926e+02	-3.031945e+01
4.081365e+02	-3.037474e+01
4.104938e+02	-3.042589e+01
4.128648e+02	-3.047661e+01
4.152495e+02	-3.051861e+01
4.176480e+02	-3.057559e+01
4.200603e+02	-3.062762e+01
4.224866e+02	-3.067342e+01
4.249268e+02	-3.072497e+01
4.273812e+02	-3.077497e+01
4.298497e+02	-3.082683e+01
4.323325e+02	-3.087336e+01
4.348297e+02	-3.092403e+01
4.373412e+02	-3.097215e+01
4.398673e+02	-3.102280e+01
4.424079e+02	-3.107475e+01
4.449633e+02	-3.112136e+01
4.475334e+02	-3.117476e+01
4.501183e+02	-3.123127e+01
4.527182e+02	-3.127573e+01
4.553330e+02	-3.132763e+01
4.579630e+02	-3.137695e+01
4.606082e+02	-3.143072e+01
4.632687e+02	-3.147520e+01
4.659445e+02	-3.152132e+01
4.686358e+02	-3.157177e+01
4.713426e+02	-3.162621e+01
4.740650e+02	-3.167739e+01
4.768032e+02	-3.172780e+01
4.795572e+02	-3.178022e+01
4.823271e+02	-3.182348e+01
4.851130e+02	-3.187654e+01
4.879150e+02	-3.192498e+01
4.907332e+02	-3.197335e+01
4.935676e+02	-3.202521e+01
4.964185e+02	-3.207670e+01
4.992858e+02	-3.212597e+01
5.021696e+02	-3.217130e+01
5.050701e+02	-3.222274e+01
5.079874e+02	-3.227605e+01
5.109215e+02	-3.233455e+01
5.138726e+02	-3.238175e+01
5.168407e+02	-3.242998e+01
5.198259e+02	-3.247884e+01
5.228284e+02	-3.252824e+01
5.258482e+02	-3.257967e+01
5.288855e+02	-3.263461e+01
5.319403e+02	-3.268001e+01
5.350128e+02	-3.272671e+01
5.381030e+02	-3.278209e+01
5.412111e+02	-3.283220e+01
5.443371e+02	-3.287927e+01
5.474812e+02	-3.293430e+01
5.506434e+02	-3.298062e+01
5.538239e+02	-3.303488e+01
5.570228e+02	-3.308632e+01
5.602401e+02	-3.312939e+01
5.634760e+02	-3.318123e+01
5.667306e+02	-3.322904e+01
5.700040e+02	-3.328215e+01
5.732964e+02	-3.332752e+01
5.766077e+02	-3.337921e+01
5.799382e+02	-3.343450e+01
5.832879e+02	-3.348531e+01
5.866569e+02	-3.353268e+01
5.900454e+02	-3.358764e+01
5.934535e+02	-3.363744e+01
5.968813e+02	-3.368892e+01
6.003288e+02	-3.373569e+01
6.037963e+02	-3.377900e+01
6.072838e+02	-3.383382e+01
6.107914e+02	-3.388020e+01
6.143194e+02	-3.393388e+01
6.178676e+02	-3.399340e+01
6.214364e+02	-3.404112e+01
6.250258e+02	-3.408811e+01
6.286359e+02	-3.413773e+01
6.322669e+02	-3.418895e+01
6.359189e+02	-3.423967e+01
6.395919e+02	-3.428313e+01
6.432862e+02	-3.433645e+01
6.470017e+02	-3.438791e+01
6.507388e+02	-3.443471e+01
6.544974e+02	-3.448447e+01
6.582778e+02	-3.454578e+01
6.620800e+02	-3.459385e+01
6.659041e+02	-3.463496e+01
6.697504e+02	-3.469463e+01
6.736188e+02	-3.474311e+01
6.775096e+02	-3.479835e+01
6.814229e+02	-3.483650e+01
6.853587e+02	-3.488927e+01
6.893173e+02	-3.494485e+01
6.932988e+02	-3.499708e+01
6.973033e+02	-3.503567e+01
7.013309e+02	-3.509550e+01
