Frequency(Hz)	Magnitude(dB)
1.000000e+01	-1.974485e+00
1.005776e+01	-1.992698e+00
1.011585e+01	-2.011382e+00
1.017428e+01	-2.030079e+00
1.023305e+01	-2.048758e+00
1.029215e+01	-2.067682e+00
1.035160e+01	-2.086551e+00
1.041139e+01	-2.105733e+00
1.047153e+01	-2.125034e+00
1.053201e+01	-2.144509e+00
1.059284e+01	-2.164112e+00
1.065403e+01	-2.183787e+00
1.071556e+01	-2.203808e+00
1.077746e+01	-2.223556e+00
1.083971e+01	-2.243761e+00
1.090232e+01	-2.263916e+00
1.096529e+01	-2.284207e+00
1.102862e+01	-2.304806e+00
1.109232e+01	-2.325762e+00
1.115639e+01	-2.346304e+00
1.122083e+01	-2.367362e+00
1.128564e+01	-2.388437e+00
1.135083e+01	-2.409776e+00
1.141639e+01	-2.430842e+00
1.148233e+01	-2.452365e+00
1.154865e+01	-2.473873e+00
1.161536e+01	-2.495771e+00
1.168245e+01	-2.517955e+00
1.174992e+01	-2.539949e+00
1.181779e+01	-2.562190e+00
1.188605e+01	-2.584506e+00
1.195470e+01	-2.607000e+00
1.202375e+01	-2.629741e+00
1.209320e+01	-2.652592e+00
1.216305e+01	-2.675457e+00
1.223330e+01	-2.698727e+00
1.230396e+01	-2.721761e+00
1.237503e+01	-2.745006e+00
1.244651e+01	-2.768772e+00
1.251840e+01	-2.792235e+00
1.259070e+01	-2.815954e+00
1.266343e+01	-2.840121e+00
1.273657e+01	-2.863888e+00
1.281014e+01	-2.888520e+00
1.288413e+01	-2.912652e+00
1.295855e+01	-2.937356e+00
1.303339e+01	-2.961948e+00
1.310867e+01	-2.986718e+00
1.318439e+01	-3.011664e+00
1.326054e+01	-3.036763e+00
1.333713e+01	-3.062110e+00
1.341417e+01	-3.087264e+00
1.349165e+01	-3.112922e+00
1.356958e+01	-3.138596e+00
1.364795e+01	-3.164213e+00
1.372678e+01	-3.190241e+00
1.380607e+01	-3.216206e+00
1.388581e+01	-3.242772e+00
1.396602e+01	-3.269078e+00
1.404668e+01	-3.295687e+00
1.412782e+01	-3.322256e+00
1.420942e+01	-3.349085e+00
1.429149e+01	-3.375820e+00
1.437404e+01	-3.403035e+00
1.445706e+01	-3.430406e+00
1.454057e+01	-3.457777e+00
1.462455e+01	-3.485315e+00
1.470902e+01	-3.512894e+00
1.479398e+01	-3.540779e+00
1.487943e+01	-3.568859e+00
1.496537e+01	-3.597009e+00
1.505181e+01	-3.625188e+00
1.513875e+01	-3.653540e+00
1.522619e+01	-3.681906e+00
1.531414e+01	-3.710620e+00
1.540259e+01	-3.739690e+00
1.549156e+01	-3.768338e+00
1.558103e+01	-3.797540e+00
1.567103e+01	-3.826735e+00
1.576155e+01	-3.856121e+00
1.585258e+01	-3.885900e+00
1.594415e+01	-3.915458e+00
1.603624e+01	-3.945128e+00
1.612886e+01	-3.975141e+00
1.622202e+01	-4.004893e+00
1.631572e+01	-4.035141e+00
1.640996e+01	-4.065635e+00
1.650474e+01	-4.095915e+00
1.660008e+01	-4.126640e+00
1.669596e+01	-4.157708e+00
1.679239e+01	-4.188260e+00
1.688938e+01	-4.219287e+00
1.698694e+01	-4.250532e+00
1.708505e+01	-4.281779e+00
1.718373e+01	-4.313269e+00
1.728299e+01	-4.344677e+00
1.738281e+01	-4.376469e+00
1.748322e+01	-4.408159e+00
1.758420e+01	-4.440305e+00
1.768576e+01	-4.472348e+00
1.778792e+01	-4.504523e+00
1.789066e+01	-4.536786e+00
1.799399e+01	-4.569367e+00
1.809793e+01	-4.602204e+00
1.820246e+01	-4.634909e+00
1.830760e+01	-4.667679e+00
1.841334e+01	-4.700743e+00
1.851969e+01	-4.733998e+00
1.862666e+01	-4.767261e+00
1.873425e+01	-4.800618e+00
1.884246e+01	-4.834267e+00
1.895129e+01	-4.867828e+00
1.906075e+01	-4.901501e+00
1.917085e+01	-4.935508e+00
1.928158e+01	-4.969102e+00
1.939295e+01	-5.003571e+00
1.950496e+01	-5.038001e+00
1.961762e+01	-5.072142e+00
1.973093e+01	-5.106661e+00
1.984490e+01	-5.141303e+00
1.995952e+01	-5.176119e+00
2.007480e+01	-5.211258e+00
2.019076e+01	-5.246421e+00
2.030738e+01	-5.281315e+00
2.042467e+01	-5.316469e+00
2.054264e+01	-5.351765e+00
2.066130e+01	-5.387266e+00
2.078064e+01	-5.422895e+00
2.090066e+01	-5.458593e+00
2.102139e+01	-5.494722e+00
2.114280e+01	-5.530553e+00
2.126492e+01	-5.566852e+00
2.138775e+01	-5.602833e+00
2.151128e+01	-5.638904e+00
2.163553e+01	-5.675829e+00
2.176050e+01	-5.712014e+00
2.188619e+01	-5.748780e+00
2.201260e+01	-5.785702e+00
2.213974e+01	-5.822526e+00
2.226762e+01	-5.859424e+00
2.239624e+01	-5.896587e+00
2.252560e+01	-5.933808e+00
2.265571e+01	-5.970903e+00
2.278656e+01	-6.008537e+00
2.291818e+01	-6.046025e+00
2.305055e+01	-6.083673e+00
2.318369e+01	-6.121608e+00
2.331760e+01	-6.159710e+00
2.345228e+01	-6.197383e+00
2.358774e+01	-6.235250e+00
2.372398e+01	-6.273316e+00
2.386101e+01	-6.311708e+00
2.399883e+01	-6.349807e+00
2.413745e+01	-6.388895e+00
2.427686e+01	-6.427201e+00
2.441709e+01	-6.465597e+00
2.455812e+01	-6.504664e+00
2.469997e+01	-6.543781e+00
2.484263e+01	-6.582600e+00
2.498612e+01	-6.621180e+00
2.513044e+01	-6.661068e+00
2.527559e+01	-6.700536e+00
2.542158e+01	-6.739679e+00
2.556842e+01	-6.779160e+00
2.571610e+01	-6.818525e+00
2.586463e+01	-6.858171e+00
2.601403e+01	-6.898126e+00
2.616428e+01	-6.937756e+00
2.631541e+01	-6.977835e+00
2.646740e+01	-7.017947e+00
2.662028e+01	-7.057875e+00
2.677404e+01	-7.098456e+00
2.692868e+01	-7.138655e+00
2.708422e+01	-7.178809e+00
2.724066e+01	-7.219329e+00
2.739800e+01	-7.259827e+00
2.755625e+01	-7.300541e+00
2.771541e+01	-7.341701e+00
2.787550e+01	-7.382154e+00
2.803650e+01	-7.422977e+00
2.819844e+01	-7.464361e+00
2.836131e+01	-7.505283e+00
2.852513e+01	-7.546111e+00
2.868989e+01	-7.587929e+00
2.885560e+01	-7.629173e+00
2.902227e+01	-7.670490e+00
2.918990e+01	-7.711978e+00
2.935850e+01	-7.753453e+00
2.952807e+01	-7.795727e+00
2.969863e+01	-7.836828e+00
2.987016e+01	-7.879118e+00
3.004269e+01	-7.920623e+00
3.021622e+01	-7.962689e+00
3.039075e+01	-8.004650e+00
3.056628e+01	-8.046754e+00
3.074283e+01	-8.088863e+00
3.092040e+01	-8.131220e+00
3.109900e+01	-8.174010e+00
3.127862e+01	-8.216592e+00
3.145929e+01	-8.259025e+00
3.164099e+01	-8.301461e+00
3.182375e+01	-8.343994e+00
3.200756e+01	-8.386437e+00
3.219244e+01	-8.429575e+00
3.237838e+01	-8.472248e+00
3.256540e+01	-8.515412e+00
3.275349e+01	-8.558446e+00
3.294268e+01	-8.601989e+00
3.313295e+01	-8.644858e+00
3.332433e+01	-8.688005e+00
3.351681e+01	-8.731505e+00
3.371040e+01	-8.774241e+00
3.390511e+01	-8.817546e+00
3.410094e+01	-8.861451e+00
3.429791e+01	-8.905245e+00
3.449601e+01	-8.948682e+00
3.469526e+01	-8.992047e+00
3.489566e+01	-9.036220e+00
3.509721e+01	-9.080476e+00
3.529993e+01	-9.123930e+00
3.550382e+01	-9.167751e+00
3.570889e+01	-9.211842e+00
3.591515e+01	-9.256138e+00
3.612259e+01	-9.299888e+00
3.633123e+01	-9.344050e+00
3.654108e+01	-9.388071e+00
3.675214e+01	-9.433150e+00
3.696442e+01	-9.476996e+00
3.717792e+01	-9.521167e+00
3.739266e+01	-9.565764e+00
3.760864e+01	-9.610625e+00
3.782587e+01	-9.654856e+00
3.804435e+01	-9.699870e+00
3.826409e+01	-9.744426e+00
3.848510e+01	-9.788780e+00
3.870739e+01	-9.833665e+00
3.893096e+01	-9.878461e+00
3.915583e+01	-9.923938e+00
3.938199e+01	-9.969013e+00
3.960946e+01	-1.001393e+01
3.983824e+01	-1.005872e+01
4.006834e+01	-1.010376e+01
4.029978e+01	-1.014844e+01
4.053255e+01	-1.019425e+01
4.076666e+01	-1.023955e+01
4.100213e+01	-1.028483e+01
4.123896e+01	-1.033031e+01
4.147715e+01	-1.037572e+01
4.171672e+01	-1.042117e+01
4.195767e+01	-1.046645e+01
4.220002e+01	-1.051258e+01
4.244377e+01	-1.055780e+01
4.268892e+01	-1.060317e+01
4.293549e+01	-1.064929e+01
4.318348e+01	-1.069480e+01
4.343291e+01	-1.074058e+01
4.368377e+01	-1.078635e+01
4.393609e+01	-1.083242e+01
4.418986e+01	-1.087856e+01
4.444510e+01	-1.092409e+01
4.470182e+01	-1.097057e+01
4.496001e+01	-1.101644e+01
4.521970e+01	-1.106226e+01
4.548089e+01	-1.110885e+01
4.574358e+01	-1.115451e+01
4.600779e+01	-1.120045e+01
4.627353e+01	-1.124711e+01
4.654081e+01	-1.129339e+01
4.680963e+01	-1.133985e+01
4.708000e+01	-1.138626e+01
4.735193e+01	-1.143273e+01
4.762543e+01	-1.147839e+01
4.790051e+01	-1.152541e+01
4.817719e+01	-1.157102e+01
4.845545e+01	-1.161860e+01
4.873533e+01	-1.166563e+01
4.901682e+01	-1.171170e+01
4.929994e+01	-1.175892e+01
4.958470e+01	-1.180546e+01
4.987110e+01	-1.185177e+01
5.015915e+01	-1.189799e+01
5.044887e+01	-1.194495e+01
5.074026e+01	-1.199219e+01
5.103333e+01	-1.203935e+01
5.132810e+01	-1.208602e+01
5.162457e+01	-1.213316e+01
5.192275e+01	-1.218081e+01
5.222265e+01	-1.222687e+01
5.252429e+01	-1.227415e+01
5.282767e+01	-1.232058e+01
5.313280e+01	-1.236855e+01
5.343969e+01	-1.241547e+01
5.374836e+01	-1.246220e+01
5.405880e+01	-1.250990e+01
5.437105e+01	-1.255712e+01
5.468509e+01	-1.260414e+01
5.500095e+01	-1.265226e+01
5.531863e+01	-1.269879e+01
5.563815e+01	-1.274637e+01
5.595951e+01	-1.279370e+01
5.628273e+01	-1.284122e+01
5.660782e+01	-1.288852e+01
5.693479e+01	-1.293642e+01
5.726364e+01	-1.298366e+01
5.759439e+01	-1.303132e+01
5.792705e+01	-1.307865e+01
5.826164e+01	-1.312634e+01
5.859815e+01	-1.317401e+01
5.893662e+01	-1.322133e+01
5.927703e+01	-1.326902e+01
5.961941e+01	-1.331670e+01
5.996377e+01	-1.336387e+01
6.031012e+01	-1.341238e+01
6.065847e+01	-1.346030e+01
6.100883e+01	-1.350717e+01
6.136121e+01	-1.355524e+01
6.171563e+01	-1.360344e+01
6.207210e+01	-1.365096e+01
6.243063e+01	-1.369918e+01
6.279122e+01	-1.374730e+01
6.315390e+01	-1.379471e+01
6.351868e+01	-1.384312e+01
6.388556e+01	-1.389109e+01
6.425456e+01	-1.393873e+01
6.462569e+01	-1.398717e+01
6.499897e+01	-1.403567e+01
6.537440e+01	-1.408280e+01
6.575200e+01	-1.413149e+01
6.613178e+01	-1.417848e+01
6.651375e+01	-1.422756e+01
6.689793e+01	-1.427557e+01
6.728433e+01	-1.432326e+01
6.767297e+01	-1.437278e+01
6.806384e+01	-1.442017e+01
6.845698e+01	-1.446834e+01
6.885238e+01	-1.451749e+01
6.925007e+01	-1.456441e+01
6.965005e+01	-1.461329e+01
7.005235e+01	-1.466173e+01
7.045697e+01	-1.470908e+01
7.086393e+01	-1.475831e+01
7.127323e+01	-1.480656e+01
7.168490e+01	-1.485456e+01
7.209895e+01	-1.490350e+01
7.251539e+01	-1.495156e+01
7.293424e+01	-1.500025e+01
7.335551e+01	-1.504869e+01
7.377920e+01	-1.509662e+01
7.420535e+01	-1.514527e+01
7.463396e+01	-1.519416e+01
7.506504e+01	-1.524217e+01
7.549861e+01	-1.529204e+01
7.593469e+01	-1.533901e+01
7.637328e+01	-1.538805e+01
7.681441e+01	-1.543652e+01
7.725809e+01	-1.548488e+01
7.770433e+01	-1.553389e+01
7.815315e+01	-1.558320e+01
7.860456e+01	-1.563161e+01
7.905857e+01	-1.568016e+01
7.951521e+01	-1.572832e+01
7.997449e+01	-1.577728e+01
8.043642e+01	-1.582667e+01
8.090102e+01	-1.587405e+01
8.136830e+01	-1.592273e+01
8.183828e+01	-1.597236e+01
8.231097e+01	-1.602052e+01
8.278640e+01	-1.607018e+01
8.326457e+01	-1.611904e+01
8.374550e+01	-1.616675e+01
8.422921e+01	-1.621641e+01
8.471572e+01	-1.626501e+01
8.520503e+01	-1.631422e+01
8.569717e+01	-1.636216e+01
8.619215e+01	-1.641195e+01
8.669000e+01	-1.646119e+01
8.719071e+01	-1.650973e+01
8.769432e+01	-1.655868e+01
8.820084e+01	-1.660679e+01
8.871029e+01	-1.665648e+01
8.922267e+01	-1.670505e+01
8.973802e+01	-1.675338e+01
9.025634e+01	-1.680303e+01
9.077766e+01	-1.685155e+01
9.130199e+01	-1.690128e+01
9.182935e+01	-1.695094e+01
9.235975e+01	-1.699894e+01
9.289321e+01	-1.704857e+01
9.342976e+01	-1.709727e+01
9.396941e+01	-1.714666e+01
9.451217e+01	-1.719490e+01
9.505807e+01	-1.724382e+01
9.560712e+01	-1.729388e+01
9.615934e+01	-1.734313e+01
9.671476e+01	-1.739137e+01
9.727338e+01	-1.744103e+01
9.783522e+01	-1.749019e+01
9.840032e+01	-1.754042e+01
9.896867e+01	-1.758828e+01
9.954031e+01	-1.763685e+01
1.001153e+02	-1.768803e+01
1.006935e+02	-1.773657e+01
1.012751e+02	-1.778486e+01
1.018601e+02	-1.783412e+01
1.024484e+02	-1.788316e+01
1.030402e+02	-1.793232e+01
1.036353e+02	-1.798189e+01
1.042339e+02	-1.803128e+01
1.048360e+02	-1.808062e+01
1.054415e+02	-1.812930e+01
1.060505e+02	-1.817802e+01
1.066631e+02	-1.822787e+01
1.072791e+02	-1.827720e+01
1.078988e+02	-1.832646e+01
1.085220e+02	-1.837603e+01
1.091488e+02	-1.842592e+01
1.097793e+02	-1.847497e+01
1.104133e+02	-1.852451e+01
1.110511e+02	-1.857195e+01
1.116925e+02	-1.862264e+01
1.123376e+02	-1.867318e+01
1.129865e+02	-1.872057e+01
1.136391e+02	-1.877091e+01
1.142955e+02	-1.882090e+01
1.149556e+02	-1.886989e+01
1.156196e+02	-1.892014e+01
1.162874e+02	-1.896945e+01
1.169591e+02	-1.901872e+01
1.176347e+02	-1.906716e+01
1.183141e+02	-1.911538e+01
1.189975e+02	-1.916624e+01
1.196848e+02	-1.921528e+01
1.203761e+02	-1.926489e+01
1.210714e+02	-1.931422e+01
1.217707e+02	-1.936366e+01
1.224740e+02	-1.941348e+01
1.231814e+02	-1.946385e+01
1.238929e+02	-1.951370e+01
1.246085e+02	-1.956273e+01
1.253283e+02	-1.961127e+01
1.260522e+02	-1.966079e+01
1.267802e+02	-1.971098e+01
1.275125e+02	-1.976028e+01
1.282490e+02	-1.980913e+01
1.289898e+02	-1.986096e+01
1.297348e+02	-1.990748e+01
1.304842e+02	-1.995704e+01
1.312378e+02	-2.000722e+01
1.319959e+02	-2.005714e+01
1.327583e+02	-2.010634e+01
1.335251e+02	-2.015611e+01
1.342963e+02	-2.020447e+01
1.350720e+02	-2.025663e+01
1.358522e+02	-2.030605e+01
1.366368e+02	-2.035424e+01
1.374260e+02	-2.040506e+01
1.382198e+02	-2.045210e+01
1.390182e+02	-2.050257e+01
1.398211e+02	-2.055450e+01
1.406287e+02	-2.060175e+01
1.414410e+02	-2.065186e+01
1.422579e+02	-2.070258e+01
1.430796e+02	-2.075070e+01
1.439060e+02	-2.080105e+01
1.447372e+02	-2.085023e+01
1.455732e+02	-2.090072e+01
1.464141e+02	-2.094920e+01
1.472597e+02	-2.100021e+01
1.481103e+02	-2.104816e+01
1.489658e+02	-2.109802e+01
1.498262e+02	-2.114872e+01
1.506916e+02	-2.119744e+01
1.515620e+02	-2.124796e+01
1.524374e+02	-2.129624e+01
1.533179e+02	-2.134681e+01
1.542034e+02	-2.139849e+01
1.550941e+02	-2.144808e+01
1.559899e+02	-2.149541e+01
1.568909e+02	-2.154631e+01
1.577971e+02	-2.159465e+01
1.587085e+02	-2.164578e+01
1.596252e+02	-2.169512e+01
1.605472e+02	-2.174468e+01
1.614745e+02	-2.179512e+01
1.624072e+02	-2.184309e+01
1.633453e+02	-2.189324e+01
1.642887e+02	-2.194333e+01
1.652377e+02	-2.199394e+01
1.661921e+02	-2.204427e+01
1.671520e+02	-2.209441e+01
1.681175e+02	-2.214362e+01
1.690885e+02	-2.219326e+01
1.700651e+02	-2.224204e+01
1.710474e+02	-2.229062e+01
1.720354e+02	-2.234154e+01
1.730291e+02	-2.239188e+01
1.740285e+02	-2.243976e+01
1.750337e+02	-2.249042e+01
1.760446e+02	-2.253865e+01
1.770615e+02	-2.259063e+01
1.780842e+02	-2.263881e+01
1.791128e+02	-2.269016e+01
1.801473e+02	-2.273909e+01
1.811878e+02	-2.278806e+01
1.822344e+02	-2.283846e+01
1.832870e+02	-2.289073e+01
1.843456e+02	-2.293811e+01
1.854104e+02	-2.298735e+01
1.864813e+02	-2.303815e+01
1.875584e+02	-2.308823e+01
1.886418e+02	-2.313760e+01
1.897313e+02	-2.318919e+01
1.908272e+02	-2.323693e+01
1.919294e+02	-2.328722e+01
1.930380e+02	-2.333834e+01
1.941530e+02	-2.338557e+01
1.952744e+02	-2.343651e+01
1.964023e+02	-2.348686e+01
1.975367e+02	-2.353552e+01
1.986777e+02	-2.358435e+01
1.998252e+02	-2.363908e+01
2.009794e+02	-2.368938e+01
2.021403e+02	-2.373420e+01
2.033078e+02	-2.378535e+01
2.044821e+02	-2.383397e+01
2.056632e+02	-2.388447e+01
2.068511e+02	-2.393585e+01
2.080459e+02	-2.398510e+01
2.092475e+02	-2.403544e+01
2.104561e+02	-2.408541e+01
2.116717e+02	-2.413554e+01
2.128943e+02	-2.418451e+01
2.141240e+02	-2.423440e+01
2.153608e+02	-2.428362e+01
2.166047e+02	-2.433402e+01
2.178558e+02	-2.438720e+01
2.191141e+02	-2.443181e+01
2.203797e+02	-2.448512e+01
2.216526e+02	-2.453458e+01
2.229329e+02	-2.458516e+01
2.242205e+02	-2.463339e+01
2.255156e+02	-2.468050e+01
2.268182e+02	-2.473372e+01
2.281283e+02	-2.478644e+01
2.294459e+02	-2.483300e+01
2.307712e+02	-2.488453e+01
2.321041e+02	-2.493308e+01
2.334447e+02	-2.498064e+01
2.347931e+02	-2.503538e+01
2.361493e+02	-2.508307e+01
2.375133e+02	-2.513472e+01
2.388851e+02	-2.518219e+01
2.402649e+02	-2.523710e+01
2.416527e+02	-2.528245e+01
2.430484e+02	-2.533262e+01
2.444523e+02	-2.538136e+01
2.458642e+02	-2.543258e+01
2.472843e+02	-2.548097e+01
2.487126e+02	-2.553034e+01
2.501492e+02	-2.558434e+01
2.515940e+02	-2.563577e+01
2.530472e+02	-2.568003e+01
2.545088e+02	-2.573278e+01
2.559789e+02	-2.578246e+01
2.574574e+02	-2.583245e+01
2.589444e+02	-2.587931e+01
2.604401e+02	-2.593383e+01
2.619444e+02	-2.598104e+01
2.634574e+02	-2.603277e+01
2.649791e+02	-2.608040e+01
2.665096e+02	-2.613113e+01
2.680489e+02	-2.618336e+01
2.695972e+02	-2.622880e+01
2.711544e+02	-2.627926e+01
2.727205e+02	-2.633133e+01
2.742958e+02	-2.638018e+01
2.758801e+02	-2.643045e+01
2.774736e+02	-2.647743e+01
2.790762e+02	-2.653554e+01
2.806882e+02	-2.658262e+01
2.823094e+02	-2.662926e+01
2.839400e+02	-2.668333e+01
2.855800e+02	-2.673173e+01
2.872295e+02	-2.677992e+01
2.888886e+02	-2.683321e+01
2.905572e+02	-2.687929e+01
2.922354e+02	-2.693093e+01
2.939234e+02	-2.698210e+01
2.956211e+02	-2.703624e+01
2.973286e+02	-2.707941e+01
2.990459e+02	-2.712948e+01
3.007732e+02	-2.718357e+01
3.025104e+02	-2.723298e+01
3.042577e+02	-2.728130e+01
3.060151e+02	-2.733280e+01
3.077826e+02	-2.738207e+01
3.095604e+02	-2.743281e+01
3.113484e+02	-2.748384e+01
3.131467e+02	-2.753519e+01
3.149554e+02	-2.758268e+01
3.167746e+02	-2.763086e+01
3.186043e+02	-2.768004e+01
3.204445e+02	-2.772860e+01
3.222954e+02	-2.778215e+01
3.241570e+02	-2.782873e+01
3.260293e+02	-2.788054e+01
3.279124e+02	-2.793489e+01
3.298064e+02	-2.797944e+01
3.317114e+02	-2.803323e+01
3.336273e+02	-2.808321e+01
3.355544e+02	-2.813514e+01
3.374925e+02	-2.818332e+01
3.394418e+02	-2.822953e+01
3.414024e+02	-2.828338e+01
3.433744e+02	-2.833388e+01
3.453577e+02	-2.838356e+01
3.473525e+02	-2.843427e+01
3.493588e+02	-2.848159e+01
3.513766e+02	-2.853019e+01
3.534062e+02	-2.858193e+01
3.554474e+02	-2.863058e+01
3.575005e+02	-2.868483e+01
3.595654e+02	-2.873117e+01
3.616422e+02	-2.877982e+01
3.637311e+02	-2.883294e+01
3.658320e+02	-2.888015e+01
3.679450e+02	-2.893470e+01
3.700702e+02	-2.898210e+01
3.722077e+02	-2.903017e+01
3.743576e+02	-2.908324e+01
3.765199e+02	-2.912814e+01
3.786946e+02	-2.918505e+01
3.808820e+02	-2.923601e+01
3.830819e+02	-2.928179e+01
3.852946e+02	-2.933330e+01
3.875200e+02	-2.938682e+01
3.897583e+02	-2.943586e+01
3.920096e+02	-2.948048e+01
3.942738e+02	-2.953791e+01
3.965511e+02	-2.958144e+01
3.988416e+02	-2.963200e+01
4.011452e+02	-2.968616e+01
4.034622e+02	-2.973633e+01
4.057926e+02	-2.978458e+01
4.081365e+02	-2.983672e+01
4.104938e+02	-2.988406e+01
4.128648e+02	-2.993040e+01
4.152495e+02	-2.998385e+01
4.176480e+02	-3.003522e+01
4.200603e+02	-3.008702e+01
4.224866e+02	-3.013312e+01
4.249268e+02	-3.018568e+01
4.273812e+02	-3.023606e+01
4.298497e+02	-3.028504e+01
4.323325e+02	-3.033574e+01
4.348297e+02	-3.038561e+01
4.373412e+02	-3.043720e+01
4.398673e+02	-3.048211e+01
4.424079e+02	-3.053597e+01
4.449633e+02	-3.058510e+01
4.475334e+02	-3.063522e+01
4.501183e+02	-3.068182e+01
4.527182e+02	-3.073179e+01
4.553330e+02	-3.078572e+01
4.579630e+02	-3.083452e+01
4.606082e+02	-3.088867e+01
4.632687e+02	-3.093685e+01
4.659445e+02	-3.099182e+01
4.686358e+02	-3.104031e+01
4.713426e+02	-3.108811e+01
4.740650e+02	-3.113576e+01
4.768032e+02	-3.118820e+01
4.795572e+02	-3.123623e+01
4.823271e+02	-3.128742e+01
4.851130e+02	-3.133747e+01
4.879150e+02	-3.138935e+01
4.907332e+02	-3.143818e+01
4.935676e+02	-3.149206e+01
4.964185e+02	-3.154044e+01
4.992858e+02	-3.159269e+01
5.021696e+02	-3.163994e+01
5.050701e+02	-3.169310e+01
5.079874e+02	-3.174023e+01
5.109215e+02	-3.178755e+01
5.138726e+02	-3.184426e+01
5.168407e+02	-3.189193e+01
5.198259e+02	-3.194397e+01
5.228284e+02	-3.199039e+01
5.258482e+02	-3.203368e+01
5.288855e+02	-3.209595e+01
5.319403e+02	-3.214353e+01
5.350128e+02	-3.219313e+01
5.381030e+02	-3.224386e+01
5.412111e+02	-3.228959e+01
5.443371e+02	-3.234792e+01
5.474812e+02	-3.239514e+01
5.506434e+02	-3.244596e+01
5.538239e+02	-3.249250e+01
5.570228e+02	-3.254652e+01
5.602401e+02	-3.259827e+01
5.634760e+02	-3.264332e+01
5.667306e+02	-3.269120e+01
5.700040e+02	-3.274114e+01
5.732964e+02	-3.279465e+01
5.766077e+02	-3.285066e+01
5.799382e+02	-3.290244e+01
5.832879e+02	-3.294877e+01
5.866569e+02	-3.300061e+01
5.900454e+02	-3.303795e+01
5.934535e+02	-3.308996e+01
5.968813e+02	-3.314800e+01
6.003288e+02	-3.319469e+01
6.037963e+02	-3.325148e+01
6.072838e+02	-3.329329e+01
6.107914e+02	-3.335218e+01
6.143194e+02	-3.340338e+01
6.178676e+02	-3.345259e+01
6.214364e+02	-3.349722e+01
6.250258e+02	-3.355680e+01
6.286359e+02	-3.360535e+01
6.322669e+02	-3.365376e+01
6.359189e+02	-3.370528e+01
6.395919e+02	-3.375758e+01
6.432862e+02	-3.380456e+01
6.470017e+02	-3.385619e+01
6.507388e+02	-3.390576e+01
6.544974e+02	-3.395410e+01
6.582778e+02	-3.400445e+01
6.620800e+02	-3.405595e+01
6.659041e+02	-3.409957e+01
6.697504e+02	-3.415246e+01
6.736188e+02	-3.420644e+01
6.775096e+02	-3.425121e+01
6.814229e+02	-3.430862e+01
6.853587e+02	-3.435561e+01
6.893173e+02	-3.440652e+01
6.932988e+02	-3.445859e+01
6.973033e+02	-3.449928e+01
7.013309e+02	-3.455644e+01
