Frequency(Hz)	Magnitude(dB)
1.000000e+01	-2.089536e+00
1.005776e+01	-2.108781e+00
1.011585e+01	-2.127976e+00
1.017428e+01	-2.147864e+00
1.023305e+01	-2.167266e+00
1.029215e+01	-2.187065e+00
1.035160e+01	-2.206651e+00
1.041139e+01	-2.226707e+00
1.047153e+01	-2.246841e+00
1.053201e+01	-2.266973e+00
1.059284e+01	-2.287785e+00
1.065403e+01	-2.308111e+00
1.071556e+01	-2.328772e+00
1.077746e+01	-2.349865e+00
1.083971e+01	-2.370737e+00
1.090232e+01	-2.391856e+00
1.096529e+01	-2.413041e+00
1.102862e+01	-2.434469e+00
1.109232e+01	-2.455768e+00
1.115639e+01	-2.477724e+00
1.122083e+01	-2.499369e+00
1.128564e+01	-2.521292e+00
1.135083e+01	-2.543613e+00
1.141639e+01	-2.565903e+00
1.148233e+01	-2.588026e+00
1.154865e+01	-2.610720e+00
1.161536e+01	-2.633111e+00
1.168245e+01	-2.656089e+00
1.174992e+01	-2.679061e+00
1.181779e+01	-2.702229e+00
1.188605e+01	-2.725434e+00
1.195470e+01	-2.748889e+00
1.202375e+01	-2.772300e+00
1.209320e+01	-2.795962e+00
1.216305e+01	-2.820011e+00
1.223330e+01	-2.843933e+00
1.230396e+01	-2.867688e+00
1.237503e+01	-2.892215e+00
1.244651e+01	-2.916463e+00
1.251840e+01	-2.941217e+00
1.259070e+01	-2.966048e+00
1.266343e+01	-2.990563e+00
1.273657e+01	-3.015504e+00
1.281014e+01	-3.040710e+00
1.288413e+01	-3.065553e+00
1.295855e+01	-3.091185e+00
1.303339e+01	-3.116846e+00
1.310867e+01	-3.142647e+00
1.318439e+01	-3.168477e+00
1.326054e+01	-3.194463e+00
1.333713e+01	-3.220375e+00
1.341417e+01	-3.246732e+00
1.349165e+01	-3.273214e+00
1.356958e+01	-3.299776e+00
1.364795e+01	-3.326368e+00
1.372678e+01	-3.353298e+00
1.380607e+01	-3.379981e+00
1.388581e+01	-3.407368e+00
1.396602e+01	-3.434698e+00
1.404668e+01	-3.461913e+00
1.412782e+01	-3.489836e+00
1.420942e+01	-3.517296e+00
1.429149e+01	-3.545390e+00
1.437404e+01	-3.573278e+00
1.445706e+01	-3.601162e+00
1.454057e+01	-3.629486e+00
1.462455e+01	-3.657976e+00
1.470902e+01	-3.686635e+00
1.479398e+01	-3.715132e+00
1.487943e+01	-3.743789e+00
1.496537e+01	-3.772937e+00
1.505181e+01	-3.801898e+00
1.513875e+01	-3.831415e+00
1.522619e+01	-3.860977e+00
1.531414e+01	-3.890102e+00
1.540259e+01	-3.919883e+00
1.549156e+01	-3.949727e+00
1.558103e+01	-3.979654e+00
1.567103e+01	-4.009633e+00
1.576155e+01	-4.039879e+00
1.585258e+01	-4.070324e+00
1.594415e+01	-4.101086e+00
1.603624e+01	-4.131475e+00
1.612886e+01	-4.162202e+00
1.622202e+01	-4.193087e+00
1.631572e+01	-4.223979e+00
1.640996e+01	-4.255471e+00
1.650474e+01	-4.286906e+00
1.660008e+01	-4.318063e+00
1.669596e+01	-4.349882e+00
1.679239e+01	-4.381684e+00
1.688938e+01	-4.413431e+00
1.698694e+01	-4.445360e+00
1.708505e+01	-4.477214e+00
1.718373e+01	-4.509596e+00
1.728299e+01	-4.542140e+00
1.738281e+01	-4.574488e+00
1.748322e+01	-4.607414e+00
1.758420e+01	-4.640112e+00
1.768576e+01	-4.673081e+00
1.778792e+01	-4.706144e+00
1.789066e+01	-4.738997e+00
1.799399e+01	-4.772284e+00
1.809793e+01	-4.805896e+00
1.820246e+01	-4.839352e+00
1.830760e+01	-4.873016e+00
1.841334e+01	-4.906508e+00
1.851969e+01	-4.940824e+00
1.862666e+01	-4.974696e+00
1.873425e+01	-5.008941e+00
1.884246e+01	-5.043197e+00
1.895129e+01	-5.077767e+00
1.906075e+01	-5.112371e+00
1.917085e+01	-5.147256e+00
1.928158e+01	-5.181812e+00
1.939295e+01	-5.216515e+00
1.950496e+01	-5.251740e+00
1.961762e+01	-5.286726e+00
1.973093e+01	-5.322031e+00
1.984490e+01	-5.357579e+00
1.995952e+01	-5.393128e+00
2.007480e+01	-5.428423e+00
2.019076e+01	-5.464449e+00
2.030738e+01	-5.500374e+00
2.042467e+01	-5.536480e+00
2.054264e+01	-5.572155e+00
2.066130e+01	-5.608492e+00
2.078064e+01	-5.644753e+00
2.090066e+01	-5.681276e+00
2.102139e+01	-5.717960e+00
2.114280e+01	-5.754754e+00
2.126492e+01	-5.791244e+00
2.138775e+01	-5.828165e+00
2.151128e+01	-5.865511e+00
2.163553e+01	-5.902272e+00
2.176050e+01	-5.939625e+00
2.188619e+01	-5.977029e+00
2.201260e+01	-6.014460e+00
2.213974e+01	-6.051930e+00
2.226762e+01	-6.089350e+00
2.239624e+01	-6.127700e+00
2.252560e+01	-6.165368e+00
2.265571e+01	-6.203260e+00
2.278656e+01	-6.241540e+00
2.291818e+01	-6.279337e+00
2.305055e+01	-6.317926e+00
2.318369e+01	-6.356121e+00
2.331760e+01	-6.394803e+00
2.345228e+01	-6.433570e+00
2.358774e+01	-6.471967e+00
2.372398e+01	-6.510909e+00
2.386101e+01	-6.549264e+00
2.399883e+01	-6.588831e+00
2.413745e+01	-6.628091e+00
2.427686e+01	-6.666712e+00
2.441709e+01	-6.706389e+00
2.455812e+01	-6.745755e+00
2.469997e+01	-6.784945e+00
2.484263e+01	-6.824870e+00
2.498612e+01	-6.864465e+00
2.513044e+01	-6.904367e+00
2.527559e+01	-6.944072e+00
2.542158e+01	-6.984174e+00
2.556842e+01	-7.024347e+00
2.571610e+01	-7.064288e+00
2.586463e+01	-7.104833e+00
2.601403e+01	-7.145091e+00
2.616428e+01	-7.185113e+00
2.631541e+01	-7.225776e+00
2.646740e+01	-7.266609e+00
2.662028e+01	-7.306810e+00
2.677404e+01	-7.347947e+00
2.692868e+01	-7.388848e+00
2.708422e+01	-7.429732e+00
2.724066e+01	-7.470784e+00
2.739800e+01	-7.511388e+00
2.755625e+01	-7.552779e+00
2.771541e+01	-7.594525e+00
2.787550e+01	-7.635429e+00
2.803650e+01	-7.676655e+00
2.819844e+01	-7.718585e+00
2.836131e+01	-7.760114e+00
2.852513e+01	-7.801845e+00
2.868989e+01	-7.843700e+00
2.885560e+01	-7.885350e+00
2.902227e+01	-7.927184e+00
2.918990e+01	-7.969486e+00
2.935850e+01	-8.011539e+00
2.952807e+01	-8.053494e+00
2.969863e+01	-8.095881e+00
2.987016e+01	-8.137838e+00
3.004269e+01	-8.180323e+00
3.021622e+01	-8.223240e+00
3.039075e+01	-8.265820e+00
3.056628e+01	-8.307639e+00
3.074283e+01	-8.351187e+00
3.092040e+01	-8.393711e+00
3.109900e+01	-8.436561e+00
3.127862e+01	-8.479156e+00
3.145929e+01	-8.522374e+00
3.164099e+01	-8.565517e+00
3.182375e+01	-8.608272e+00
3.200756e+01	-8.651791e+00
3.219244e+01	-8.694969e+00
3.237838e+01	-8.737936e+00
3.256540e+01	-8.781717e+00
3.275349e+01	-8.825059e+00
3.294268e+01	-8.868568e+00
3.313295e+01	-8.911541e+00
3.332433e+01	-8.955453e+00
3.351681e+01	-8.999019e+00
3.371040e+01	-9.043084e+00
3.390511e+01	-9.086859e+00
3.410094e+01	-9.130584e+00
3.429791e+01	-9.174973e+00
3.449601e+01	-9.218915e+00
3.469526e+01	-9.262779e+00
3.489566e+01	-9.306653e+00
3.509721e+01	-9.350803e+00
3.529993e+01	-9.395309e+00
3.550382e+01	-9.439830e+00
3.570889e+01	-9.483849e+00
3.591515e+01	-9.528276e+00
3.612259e+01	-9.573482e+00
3.633123e+01	-9.617055e+00
3.654108e+01	-9.662075e+00
3.675214e+01	-9.706780e+00
3.696442e+01	-9.751125e+00
3.717792e+01	-9.795794e+00
3.739266e+01	-9.841430e+00
3.760864e+01	-9.886048e+00
3.782587e+01	-9.930826e+00
3.804435e+01	-9.975305e+00
3.826409e+01	-1.002119e+01
3.848510e+01	-1.006571e+01
3.870739e+01	-1.011089e+01
3.893096e+01	-1.015616e+01
3.915583e+01	-1.020164e+01
3.938199e+01	-1.024704e+01
3.960946e+01	-1.029190e+01
3.983824e+01	-1.033742e+01
4.006834e+01	-1.038247e+01
4.029978e+01	-1.042835e+01
4.053255e+01	-1.047336e+01
4.076666e+01	-1.051962e+01
4.100213e+01	-1.056499e+01
4.123896e+01	-1.061056e+01
4.147715e+01	-1.065596e+01
4.171672e+01	-1.070209e+01
4.195767e+01	-1.074757e+01
4.220002e+01	-1.079377e+01
4.244377e+01	-1.083947e+01
4.268892e+01	-1.088527e+01
4.293549e+01	-1.093134e+01
4.318348e+01	-1.097723e+01
4.343291e+01	-1.102356e+01
4.368377e+01	-1.106932e+01
4.393609e+01	-1.111602e+01
4.418986e+01	-1.116195e+01
4.444510e+01	-1.120844e+01
4.470182e+01	-1.125411e+01
4.496001e+01	-1.130049e+01
4.521970e+01	-1.134695e+01
4.548089e+01	-1.139302e+01
4.574358e+01	-1.143971e+01
4.600779e+01	-1.148629e+01
4.627353e+01	-1.153304e+01
4.654081e+01	-1.157934e+01
4.680963e+01	-1.162559e+01
4.708000e+01	-1.167258e+01
4.735193e+01	-1.171994e+01
4.762543e+01	-1.176541e+01
4.790051e+01	-1.181218e+01
4.817719e+01	-1.185882e+01
4.845545e+01	-1.190600e+01
4.873533e+01	-1.195291e+01
4.901682e+01	-1.199921e+01
4.929994e+01	-1.204649e+01
4.958470e+01	-1.209350e+01
4.987110e+01	-1.214035e+01
5.015915e+01	-1.218749e+01
5.044887e+01	-1.223400e+01
5.074026e+01	-1.228162e+01
5.103333e+01	-1.232799e+01
5.132810e+01	-1.237599e+01
5.162457e+01	-1.242328e+01
5.192275e+01	-1.247029e+01
5.222265e+01	-1.251717e+01
5.252429e+01	-1.256391e+01
5.282767e+01	-1.261106e+01
5.313280e+01	-1.265928e+01
5.343969e+01	-1.270692e+01
5.374836e+01	-1.275350e+01
5.405880e+01	-1.280150e+01
5.437105e+01	-1.284856e+01
5.468509e+01	-1.289516e+01
5.500095e+01	-1.294328e+01
5.531863e+01	-1.299036e+01
5.563815e+01	-1.303835e+01
5.595951e+01	-1.308562e+01
5.628273e+01	-1.313348e+01
5.660782e+01	-1.318152e+01
5.693479e+01	-1.322899e+01
5.726364e+01	-1.327727e+01
5.759439e+01	-1.332411e+01
5.792705e+01	-1.337193e+01
5.826164e+01	-1.341977e+01
5.859815e+01	-1.346764e+01
5.893662e+01	-1.351475e+01
5.927703e+01	-1.356271e+01
5.961941e+01	-1.361041e+01
5.996377e+01	-1.365831e+01
6.031012e+01	-1.370668e+01
6.065847e+01	-1.375484e+01
6.100883e+01	-1.380297e+01
6.136121e+01	-1.384959e+01
6.171563e+01	-1.389938e+01
6.207210e+01	-1.394614e+01
6.243063e+01	-1.399420e+01
6.279122e+01	-1.404253e+01
6.315390e+01	-1.409040e+01
6.351868e+01	-1.413901e+01
6.388556e+01	-1.418724e+01
6.425456e+01	-1.423508e+01
6.462569e+01	-1.428280e+01
6.499897e+01	-1.433129e+01
6.537440e+01	-1.437986e+01
6.575200e+01	-1.442712e+01
6.613178e+01	-1.447624e+01
6.651375e+01	-1.452371e+01
6.689793e+01	-1.457225e+01
6.728433e+01	-1.462004e+01
6.767297e+01	-1.466832e+01
6.806384e+01	-1.471643e+01
6.845698e+01	-1.476552e+01
6.885238e+01	-1.481518e+01
6.925007e+01	-1.486202e+01
6.965005e+01	-1.491032e+01
7.005235e+01	-1.495863e+01
7.045697e+01	-1.500768e+01
7.086393e+01	-1.505642e+01
7.127323e+01	-1.510506e+01
7.168490e+01	-1.515287e+01
7.209895e+01	-1.520272e+01
7.251539e+01	-1.525038e+01
7.293424e+01	-1.529900e+01
7.335551e+01	-1.534746e+01
7.377920e+01	-1.539545e+01
7.420535e+01	-1.544341e+01
7.463396e+01	-1.549332e+01
7.506504e+01	-1.554248e+01
7.549861e+01	-1.558985e+01
7.593469e+01	-1.563911e+01
7.637328e+01	-1.568747e+01
7.681441e+01	-1.573647e+01
7.725809e+01	-1.578509e+01
7.770433e+01	-1.583292e+01
7.815315e+01	-1.588371e+01
7.860456e+01	-1.593089e+01
7.905857e+01	-1.598018e+01
7.951521e+01	-1.602886e+01
7.997449e+01	-1.607728e+01
8.043642e+01	-1.612532e+01
8.090102e+01	-1.617558e+01
8.136830e+01	-1.622444e+01
8.183828e+01	-1.627339e+01
8.231097e+01	-1.632276e+01
8.278640e+01	-1.637048e+01
8.326457e+01	-1.641886e+01
8.374550e+01	-1.646875e+01
8.422921e+01	-1.651556e+01
8.471572e+01	-1.656584e+01
8.520503e+01	-1.661503e+01
8.569717e+01	-1.666366e+01
8.619215e+01	-1.671310e+01
8.669000e+01	-1.676136e+01
8.719071e+01	-1.681083e+01
8.769432e+01	-1.686068e+01
8.820084e+01	-1.690978e+01
8.871029e+01	-1.695758e+01
8.922267e+01	-1.700807e+01
8.973802e+01	-1.705560e+01
9.025634e+01	-1.710534e+01
9.077766e+01	-1.715475e+01
9.130199e+01	-1.720281e+01
9.182935e+01	-1.725234e+01
9.235975e+01	-1.730125e+01
9.289321e+01	-1.735027e+01
9.342976e+01	-1.739922e+01
9.396941e+01	-1.744695e+01
9.451217e+01	-1.749671e+01
9.505807e+01	-1.754625e+01
9.560712e+01	-1.759691e+01
9.615934e+01	-1.764470e+01
9.671476e+01	-1.769463e+01
9.727338e+01	-1.774348e+01
9.783522e+01	-1.779394e+01
9.840032e+01	-1.784191e+01
9.896867e+01	-1.789071e+01
9.954031e+01	-1.793956e+01
1.001153e+02	-1.799123e+01
1.006935e+02	-1.803932e+01
1.012751e+02	-1.808863e+01
1.018601e+02	-1.813754e+01
1.024484e+02	-1.818841e+01
1.030402e+02	-1.823611e+01
1.036353e+02	-1.828603e+01
1.042339e+02	-1.833432e+01
1.048360e+02	-1.838374e+01
1.054415e+02	-1.843407e+01
1.060505e+02	-1.848205e+01
1.066631e+02	-1.853113e+01
1.072791e+02	-1.858169e+01
1.078988e+02	-1.863054e+01
1.085220e+02	-1.868037e+01
1.091488e+02	-1.872923e+01
1.097793e+02	-1.877803e+01
1.104133e+02	-1.882763e+01
1.110511e+02	-1.887678e+01
1.116925e+02	-1.892671e+01
1.123376e+02	-1.897483e+01
1.129865e+02	-1.902416e+01
1.136391e+02	-1.907476e+01
1.142955e+02	-1.912552e+01
1.149556e+02	-1.917457e+01
1.156196e+02	-1.922274e+01
1.162874e+02	-1.927251e+01
1.169591e+02	-1.932310e+01
1.176347e+02	-1.937153e+01
1.183141e+02	-1.942276e+01
1.189975e+02	-1.947132e+01
1.196848e+02	-1.951956e+01
1.203761e+02	-1.957016e+01
1.210714e+02	-1.962040e+01
1.217707e+02	-1.966817e+01
1.224740e+02	-1.971747e+01
1.231814e+02	-1.976701e+01
1.238929e+02	-1.981682e+01
1.246085e+02	-1.986635e+01
1.253283e+02	-1.991606e+01
1.260522e+02	-1.996602e+01
1.267802e+02	-2.001534e+01
1.275125e+02	-2.006396e+01
1.282490e+02	-2.011423e+01
1.289898e+02	-2.016336e+01
1.297348e+02	-2.021217e+01
1.304842e+02	-2.026456e+01
1.312378e+02	-2.031179e+01
1.319959e+02	-2.036176e+01
1.327583e+02	-2.041221e+01
1.335251e+02	-2.045952e+01
1.342963e+02	-2.050994e+01
1.350720e+02	-2.056141e+01
1.358522e+02	-2.060945e+01
1.366368e+02	-2.066005e+01
1.374260e+02	-2.070941e+01
1.382198e+02	-2.075972e+01
1.390182e+02	-2.080910e+01
1.398211e+02	-2.085868e+01
1.406287e+02	-2.090573e+01
1.414410e+02	-2.095984e+01
1.422579e+02	-2.100680e+01
1.430796e+02	-2.105610e+01
1.439060e+02	-2.110542e+01
1.447372e+02	-2.115632e+01
1.455732e+02	-2.120647e+01
1.464141e+02	-2.125532e+01
1.472597e+02	-2.130677e+01
1.481103e+02	-2.135568e+01
1.489658e+02	-2.140627e+01
1.498262e+02	-2.145436e+01
1.506916e+02	-2.150216e+01
1.515620e+02	-2.155186e+01
1.524374e+02	-2.160516e+01
1.533179e+02	-2.165236e+01
1.542034e+02	-2.170221e+01
1.550941e+02	-2.175082e+01
1.559899e+02	-2.180196e+01
1.568909e+02	-2.185123e+01
1.577971e+02	-2.190174e+01
1.587085e+02	-2.195192e+01
1.596252e+02	-2.200033e+01
1.605472e+02	-2.205038e+01
1.614745e+02	-2.210041e+01
1.624072e+02	-2.215040e+01
1.633453e+02	-2.220051e+01
1.642887e+02	-2.224902e+01
1.652377e+02	-2.229742e+01
1.661921e+02	-2.234835e+01
1.671520e+02	-2.239952e+01
1.681175e+02	-2.244793e+01
1.690885e+02	-2.249925e+01
1.700651e+02	-2.254751e+01
1.710474e+02	-2.259640e+01
1.720354e+02	-2.264804e+01
1.730291e+02	-2.269590e+01
1.740285e+02	-2.274661e+01
1.750337e+02	-2.279586e+01
1.760446e+02	-2.284534e+01
1.770615e+02	-2.289632e+01
1.780842e+02	-2.294910e+01
1.791128e+02	-2.299528e+01
1.801473e+02	-2.304408e+01
1.811878e+02	-2.309587e+01
1.822344e+02	-2.314381e+01
1.832870e+02	-2.319519e+01
1.843456e+02	-2.324595e+01
1.854104e+02	-2.329219e+01
1.864813e+02	-2.334303e+01
1.875584e+02	-2.339385e+01
1.886418e+02	-2.344473e+01
1.897313e+02	-2.349346e+01
1.908272e+02	-2.354380e+01
1.919294e+02	-2.359283e+01
1.930380e+02	-2.364298e+01
1.941530e+02	-2.369258e+01
1.952744e+02	-2.374523e+01
1.964023e+02	-2.379493e+01
1.975367e+02	-2.384175e+01
1.986777e+02	-2.389101e+01
1.998252e+02	-2.394151e+01
2.009794e+02	-2.399278e+01
2.021403e+02	-2.404299e+01
2.033078e+02	-2.409127e+01
2.044821e+02	-2.414232e+01
2.056632e+02	-2.419383e+01
2.068511e+02	-2.424042e+01
2.080459e+02	-2.429513e+01
2.092475e+02	-2.434062e+01
2.104561e+02	-2.439376e+01
2.116717e+02	-2.444279e+01
2.128943e+02	-2.448927e+01
2.141240e+02	-2.454101e+01
2.153608e+02	-2.459086e+01
2.166047e+02	-2.464054e+01
2.178558e+02	-2.469356e+01
2.191141e+02	-2.473932e+01
2.203797e+02	-2.479076e+01
2.216526e+02	-2.484203e+01
2.229329e+02	-2.489054e+01
2.242205e+02	-2.494195e+01
2.255156e+02	-2.498992e+01
2.268182e+02	-2.503966e+01
2.281283e+02	-2.509086e+01
2.294459e+02	-2.513849e+01
2.307712e+02	-2.518925e+01
2.321041e+02	-2.523673e+01
2.334447e+02	-2.529072e+01
2.347931e+02	-2.534019e+01
2.361493e+02	-2.538993e+01
2.375133e+02	-2.543701e+01
2.388851e+02	-2.548842e+01
2.402649e+02	-2.553828e+01
2.416527e+02	-2.558920e+01
2.430484e+02	-2.563615e+01
2.444523e+02	-2.568619e+01
2.458642e+02	-2.573864e+01
2.472843e+02	-2.578874e+01
2.487126e+02	-2.583791e+01
2.501492e+02	-2.588905e+01
2.515940e+02	-2.593829e+01
2.530472e+02	-2.598881e+01
2.545088e+02	-2.603945e+01
2.559789e+02	-2.608882e+01
2.574574e+02	-2.613706e+01
2.589444e+02	-2.618950e+01
2.604401e+02	-2.623885e+01
2.619444e+02	-2.628487e+01
2.634574e+02	-2.633593e+01
2.649791e+02	-2.638794e+01
2.665096e+02	-2.643472e+01
2.680489e+02	-2.648918e+01
2.695972e+02	-2.653672e+01
2.711544e+02	-2.658940e+01
2.727205e+02	-2.663368e+01
2.742958e+02	-2.668900e+01
2.758801e+02	-2.673877e+01
2.774736e+02	-2.679054e+01
2.790762e+02	-2.683858e+01
2.806882e+02	-2.688726e+01
2.823094e+02	-2.693756e+01
2.839400e+02	-2.698749e+01
2.855800e+02	-2.704011e+01
2.872295e+02	-2.708863e+01
2.888886e+02	-2.713893e+01
2.905572e+02	-2.719114e+01
2.922354e+02	-2.723609e+01
2.939234e+02	-2.728996e+01
2.956211e+02	-2.734048e+01
2.973286e+02	-2.738809e+01
2.990459e+02	-2.743955e+01
3.007732e+02	-2.749031e+01
3.025104e+02	-2.753565e+01
3.042577e+02	-2.758617e+01
3.060151e+02	-2.763566e+01
3.077826e+02	-2.768619e+01
3.095604e+02	-2.773512e+01
3.113484e+02	-2.778863e+01
3.131467e+02	-2.783489e+01
3.149554e+02	-2.788568e+01
3.167746e+02	-2.793886e+01
3.186043e+02	-2.798660e+01
3.204445e+02	-2.803870e+01
3.222954e+02	-2.808851e+01
3.241570e+02	-2.813885e+01
3.260293e+02	-2.818858e+01
3.279124e+02	-2.823604e+01
3.298064e+02	-2.828641e+01
3.317114e+02	-2.833398e+01
3.336273e+02	-2.839008e+01
3.355544e+02	-2.844037e+01
3.374925e+02	-2.849119e+01
3.394418e+02	-2.853294e+01
3.414024e+02	-2.859217e+01
3.433744e+02	-2.863813e+01
3.453577e+02	-2.869088e+01
3.473525e+02	-2.873645e+01
3.493588e+02	-2.878920e+01
3.513766e+02	-2.883785e+01
3.534062e+02	-2.889182e+01
3.554474e+02	-2.893802e+01
3.575005e+02	-2.898915e+01
3.595654e+02	-2.904164e+01
3.616422e+02	-2.908958e+01
3.637311e+02	-2.913728e+01
3.658320e+02	-2.919224e+01
3.679450e+02	-2.924008e+01
3.700702e+02	-2.928852e+01
3.722077e+02	-2.933937e+01
3.743576e+02	-2.939104e+01
3.765199e+02	-2.943621e+01
3.786946e+02	-2.948760e+01
3.808820e+02	-2.953905e+01
3.830819e+02	-2.958783e+01
3.852946e+02	-2.964541e+01
3.875200e+02	-2.968759e+01
3.897583e+02	-2.974047e+01
3.920096e+02	-2.978732e+01
3.942738e+02	-2.983643e+01
3.965511e+02	-2.988685e+01
3.988416e+02	-2.994164e+01
4.011452e+02	-2.999358e+01
4.034622e+02	-3.004035e+01
4.057926e+02	-3.009142e+01
4.081365e+02	-3.014361e+01
4.104938e+02	-3.019192e+01
4.128648e+02	-3.024245e+01
4.152495e+02	-3.028971e+01
4.176480e+02	-3.034176e+01
4.200603e+02	-3.039186e+01
4.224866e+02	-3.044413e+01
4.249268e+02	-3.049167e+01
4.273812e+02	-3.054358e+01
4.298497e+02	-3.059830e+01
4.323325e+02	-3.063792e+01
4.348297e+02	-3.069332e+01
4.373412e+02	-3.074265e+01
4.398673e+02	-3.079175e+01
4.424079e+02	-3.084454e+01
4.449633e+02	-3.089329e+01
4.475334e+02	-3.094577e+01
4.501183e+02	-3.099265e+01
4.527182e+02	-3.104328e+01
4.553330e+02	-3.109326e+01
4.579630e+02	-3.114652e+01
4.606082e+02	-3.119601e+01
4.632687e+02	-3.124478e+01
4.659445e+02	-3.128686e+01
4.686358e+02	-3.134082e+01
4.713426e+02	-3.139625e+01
4.740650e+02	-3.144328e+01
4.768032e+02	-3.149321e+01
4.795572e+02	-3.154213e+01
4.823271e+02	-3.159561e+01
4.851130e+02	-3.164595e+01
4.879150e+02	-3.169926e+01
4.907332e+02	-3.173959e+01
4.935676e+02	-3.179432e+01
4.964185e+02	-3.183761e+01
4.992858e+02	-3.189658e+01
5.021696e+02	-3.195083e+01
5.050701e+02	-3.198894e+01
5.079874e+02	-3.205082e+01
5.109215e+02	-3.209110e+01
5.138726e+02	-3.215023e+01
5.168407e+02	-3.219404e+01
5.198259e+02	-3.225214e+01
5.228284e+02	-3.229535e+01
5.258482e+02	-3.234716e+01
5.288855e+02	-3.239201e+01
5.319403e+02	-3.244195e+01
5.350128e+02	-3.250098e+01
5.381030e+02	-3.255182e+01
5.412111e+02	-3.259663e+01
5.443371e+02	-3.264921e+01
5.474812e+02	-3.269800e+01
5.506434e+02	-3.274500e+01
5.538239e+02	-3.280812e+01
5.570228e+02	-3.285812e+01
5.602401e+02	-3.289736e+01
5.634760e+02	-3.295488e+01
5.667306e+02	-3.300402e+01
5.700040e+02	-3.305680e+01
5.732964e+02	-3.310130e+01
5.766077e+02	-3.315414e+01
5.799382e+02	-3.320317e+01
5.832879e+02	-3.325296e+01
5.866569e+02	-3.329625e+01
5.900454e+02	-3.334802e+01
5.934535e+02	-3.339212e+01
5.968813e+02	-3.345633e+01
6.003288e+02	-3.350389e+01
6.037963e+02	-3.355327e+01
6.072838e+02	-3.360062e+01
6.107914e+02	-3.365937e+01
6.143194e+02	-3.370600e+01
6.178676e+02	-3.375327e+01
6.214364e+02	-3.380426e+01
6.250258e+02	-3.384919e+01
6.286359e+02	-3.390713e+01
6.322669e+02	-3.394906e+01
6.359189e+02	-3.400335e+01
6.395919e+02	-3.404691e+01
6.432862e+02	-3.409883e+01
6.470017e+02	-3.415744e+01
6.507388e+02	-3.420782e+01
6.544974e+02	-3.426444e+01
6.582778e+02	-3.431746e+01
6.620800e+02	-3.436568e+01
6.659041e+02	-3.440696e+01
6.697504e+02	-3.445222e+01
6.736188e+02	-3.450624e+01
6.775096e+02	-3.456097e+01
6.814229e+02	-3.460259e+01
6.853587e+02	-3.465914e+01
6.893173e+02	-3.470867e+01
6.932988e+02	-3.475781e+01
6.973033e+02	-3.481099e+01
7.013309e+02	-3.485766e+01
