Frequency(Hz)	Magnitude(dB)
1.000000e+01	-2.104377e+00
1.005776e+01	-2.123687e+00
1.011585e+01	-2.142991e+00
1.017428e+01	-2.162518e+00
1.023305e+01	-2.182418e+00
1.029215e+01	-2.202081e+00
1.035160e+01	-2.222046e+00
1.041139e+01	-2.242202e+00
1.047153e+01	-2.262588e+00
1.053201e+01	-2.282865e+00
1.059284e+01	-2.303384e+00
1.065403e+01	-2.324141e+00
1.071556e+01	-2.344877e+00
1.077746e+01	-2.365725e+00
1.083971e+01	-2.386909e+00
1.090232e+01	-2.408027e+00
1.096529e+01	-2.429407e+00
1.102862e+01	-2.450957e+00
1.109232e+01	-2.472677e+00
1.115639e+01	-2.494366e+00
1.122083e+01	-2.516342e+00
1.128564e+01	-2.538472e+00
1.135083e+01	-2.560548e+00
1.141639e+01	-2.582974e+00
1.148233e+01	-2.605532e+00
1.154865e+01	-2.628062e+00
1.161536e+01	-2.651025e+00
1.168245e+01	-2.673697e+00
1.174992e+01	-2.696843e+00
1.181779e+01	-2.720214e+00
1.188605e+01	-2.743718e+00
1.195470e+01	-2.767096e+00
1.202375e+01	-2.790650e+00
1.209320e+01	-2.814546e+00
1.216305e+01	-2.838133e+00
1.223330e+01	-2.862249e+00
1.230396e+01	-2.886454e+00
1.237503e+01	-2.910795e+00
1.244651e+01	-2.935535e+00
1.251840e+01	-2.960185e+00
1.259070e+01	-2.985085e+00
1.266343e+01	-3.009929e+00
1.273657e+01	-3.034919e+00
1.281014e+01	-3.060144e+00
1.288413e+01	-3.085722e+00
1.295855e+01	-3.111044e+00
1.303339e+01	-3.136710e+00
1.310867e+01	-3.162308e+00
1.318439e+01	-3.188503e+00
1.326054e+01	-3.214675e+00
1.333713e+01	-3.240694e+00
1.341417e+01	-3.267112e+00
1.349165e+01	-3.293774e+00
1.356958e+01	-3.320325e+00
1.364795e+01	-3.347162e+00
1.372678e+01	-3.374130e+00
1.380607e+01	-3.401312e+00
1.388581e+01	-3.428452e+00
1.396602e+01	-3.455782e+00
1.404668e+01	-3.483275e+00
1.412782e+01	-3.511123e+00
1.420942e+01	-3.538879e+00
1.429149e+01	-3.566549e+00
1.437404e+01	-3.594811e+00
1.445706e+01	-3.623057e+00
1.454057e+01	-3.651433e+00
1.462455e+01	-3.680035e+00
1.470902e+01	-3.708601e+00
1.479398e+01	-3.737300e+00
1.487943e+01	-3.766319e+00
1.496537e+01	-3.795761e+00
1.505181e+01	-3.824595e+00
1.513875e+01	-3.853976e+00
1.522619e+01	-3.883508e+00
1.531414e+01	-3.913157e+00
1.540259e+01	-3.942981e+00
1.549156e+01	-3.972923e+00
1.558103e+01	-4.003075e+00
1.567103e+01	-4.033462e+00
1.576155e+01	-4.063526e+00
1.585258e+01	-4.093894e+00
1.594415e+01	-4.124598e+00
1.603624e+01	-4.155388e+00
1.612886e+01	-4.186387e+00
1.622202e+01	-4.217109e+00
1.631572e+01	-4.248246e+00
1.640996e+01	-4.279525e+00
1.650474e+01	-4.311075e+00
1.660008e+01	-4.342555e+00
1.669596e+01	-4.374261e+00
1.679239e+01	-4.406278e+00
1.688938e+01	-4.437888e+00
1.698694e+01	-4.469818e+00
1.708505e+01	-4.502187e+00
1.718373e+01	-4.534566e+00
1.728299e+01	-4.567255e+00
1.738281e+01	-4.599782e+00
1.748322e+01	-4.632447e+00
1.758420e+01	-4.665271e+00
1.768576e+01	-4.698217e+00
1.778792e+01	-4.731228e+00
1.789066e+01	-4.764865e+00
1.799399e+01	-4.798083e+00
1.809793e+01	-4.831782e+00
1.820246e+01	-4.865150e+00
1.830760e+01	-4.899160e+00
1.841334e+01	-4.933037e+00
1.851969e+01	-4.966890e+00
1.862666e+01	-5.000786e+00
1.873425e+01	-5.035383e+00
1.884246e+01	-5.069887e+00
1.895129e+01	-5.104397e+00
1.906075e+01	-5.138861e+00
1.917085e+01	-5.173639e+00
1.928158e+01	-5.208730e+00
1.939295e+01	-5.243730e+00
1.950496e+01	-5.278832e+00
1.961762e+01	-5.314284e+00
1.973093e+01	-5.349473e+00
1.984490e+01	-5.385065e+00
1.995952e+01	-5.420470e+00
2.007480e+01	-5.456127e+00
2.019076e+01	-5.492113e+00
2.030738e+01	-5.527838e+00
2.042467e+01	-5.563992e+00
2.054264e+01	-5.600169e+00
2.066130e+01	-5.636454e+00
2.078064e+01	-5.672940e+00
2.090066e+01	-5.709365e+00
2.102139e+01	-5.746018e+00
2.114280e+01	-5.782709e+00
2.126492e+01	-5.819808e+00
2.138775e+01	-5.856615e+00
2.151128e+01	-5.893759e+00
2.163553e+01	-5.931229e+00
2.176050e+01	-5.968254e+00
2.188619e+01	-6.005306e+00
2.201260e+01	-6.043211e+00
2.213974e+01	-6.081367e+00
2.226762e+01	-6.118747e+00
2.239624e+01	-6.156574e+00
2.252560e+01	-6.194560e+00
2.265571e+01	-6.232765e+00
2.278656e+01	-6.270814e+00
2.291818e+01	-6.309009e+00
2.305055e+01	-6.347388e+00
2.318369e+01	-6.385904e+00
2.331760e+01	-6.424405e+00
2.345228e+01	-6.463434e+00
2.358774e+01	-6.502004e+00
2.372398e+01	-6.540808e+00
2.386101e+01	-6.579857e+00
2.399883e+01	-6.618820e+00
2.413745e+01	-6.658155e+00
2.427686e+01	-6.697434e+00
2.441709e+01	-6.736803e+00
2.455812e+01	-6.775963e+00
2.469997e+01	-6.815804e+00
2.484263e+01	-6.855185e+00
2.498612e+01	-6.895133e+00
2.513044e+01	-6.935261e+00
2.527559e+01	-6.974998e+00
2.542158e+01	-7.015211e+00
2.556842e+01	-7.055221e+00
2.571610e+01	-7.095554e+00
2.586463e+01	-7.135345e+00
2.601403e+01	-7.176282e+00
2.616428e+01	-7.216519e+00
2.631541e+01	-7.257275e+00
2.646740e+01	-7.297559e+00
2.662028e+01	-7.338275e+00
2.677404e+01	-7.379344e+00
2.692868e+01	-7.420380e+00
2.708422e+01	-7.461318e+00
2.724066e+01	-7.502171e+00
2.739800e+01	-7.543356e+00
2.755625e+01	-7.584486e+00
2.771541e+01	-7.626321e+00
2.787550e+01	-7.667719e+00
2.803650e+01	-7.708521e+00
2.819844e+01	-7.750851e+00
2.836131e+01	-7.792270e+00
2.852513e+01	-7.833647e+00
2.868989e+01	-7.875684e+00
2.885560e+01	-7.917683e+00
2.902227e+01	-7.959155e+00
2.918990e+01	-8.001675e+00
2.935850e+01	-8.044098e+00
2.952807e+01	-8.086005e+00
2.969863e+01	-8.128426e+00
2.987016e+01	-8.170669e+00
3.004269e+01	-8.213169e+00
3.021622e+01	-8.255693e+00
3.039075e+01	-8.298659e+00
3.056628e+01	-8.341382e+00
3.074283e+01	-8.383428e+00
3.092040e+01	-8.426469e+00
3.109900e+01	-8.469192e+00
3.127862e+01	-8.512292e+00
3.145929e+01	-8.555301e+00
3.164099e+01	-8.598504e+00
3.182375e+01	-8.641487e+00
3.200756e+01	-8.684479e+00
3.219244e+01	-8.728195e+00
3.237838e+01	-8.771364e+00
3.256540e+01	-8.814637e+00
3.275349e+01	-8.858081e+00
3.294268e+01	-8.902230e+00
3.313295e+01	-8.945170e+00
3.332433e+01	-8.989005e+00
3.351681e+01	-9.033428e+00
3.371040e+01	-9.077029e+00
3.390511e+01	-9.120598e+00
3.410094e+01	-9.164952e+00
3.429791e+01	-9.208213e+00
3.449601e+01	-9.252393e+00
3.469526e+01	-9.296941e+00
3.489566e+01	-9.341114e+00
3.509721e+01	-9.385361e+00
3.529993e+01	-9.429872e+00
3.550382e+01	-9.473909e+00
3.570889e+01	-9.518273e+00
3.591515e+01	-9.562810e+00
3.612259e+01	-9.607511e+00
3.633123e+01	-9.651379e+00
3.654108e+01	-9.696499e+00
3.675214e+01	-9.740757e+00
3.696442e+01	-9.785980e+00
3.717792e+01	-9.830500e+00
3.739266e+01	-9.875411e+00
3.760864e+01	-9.920222e+00
3.782587e+01	-9.965680e+00
3.804435e+01	-1.001017e+01
3.826409e+01	-1.005510e+01
3.848510e+01	-1.010031e+01
3.870739e+01	-1.014566e+01
3.893096e+01	-1.019086e+01
3.915583e+01	-1.023637e+01
3.938199e+01	-1.028120e+01
3.960946e+01	-1.032629e+01
3.983824e+01	-1.037195e+01
4.006834e+01	-1.041816e+01
4.029978e+01	-1.046299e+01
4.053255e+01	-1.050916e+01
4.076666e+01	-1.055406e+01
4.100213e+01	-1.059978e+01
4.123896e+01	-1.064519e+01
4.147715e+01	-1.069177e+01
4.171672e+01	-1.073736e+01
4.195767e+01	-1.078313e+01
4.220002e+01	-1.082880e+01
4.244377e+01	-1.087483e+01
4.268892e+01	-1.092083e+01
4.293549e+01	-1.096720e+01
4.318348e+01	-1.101295e+01
4.343291e+01	-1.105908e+01
4.368377e+01	-1.110474e+01
4.393609e+01	-1.115119e+01
4.418986e+01	-1.119706e+01
4.444510e+01	-1.124384e+01
4.470182e+01	-1.129023e+01
4.496001e+01	-1.133621e+01
4.521970e+01	-1.138257e+01
4.548089e+01	-1.142870e+01
4.574358e+01	-1.147574e+01
4.600779e+01	-1.152179e+01
4.627353e+01	-1.156811e+01
4.654081e+01	-1.161537e+01
4.680963e+01	-1.166187e+01
4.708000e+01	-1.170833e+01
4.735193e+01	-1.175524e+01
4.762543e+01	-1.180156e+01
4.790051e+01	-1.184838e+01
4.817719e+01	-1.189537e+01
4.845545e+01	-1.194203e+01
4.873533e+01	-1.198882e+01
4.901682e+01	-1.203589e+01
4.929994e+01	-1.208276e+01
4.958470e+01	-1.212998e+01
4.987110e+01	-1.217654e+01
5.015915e+01	-1.222354e+01
5.044887e+01	-1.227029e+01
5.074026e+01	-1.231705e+01
5.103333e+01	-1.236484e+01
5.132810e+01	-1.241219e+01
5.162457e+01	-1.245892e+01
5.192275e+01	-1.250659e+01
5.222265e+01	-1.255370e+01
5.252429e+01	-1.260108e+01
5.282767e+01	-1.264776e+01
5.313280e+01	-1.269536e+01
5.343969e+01	-1.274237e+01
5.374836e+01	-1.279015e+01
5.405880e+01	-1.283848e+01
5.437105e+01	-1.288549e+01
5.468509e+01	-1.293233e+01
5.500095e+01	-1.297949e+01
5.531863e+01	-1.302724e+01
5.563815e+01	-1.307474e+01
5.595951e+01	-1.312337e+01
5.628273e+01	-1.317003e+01
5.660782e+01	-1.321771e+01
5.693479e+01	-1.326513e+01
5.726364e+01	-1.331302e+01
5.759439e+01	-1.335998e+01
5.792705e+01	-1.340924e+01
5.826164e+01	-1.345647e+01
5.859815e+01	-1.350346e+01
5.893662e+01	-1.355184e+01
5.927703e+01	-1.359987e+01
5.961941e+01	-1.364763e+01
5.996377e+01	-1.369583e+01
6.031012e+01	-1.374348e+01
6.065847e+01	-1.379060e+01
6.100883e+01	-1.383978e+01
6.136121e+01	-1.388723e+01
6.171563e+01	-1.393550e+01
6.207210e+01	-1.398300e+01
6.243063e+01	-1.403149e+01
6.279122e+01	-1.407958e+01
6.315390e+01	-1.412769e+01
6.351868e+01	-1.417557e+01
6.388556e+01	-1.422430e+01
6.425456e+01	-1.427285e+01
6.462569e+01	-1.432053e+01
6.499897e+01	-1.436795e+01
6.537440e+01	-1.441580e+01
6.575200e+01	-1.446480e+01
6.613178e+01	-1.451372e+01
6.651375e+01	-1.456093e+01
6.689793e+01	-1.460900e+01
6.728433e+01	-1.465717e+01
6.767297e+01	-1.470702e+01
6.806384e+01	-1.475516e+01
6.845698e+01	-1.480335e+01
6.885238e+01	-1.485121e+01
6.925007e+01	-1.489998e+01
6.965005e+01	-1.494817e+01
7.005235e+01	-1.499531e+01
7.045697e+01	-1.504418e+01
7.086393e+01	-1.509292e+01
7.127323e+01	-1.514242e+01
7.168490e+01	-1.519043e+01
7.209895e+01	-1.523812e+01
7.251539e+01	-1.528763e+01
7.293424e+01	-1.533570e+01
7.335551e+01	-1.538480e+01
7.377920e+01	-1.543360e+01
7.420535e+01	-1.548116e+01
7.463396e+01	-1.553116e+01
7.506504e+01	-1.557937e+01
7.549861e+01	-1.562831e+01
7.593469e+01	-1.567637e+01
7.637328e+01	-1.572516e+01
7.681441e+01	-1.577407e+01
7.725809e+01	-1.582317e+01
7.770433e+01	-1.587210e+01
7.815315e+01	-1.592073e+01
7.860456e+01	-1.596956e+01
7.905857e+01	-1.601789e+01
7.951521e+01	-1.606655e+01
7.997449e+01	-1.611514e+01
8.043642e+01	-1.616506e+01
8.090102e+01	-1.621166e+01
8.136830e+01	-1.626177e+01
8.183828e+01	-1.631008e+01
8.231097e+01	-1.635833e+01
8.278640e+01	-1.640775e+01
8.326457e+01	-1.645722e+01
8.374550e+01	-1.650549e+01
8.422921e+01	-1.655411e+01
8.471572e+01	-1.660418e+01
8.520503e+01	-1.665296e+01
8.569717e+01	-1.670102e+01
8.619215e+01	-1.675080e+01
8.669000e+01	-1.679876e+01
8.719071e+01	-1.684906e+01
8.769432e+01	-1.689773e+01
8.820084e+01	-1.694686e+01
8.871029e+01	-1.699522e+01
8.922267e+01	-1.704456e+01
8.973802e+01	-1.709435e+01
9.025634e+01	-1.714287e+01
9.077766e+01	-1.719120e+01
9.130199e+01	-1.724031e+01
9.182935e+01	-1.728917e+01
9.235975e+01	-1.733848e+01
9.289321e+01	-1.738764e+01
9.342976e+01	-1.743701e+01
9.396941e+01	-1.748618e+01
9.451217e+01	-1.753668e+01
9.505807e+01	-1.758446e+01
9.560712e+01	-1.763476e+01
9.615934e+01	-1.768440e+01
9.671476e+01	-1.773299e+01
9.727338e+01	-1.778081e+01
9.783522e+01	-1.783250e+01
9.840032e+01	-1.788033e+01
9.896867e+01	-1.792932e+01
9.954031e+01	-1.797868e+01
1.001153e+02	-1.802661e+01
1.006935e+02	-1.807684e+01
1.012751e+02	-1.812626e+01
1.018601e+02	-1.817498e+01
1.024484e+02	-1.822460e+01
1.030402e+02	-1.827218e+01
1.036353e+02	-1.832430e+01
1.042339e+02	-1.837206e+01
1.048360e+02	-1.842160e+01
1.054415e+02	-1.847152e+01
1.060505e+02	-1.852088e+01
1.066631e+02	-1.857002e+01
1.072791e+02	-1.862039e+01
1.078988e+02	-1.866888e+01
1.085220e+02	-1.871838e+01
1.091488e+02	-1.876640e+01
1.097793e+02	-1.881741e+01
1.104133e+02	-1.886657e+01
1.110511e+02	-1.891547e+01
1.116925e+02	-1.896549e+01
1.123376e+02	-1.901461e+01
1.129865e+02	-1.906364e+01
1.136391e+02	-1.911381e+01
1.142955e+02	-1.916282e+01
1.149556e+02	-1.921122e+01
1.156196e+02	-1.926024e+01
1.162874e+02	-1.931126e+01
1.169591e+02	-1.936056e+01
1.176347e+02	-1.940801e+01
1.183141e+02	-1.945858e+01
1.189975e+02	-1.950877e+01
1.196848e+02	-1.955834e+01
1.203761e+02	-1.960766e+01
1.210714e+02	-1.965524e+01
1.217707e+02	-1.970636e+01
1.224740e+02	-1.975567e+01
1.231814e+02	-1.980414e+01
1.238929e+02	-1.985587e+01
1.246085e+02	-1.990460e+01
1.253283e+02	-1.995424e+01
1.260522e+02	-2.000387e+01
1.267802e+02	-2.005276e+01
1.275125e+02	-2.010308e+01
1.282490e+02	-2.015365e+01
1.289898e+02	-2.020307e+01
1.297348e+02	-2.025135e+01
1.304842e+02	-2.030303e+01
1.312378e+02	-2.035014e+01
1.319959e+02	-2.039972e+01
1.327583e+02	-2.045061e+01
1.335251e+02	-2.049980e+01
1.342963e+02	-2.054888e+01
1.350720e+02	-2.059971e+01
1.358522e+02	-2.064909e+01
1.366368e+02	-2.069850e+01
1.374260e+02	-2.074878e+01
1.382198e+02	-2.079662e+01
1.390182e+02	-2.084596e+01
1.398211e+02	-2.089681e+01
1.406287e+02	-2.094800e+01
1.414410e+02	-2.099559e+01
1.422579e+02	-2.104442e+01
1.430796e+02	-2.109505e+01
1.439060e+02	-2.114226e+01
1.447372e+02	-2.119552e+01
1.455732e+02	-2.124412e+01
1.464141e+02	-2.129430e+01
1.472597e+02	-2.134299e+01
1.481103e+02	-2.139275e+01
1.489658e+02	-2.144264e+01
1.498262e+02	-2.149223e+01
1.506916e+02	-2.154348e+01
1.515620e+02	-2.159206e+01
1.524374e+02	-2.164149e+01
1.533179e+02	-2.169092e+01
1.542034e+02	-2.174118e+01
1.550941e+02	-2.179125e+01
1.559899e+02	-2.184016e+01
1.568909e+02	-2.189005e+01
1.577971e+02	-2.194045e+01
1.587085e+02	-2.198811e+01
1.596252e+02	-2.203944e+01
1.605472e+02	-2.208862e+01
1.614745e+02	-2.213917e+01
1.624072e+02	-2.218763e+01
1.633453e+02	-2.223780e+01
1.642887e+02	-2.228863e+01
1.652377e+02	-2.233807e+01
1.661921e+02	-2.238847e+01
1.671520e+02	-2.243786e+01
1.681175e+02	-2.248687e+01
1.690885e+02	-2.253424e+01
1.700651e+02	-2.258608e+01
1.710474e+02	-2.263751e+01
1.720354e+02	-2.268463e+01
1.730291e+02	-2.273582e+01
1.740285e+02	-2.278293e+01
1.750337e+02	-2.283493e+01
1.760446e+02	-2.288382e+01
1.770615e+02	-2.293465e+01
1.780842e+02	-2.298520e+01
1.791128e+02	-2.303413e+01
1.801473e+02	-2.308408e+01
1.811878e+02	-2.313314e+01
1.822344e+02	-2.318465e+01
1.832870e+02	-2.323212e+01
1.843456e+02	-2.328320e+01
1.854104e+02	-2.333319e+01
1.864813e+02	-2.338417e+01
1.875584e+02	-2.343028e+01
1.886418e+02	-2.348092e+01
1.897313e+02	-2.353249e+01
1.908272e+02	-2.358250e+01
1.919294e+02	-2.363332e+01
1.930380e+02	-2.368175e+01
1.941530e+02	-2.373131e+01
1.952744e+02	-2.378207e+01
1.964023e+02	-2.383290e+01
1.975367e+02	-2.388392e+01
1.986777e+02	-2.392887e+01
1.998252e+02	-2.398097e+01
2.009794e+02	-2.403142e+01
2.021403e+02	-2.408107e+01
2.033078e+02	-2.413245e+01
2.044821e+02	-2.417880e+01
2.056632e+02	-2.422860e+01
2.068511e+02	-2.428070e+01
2.080459e+02	-2.433280e+01
2.092475e+02	-2.437886e+01
2.104561e+02	-2.442829e+01
2.116717e+02	-2.447777e+01
2.128943e+02	-2.452725e+01
2.141240e+02	-2.458014e+01
2.153608e+02	-2.462769e+01
2.166047e+02	-2.467878e+01
2.178558e+02	-2.472815e+01
2.191141e+02	-2.477774e+01
2.203797e+02	-2.482633e+01
2.216526e+02	-2.487880e+01
2.229329e+02	-2.492867e+01
2.242205e+02	-2.497550e+01
2.255156e+02	-2.502847e+01
2.268182e+02	-2.507802e+01
2.281283e+02	-2.512999e+01
2.294459e+02	-2.517594e+01
2.307712e+02	-2.522621e+01
2.321041e+02	-2.528028e+01
2.334447e+02	-2.532943e+01
2.347931e+02	-2.537648e+01
2.361493e+02	-2.542749e+01
2.375133e+02	-2.547742e+01
2.388851e+02	-2.552918e+01
2.402649e+02	-2.557783e+01
2.416527e+02	-2.562742e+01
2.430484e+02	-2.567927e+01
2.444523e+02	-2.572733e+01
2.458642e+02	-2.577704e+01
2.472843e+02	-2.582722e+01
2.487126e+02	-2.587504e+01
2.501492e+02	-2.592913e+01
2.515940e+02	-2.597561e+01
2.530472e+02	-2.602614e+01
2.545088e+02	-2.607582e+01
2.559789e+02	-2.613011e+01
2.574574e+02	-2.617779e+01
2.589444e+02	-2.622720e+01
2.604401e+02	-2.627420e+01
2.619444e+02	-2.632753e+01
2.634574e+02	-2.637723e+01
2.649791e+02	-2.642806e+01
2.665096e+02	-2.647980e+01
2.680489e+02	-2.652657e+01
2.695972e+02	-2.657715e+01
2.711544e+02	-2.662522e+01
2.727205e+02	-2.667683e+01
2.742958e+02	-2.672601e+01
2.758801e+02	-2.677773e+01
2.774736e+02	-2.682670e+01
2.790762e+02	-2.687600e+01
2.806882e+02	-2.692839e+01
2.823094e+02	-2.697545e+01
2.839400e+02	-2.702715e+01
2.855800e+02	-2.707732e+01
2.872295e+02	-2.712681e+01
2.888886e+02	-2.717659e+01
2.905572e+02	-2.722538e+01
2.922354e+02	-2.727676e+01
2.939234e+02	-2.732302e+01
2.956211e+02	-2.737734e+01
2.973286e+02	-2.742568e+01
2.990459e+02	-2.747785e+01
3.007732e+02	-2.752600e+01
3.025104e+02	-2.757631e+01
3.042577e+02	-2.762452e+01
3.060151e+02	-2.767769e+01
3.077826e+02	-2.772781e+01
3.095604e+02	-2.777471e+01
3.113484e+02	-2.782346e+01
3.131467e+02	-2.788182e+01
3.149554e+02	-2.792401e+01
3.167746e+02	-2.797582e+01
3.186043e+02	-2.802561e+01
3.204445e+02	-2.807605e+01
3.222954e+02	-2.812989e+01
3.241570e+02	-2.817869e+01
3.260293e+02	-2.822508e+01
3.279124e+02	-2.827628e+01
3.298064e+02	-2.832474e+01
3.317114e+02	-2.837827e+01
3.336273e+02	-2.842799e+01
3.355544e+02	-2.847760e+01
3.374925e+02	-2.852705e+01
3.394418e+02	-2.857719e+01
3.414024e+02	-2.862726e+01
3.433744e+02	-2.868162e+01
3.453577e+02	-2.872412e+01
3.473525e+02	-2.877413e+01
3.493588e+02	-2.882204e+01
3.513766e+02	-2.887486e+01
3.534062e+02	-2.892157e+01
3.554474e+02	-2.897907e+01
3.575005e+02	-2.902764e+01
3.595654e+02	-2.907919e+01
3.616422e+02	-2.912592e+01
3.637311e+02	-2.917617e+01
3.658320e+02	-2.922770e+01
3.679450e+02	-2.928111e+01
3.700702e+02	-2.932921e+01
3.722077e+02	-2.937968e+01
3.743576e+02	-2.942876e+01
3.765199e+02	-2.947701e+01
3.786946e+02	-2.953093e+01
3.808820e+02	-2.957824e+01
3.830819e+02	-2.962971e+01
3.852946e+02	-2.968002e+01
3.875200e+02	-2.972724e+01
3.897583e+02	-2.977220e+01
3.920096e+02	-2.983439e+01
3.942738e+02	-2.987714e+01
3.965511e+02	-2.992676e+01
3.988416e+02	-2.997080e+01
4.011452e+02	-3.002515e+01
4.034622e+02	-3.008309e+01
4.057926e+02	-3.012768e+01
4.081365e+02	-3.017895e+01
4.104938e+02	-3.023049e+01
4.128648e+02	-3.027848e+01
4.152495e+02	-3.032420e+01
4.176480e+02	-3.037706e+01
4.200603e+02	-3.042953e+01
4.224866e+02	-3.047577e+01
4.249268e+02	-3.052764e+01
4.273812e+02	-3.057837e+01
4.298497e+02	-3.063085e+01
4.323325e+02	-3.068245e+01
4.348297e+02	-3.073111e+01
4.373412e+02	-3.078034e+01
4.398673e+02	-3.082709e+01
4.424079e+02	-3.088144e+01
4.449633e+02	-3.093358e+01
4.475334e+02	-3.098348e+01
4.501183e+02	-3.103035e+01
4.527182e+02	-3.108105e+01
4.553330e+02	-3.112997e+01
4.579630e+02	-3.117737e+01
4.606082e+02	-3.123027e+01
4.632687e+02	-3.128329e+01
4.659445e+02	-3.132760e+01
4.686358e+02	-3.138739e+01
4.713426e+02	-3.143663e+01
4.740650e+02	-3.148771e+01
4.768032e+02	-3.153082e+01
4.795572e+02	-3.158100e+01
4.823271e+02	-3.163112e+01
4.851130e+02	-3.168246e+01
4.879150e+02	-3.172802e+01
4.907332e+02	-3.178226e+01
4.935676e+02	-3.183635e+01
4.964185e+02	-3.188114e+01
4.992858e+02	-3.193038e+01
5.021696e+02	-3.198355e+01
5.050701e+02	-3.202831e+01
5.079874e+02	-3.209136e+01
5.109215e+02	-3.213754e+01
5.138726e+02	-3.218629e+01
5.168407e+02	-3.223878e+01
5.198259e+02	-3.227955e+01
5.228284e+02	-3.233371e+01
5.258482e+02	-3.238727e+01
5.288855e+02	-3.244045e+01
5.319403e+02	-3.248625e+01
5.350128e+02	-3.253687e+01
5.381030e+02	-3.258459e+01
5.412111e+02	-3.263843e+01
5.443371e+02	-3.268270e+01
5.474812e+02	-3.273722e+01
5.506434e+02	-3.279274e+01
5.538239e+02	-3.283873e+01
5.570228e+02	-3.288720e+01
5.602401e+02	-3.293874e+01
5.634760e+02	-3.298849e+01
5.667306e+02	-3.303935e+01
5.700040e+02	-3.309239e+01
5.732964e+02	-3.313662e+01
5.766077e+02	-3.319113e+01
5.799382e+02	-3.324703e+01
5.832879e+02	-3.329299e+01
5.866569e+02	-3.333576e+01
5.900454e+02	-3.339321e+01
5.934535e+02	-3.343653e+01
5.968813e+02	-3.348430e+01
6.003288e+02	-3.354754e+01
6.037963e+02	-3.359313e+01
6.072838e+02	-3.364158e+01
6.107914e+02	-3.369005e+01
6.143194e+02	-3.374232e+01
6.178676e+02	-3.378786e+01
6.214364e+02	-3.383773e+01
6.250258e+02	-3.388901e+01
6.286359e+02	-3.393405e+01
6.322669e+02	-3.399607e+01
6.359189e+02	-3.403225e+01
6.395919e+02	-3.408780e+01
6.432862e+02	-3.413860e+01
6.470017e+02	-3.419088e+01
6.507388e+02	-3.424549e+01
6.544974e+02	-3.428695e+01
6.582778e+02	-3.434510e+01
6.620800e+02	-3.439245e+01
6.659041e+02	-3.444914e+01
6.697504e+02	-3.450022e+01
6.736188e+02	-3.455537e+01
6.775096e+02	-3.460232e+01
6.814229e+02	-3.464420e+01
6.853587e+02	-3.470592e+01
6.893173e+02	-3.475046e+01
6.932988e+02	-3.479620e+01
6.973033e+02	-3.484978e+01
7.013309e+02	-3.489765e+01
