Frequency(Hz)	Magnitude(dB)
1.000000e+01	-2.159186e+00
1.005776e+01	-2.178950e+00
1.011585e+01	-2.198947e+00
1.017428e+01	-2.218659e+00
1.023305e+01	-2.238785e+00
1.029215e+01	-2.259050e+00
1.035160e+01	-2.279309e+00
1.041139e+01	-2.300091e+00
1.047153e+01	-2.320328e+00
1.053201e+01	-2.341221e+00
1.059284e+01	-2.362592e+00
1.065403e+01	-2.383219e+00
1.071556e+01	-2.404417e+00
1.077746e+01	-2.425919e+00
1.083971e+01	-2.447235e+00
1.090232e+01	-2.468890e+00
1.096529e+01	-2.490798e+00
1.102862e+01	-2.512613e+00
1.109232e+01	-2.534731e+00
1.115639e+01	-2.557041e+00
1.122083e+01	-2.578902e+00
1.128564e+01	-2.601645e+00
1.135083e+01	-2.624229e+00
1.141639e+01	-2.646936e+00
1.148233e+01	-2.669928e+00
1.154865e+01	-2.693188e+00
1.161536e+01	-2.716095e+00
1.168245e+01	-2.739348e+00
1.174992e+01	-2.762790e+00
1.181779e+01	-2.786546e+00
1.188605e+01	-2.810356e+00
1.195470e+01	-2.834184e+00
1.202375e+01	-2.858104e+00
1.209320e+01	-2.882809e+00
1.216305e+01	-2.906903e+00
1.223330e+01	-2.931359e+00
1.230396e+01	-2.955915e+00
1.237503e+01	-2.980547e+00
1.244651e+01	-3.005587e+00
1.251840e+01	-3.030946e+00
1.259070e+01	-3.055743e+00
1.266343e+01	-3.081189e+00
1.273657e+01	-3.106863e+00
1.281014e+01	-3.132197e+00
1.288413e+01	-3.158079e+00
1.295855e+01	-3.183865e+00
1.303339e+01	-3.210258e+00
1.310867e+01	-3.236571e+00
1.318439e+01	-3.262518e+00
1.326054e+01	-3.289383e+00
1.333713e+01	-3.315842e+00
1.341417e+01	-3.342518e+00
1.349165e+01	-3.369433e+00
1.356958e+01	-3.396486e+00
1.364795e+01	-3.423937e+00
1.372678e+01	-3.451231e+00
1.380607e+01	-3.478722e+00
1.388581e+01	-3.506073e+00
1.396602e+01	-3.533899e+00
1.404668e+01	-3.562153e+00
1.412782e+01	-3.590075e+00
1.420942e+01	-3.618283e+00
1.429149e+01	-3.646721e+00
1.437404e+01	-3.675174e+00
1.445706e+01	-3.703711e+00
1.454057e+01	-3.732628e+00
1.462455e+01	-3.761765e+00
1.470902e+01	-3.790399e+00
1.479398e+01	-3.819691e+00
1.487943e+01	-3.848973e+00
1.496537e+01	-3.878499e+00
1.505181e+01	-3.908216e+00
1.513875e+01	-3.937705e+00
1.522619e+01	-3.967559e+00
1.531414e+01	-3.997836e+00
1.540259e+01	-4.028067e+00
1.549156e+01	-4.058209e+00
1.558103e+01	-4.088875e+00
1.567103e+01	-4.119482e+00
1.576155e+01	-4.149897e+00
1.585258e+01	-4.180854e+00
1.594415e+01	-4.211790e+00
1.603624e+01	-4.242748e+00
1.612886e+01	-4.274190e+00
1.622202e+01	-4.305744e+00
1.631572e+01	-4.337029e+00
1.640996e+01	-4.368638e+00
1.650474e+01	-4.400660e+00
1.660008e+01	-4.432443e+00
1.669596e+01	-4.464545e+00
1.679239e+01	-4.496682e+00
1.688938e+01	-4.529178e+00
1.698694e+01	-4.561729e+00
1.708505e+01	-4.594264e+00
1.718373e+01	-4.626873e+00
1.728299e+01	-4.659588e+00
1.738281e+01	-4.692836e+00
1.748322e+01	-4.725964e+00
1.758420e+01	-4.758955e+00
1.768576e+01	-4.792554e+00
1.778792e+01	-4.825992e+00
1.789066e+01	-4.859530e+00
1.799399e+01	-4.893222e+00
1.809793e+01	-4.927152e+00
1.820246e+01	-4.960874e+00
1.830760e+01	-4.995314e+00
1.841334e+01	-5.029479e+00
1.851969e+01	-5.063966e+00
1.862666e+01	-5.098472e+00
1.873425e+01	-5.133000e+00
1.884246e+01	-5.167992e+00
1.895129e+01	-5.202605e+00
1.906075e+01	-5.237802e+00
1.917085e+01	-5.272649e+00
1.928158e+01	-5.307750e+00
1.939295e+01	-5.343271e+00
1.950496e+01	-5.378900e+00
1.961762e+01	-5.414333e+00
1.973093e+01	-5.450025e+00
1.984490e+01	-5.486180e+00
1.995952e+01	-5.521640e+00
2.007480e+01	-5.557723e+00
2.019076e+01	-5.593986e+00
2.030738e+01	-5.630484e+00
2.042467e+01	-5.666880e+00
2.054264e+01	-5.703244e+00
2.066130e+01	-5.739858e+00
2.078064e+01	-5.776764e+00
2.090066e+01	-5.813687e+00
2.102139e+01	-5.850460e+00
2.114280e+01	-5.887596e+00
2.126492e+01	-5.924999e+00
2.138775e+01	-5.962163e+00
2.151128e+01	-5.999578e+00
2.163553e+01	-6.036675e+00
2.176050e+01	-6.074347e+00
2.188619e+01	-6.112345e+00
2.201260e+01	-6.150221e+00
2.213974e+01	-6.188405e+00
2.226762e+01	-6.225953e+00
2.239624e+01	-6.264516e+00
2.252560e+01	-6.302776e+00
2.265571e+01	-6.340790e+00
2.278656e+01	-6.379260e+00
2.291818e+01	-6.417950e+00
2.305055e+01	-6.456243e+00
2.318369e+01	-6.495763e+00
2.331760e+01	-6.534070e+00
2.345228e+01	-6.573238e+00
2.358774e+01	-6.612132e+00
2.372398e+01	-6.651316e+00
2.386101e+01	-6.690852e+00
2.399883e+01	-6.730015e+00
2.413745e+01	-6.769235e+00
2.427686e+01	-6.808906e+00
2.441709e+01	-6.848960e+00
2.455812e+01	-6.888395e+00
2.469997e+01	-6.928338e+00
2.484263e+01	-6.968179e+00
2.498612e+01	-7.008122e+00
2.513044e+01	-7.048365e+00
2.527559e+01	-7.088135e+00
2.542158e+01	-7.128769e+00
2.556842e+01	-7.169276e+00
2.571610e+01	-7.209241e+00
2.586463e+01	-7.250207e+00
2.601403e+01	-7.291064e+00
2.616428e+01	-7.331696e+00
2.631541e+01	-7.371976e+00
2.646740e+01	-7.413244e+00
2.662028e+01	-7.454080e+00
2.677404e+01	-7.495398e+00
2.692868e+01	-7.536737e+00
2.708422e+01	-7.577849e+00
2.724066e+01	-7.619593e+00
2.739800e+01	-7.660587e+00
2.755625e+01	-7.701830e+00
2.771541e+01	-7.743810e+00
2.787550e+01	-7.785520e+00
2.803650e+01	-7.826781e+00
2.819844e+01	-7.868662e+00
2.836131e+01	-7.910502e+00
2.852513e+01	-7.952719e+00
2.868989e+01	-7.994400e+00
2.885560e+01	-8.036696e+00
2.902227e+01	-8.078860e+00
2.918990e+01	-8.121207e+00
2.935850e+01	-8.163577e+00
2.952807e+01	-8.205823e+00
2.969863e+01	-8.248455e+00
2.987016e+01	-8.291433e+00
3.004269e+01	-8.333672e+00
3.021622e+01	-8.376298e+00
3.039075e+01	-8.419327e+00
3.056628e+01	-8.462206e+00
3.074283e+01	-8.504818e+00
3.092040e+01	-8.548389e+00
3.109900e+01	-8.590673e+00
3.127862e+01	-8.634324e+00
3.145929e+01	-8.677505e+00
3.164099e+01	-8.720604e+00
3.182375e+01	-8.764020e+00
3.200756e+01	-8.807735e+00
3.219244e+01	-8.851364e+00
3.237838e+01	-8.894926e+00
3.256540e+01	-8.938292e+00
3.275349e+01	-8.981990e+00
3.294268e+01	-9.025394e+00
3.313295e+01	-9.069552e+00
3.332433e+01	-9.112608e+00
3.351681e+01	-9.157266e+00
3.371040e+01	-9.201098e+00
3.390511e+01	-9.245455e+00
3.410094e+01	-9.289077e+00
3.429791e+01	-9.333253e+00
3.449601e+01	-9.377797e+00
3.469526e+01	-9.422271e+00
3.489566e+01	-9.466509e+00
3.509721e+01	-9.510911e+00
3.529993e+01	-9.555523e+00
3.550382e+01	-9.599276e+00
3.570889e+01	-9.644107e+00
3.591515e+01	-9.688377e+00
3.612259e+01	-9.733055e+00
3.633123e+01	-9.778183e+00
3.654108e+01	-9.823145e+00
3.675214e+01	-9.867728e+00
3.696442e+01	-9.912511e+00
3.717792e+01	-9.957635e+00
3.739266e+01	-1.000297e+01
3.760864e+01	-1.004786e+01
3.782587e+01	-1.009291e+01
3.804435e+01	-1.013815e+01
3.826409e+01	-1.018290e+01
3.848510e+01	-1.022854e+01
3.870739e+01	-1.027365e+01
3.893096e+01	-1.031908e+01
3.915583e+01	-1.036485e+01
3.938199e+01	-1.040988e+01
3.960946e+01	-1.045510e+01
3.983824e+01	-1.050106e+01
4.006834e+01	-1.054605e+01
4.029978e+01	-1.059213e+01
4.053255e+01	-1.063786e+01
4.076666e+01	-1.068370e+01
4.100213e+01	-1.072957e+01
4.123896e+01	-1.077541e+01
4.147715e+01	-1.082117e+01
4.171672e+01	-1.086723e+01
4.195767e+01	-1.091306e+01
4.220002e+01	-1.095927e+01
4.244377e+01	-1.100471e+01
4.268892e+01	-1.105094e+01
4.293549e+01	-1.109789e+01
4.318348e+01	-1.114366e+01
4.343291e+01	-1.118900e+01
4.368377e+01	-1.123589e+01
4.393609e+01	-1.128224e+01
4.418986e+01	-1.132868e+01
4.444510e+01	-1.137470e+01
4.470182e+01	-1.142150e+01
4.496001e+01	-1.146724e+01
4.521970e+01	-1.151416e+01
4.548089e+01	-1.156049e+01
4.574358e+01	-1.160745e+01
4.600779e+01	-1.165357e+01
4.627353e+01	-1.170047e+01
4.654081e+01	-1.174724e+01
4.680963e+01	-1.179420e+01
4.708000e+01	-1.184082e+01
4.735193e+01	-1.188729e+01
4.762543e+01	-1.193401e+01
4.790051e+01	-1.198057e+01
4.817719e+01	-1.202739e+01
4.845545e+01	-1.207490e+01
4.873533e+01	-1.212158e+01
4.901682e+01	-1.216886e+01
4.929994e+01	-1.221568e+01
4.958470e+01	-1.226266e+01
4.987110e+01	-1.230955e+01
5.015915e+01	-1.235704e+01
5.044887e+01	-1.240455e+01
5.074026e+01	-1.245076e+01
5.103333e+01	-1.249832e+01
5.132810e+01	-1.254545e+01
5.162457e+01	-1.259281e+01
5.192275e+01	-1.264027e+01
5.222265e+01	-1.268770e+01
5.252429e+01	-1.273461e+01
5.282767e+01	-1.278187e+01
5.313280e+01	-1.282963e+01
5.343969e+01	-1.287707e+01
5.374836e+01	-1.292425e+01
5.405880e+01	-1.297178e+01
5.437105e+01	-1.301968e+01
5.468509e+01	-1.306706e+01
5.500095e+01	-1.311419e+01
5.531863e+01	-1.316165e+01
5.563815e+01	-1.320961e+01
5.595951e+01	-1.325684e+01
5.628273e+01	-1.330488e+01
5.660782e+01	-1.335260e+01
5.693479e+01	-1.340077e+01
5.726364e+01	-1.344811e+01
5.759439e+01	-1.349648e+01
5.792705e+01	-1.354423e+01
5.826164e+01	-1.359156e+01
5.859815e+01	-1.363936e+01
5.893662e+01	-1.368699e+01
5.927703e+01	-1.373539e+01
5.961941e+01	-1.378340e+01
5.996377e+01	-1.383225e+01
6.031012e+01	-1.387916e+01
6.065847e+01	-1.392683e+01
6.100883e+01	-1.397425e+01
6.136121e+01	-1.402287e+01
6.171563e+01	-1.407174e+01
6.207210e+01	-1.411987e+01
6.243063e+01	-1.416837e+01
6.279122e+01	-1.421549e+01
6.315390e+01	-1.426446e+01
6.351868e+01	-1.431252e+01
6.388556e+01	-1.435977e+01
6.425456e+01	-1.440852e+01
6.462569e+01	-1.445623e+01
6.499897e+01	-1.450470e+01
6.537440e+01	-1.455326e+01
6.575200e+01	-1.460136e+01
6.613178e+01	-1.465018e+01
6.651375e+01	-1.469856e+01
6.689793e+01	-1.474650e+01
6.728433e+01	-1.479370e+01
6.767297e+01	-1.484254e+01
6.806384e+01	-1.489164e+01
6.845698e+01	-1.494095e+01
6.885238e+01	-1.498877e+01
6.925007e+01	-1.503634e+01
6.965005e+01	-1.508464e+01
7.005235e+01	-1.513349e+01
7.045697e+01	-1.518237e+01
7.086393e+01	-1.522979e+01
7.127323e+01	-1.527886e+01
7.168490e+01	-1.532751e+01
7.209895e+01	-1.537597e+01
7.251539e+01	-1.542602e+01
7.293424e+01	-1.547332e+01
7.335551e+01	-1.552143e+01
7.377920e+01	-1.557069e+01
7.420535e+01	-1.561993e+01
7.463396e+01	-1.566823e+01
7.506504e+01	-1.571735e+01
7.549861e+01	-1.576512e+01
7.593469e+01	-1.581386e+01
7.637328e+01	-1.586268e+01
7.681441e+01	-1.591071e+01
7.725809e+01	-1.596026e+01
7.770433e+01	-1.600876e+01
7.815315e+01	-1.605722e+01
7.860456e+01	-1.610575e+01
7.905857e+01	-1.615597e+01
7.951521e+01	-1.620425e+01
7.997449e+01	-1.625366e+01
8.043642e+01	-1.630202e+01
8.090102e+01	-1.635227e+01
8.136830e+01	-1.640008e+01
8.183828e+01	-1.644795e+01
8.231097e+01	-1.649764e+01
8.278640e+01	-1.654641e+01
8.326457e+01	-1.659607e+01
8.374550e+01	-1.664503e+01
8.422921e+01	-1.669335e+01
8.471572e+01	-1.674309e+01
8.520503e+01	-1.679182e+01
8.569717e+01	-1.683915e+01
8.619215e+01	-1.688922e+01
8.669000e+01	-1.693827e+01
8.719071e+01	-1.698712e+01
8.769432e+01	-1.703624e+01
8.820084e+01	-1.708589e+01
8.871029e+01	-1.713366e+01
8.922267e+01	-1.718265e+01
8.973802e+01	-1.723246e+01
9.025634e+01	-1.728133e+01
9.077766e+01	-1.732963e+01
9.130199e+01	-1.737875e+01
9.182935e+01	-1.742794e+01
9.235975e+01	-1.747874e+01
9.289321e+01	-1.752579e+01
9.342976e+01	-1.757586e+01
9.396941e+01	-1.762554e+01
9.451217e+01	-1.767486e+01
9.505807e+01	-1.772287e+01
9.560712e+01	-1.777464e+01
9.615934e+01	-1.782356e+01
9.671476e+01	-1.787265e+01
9.727338e+01	-1.792166e+01
9.783522e+01	-1.797065e+01
9.840032e+01	-1.801834e+01
9.896867e+01	-1.806775e+01
9.954031e+01	-1.811903e+01
1.001153e+02	-1.816745e+01
1.006935e+02	-1.821662e+01
1.012751e+02	-1.826615e+01
1.018601e+02	-1.831380e+01
1.024484e+02	-1.836463e+01
1.030402e+02	-1.841308e+01
1.036353e+02	-1.846353e+01
1.042339e+02	-1.851272e+01
1.048360e+02	-1.856135e+01
1.054415e+02	-1.861159e+01
1.060505e+02	-1.865983e+01
1.066631e+02	-1.871016e+01
1.072791e+02	-1.875912e+01
1.078988e+02	-1.880827e+01
1.085220e+02	-1.885766e+01
1.091488e+02	-1.890830e+01
1.097793e+02	-1.895568e+01
1.104133e+02	-1.900542e+01
1.110511e+02	-1.905415e+01
1.116925e+02	-1.910232e+01
1.123376e+02	-1.915515e+01
1.129865e+02	-1.920340e+01
1.136391e+02	-1.925336e+01
1.142955e+02	-1.930180e+01
1.149556e+02	-1.935124e+01
1.156196e+02	-1.940132e+01
1.162874e+02	-1.945088e+01
1.169591e+02	-1.949962e+01
1.176347e+02	-1.955029e+01
1.183141e+02	-1.959979e+01
1.189975e+02	-1.964991e+01
1.196848e+02	-1.969781e+01
1.203761e+02	-1.974885e+01
1.210714e+02	-1.979633e+01
1.217707e+02	-1.984548e+01
1.224740e+02	-1.989694e+01
1.231814e+02	-1.994521e+01
1.238929e+02	-1.999522e+01
1.246085e+02	-2.004719e+01
1.253283e+02	-2.009313e+01
1.260522e+02	-2.014427e+01
1.267802e+02	-2.019285e+01
1.275125e+02	-2.024197e+01
1.282490e+02	-2.029216e+01
1.289898e+02	-2.034266e+01
1.297348e+02	-2.039138e+01
1.304842e+02	-2.044104e+01
1.312378e+02	-2.049226e+01
1.319959e+02	-2.054125e+01
1.327583e+02	-2.059017e+01
1.335251e+02	-2.064086e+01
1.342963e+02	-2.069033e+01
1.350720e+02	-2.074027e+01
1.358522e+02	-2.078764e+01
1.366368e+02	-2.083753e+01
1.374260e+02	-2.088769e+01
1.382198e+02	-2.093763e+01
1.390182e+02	-2.098867e+01
1.398211e+02	-2.103744e+01
1.406287e+02	-2.108785e+01
1.414410e+02	-2.113509e+01
1.422579e+02	-2.118591e+01
1.430796e+02	-2.123621e+01
1.439060e+02	-2.128471e+01
1.447372e+02	-2.133441e+01
1.455732e+02	-2.138300e+01
1.464141e+02	-2.143312e+01
1.472597e+02	-2.148282e+01
1.481103e+02	-2.153315e+01
1.489658e+02	-2.158530e+01
1.498262e+02	-2.163195e+01
1.506916e+02	-2.168253e+01
1.515620e+02	-2.173232e+01
1.524374e+02	-2.178251e+01
1.533179e+02	-2.183045e+01
1.542034e+02	-2.188244e+01
1.550941e+02	-2.193102e+01
1.559899e+02	-2.198189e+01
1.568909e+02	-2.202999e+01
1.577971e+02	-2.208030e+01
1.587085e+02	-2.213085e+01
1.596252e+02	-2.217986e+01
1.605472e+02	-2.222997e+01
1.614745e+02	-2.227905e+01
1.624072e+02	-2.232808e+01
1.633453e+02	-2.237748e+01
1.642887e+02	-2.243037e+01
1.652377e+02	-2.247786e+01
1.661921e+02	-2.252702e+01
1.671520e+02	-2.257843e+01
1.681175e+02	-2.262709e+01
1.690885e+02	-2.267734e+01
1.700651e+02	-2.272760e+01
1.710474e+02	-2.277645e+01
1.720354e+02	-2.282756e+01
1.730291e+02	-2.287692e+01
1.740285e+02	-2.292671e+01
1.750337e+02	-2.297491e+01
1.760446e+02	-2.302465e+01
1.770615e+02	-2.307606e+01
1.780842e+02	-2.312513e+01
1.791128e+02	-2.317531e+01
1.801473e+02	-2.322113e+01
1.811878e+02	-2.327357e+01
1.822344e+02	-2.332581e+01
1.832870e+02	-2.337422e+01
1.843456e+02	-2.342571e+01
1.854104e+02	-2.347390e+01
1.864813e+02	-2.352343e+01
1.875584e+02	-2.357447e+01
1.886418e+02	-2.362494e+01
1.897313e+02	-2.367304e+01
1.908272e+02	-2.372694e+01
1.919294e+02	-2.377503e+01
1.930380e+02	-2.382385e+01
1.941530e+02	-2.387204e+01
1.952744e+02	-2.392044e+01
1.964023e+02	-2.397092e+01
1.975367e+02	-2.402107e+01
1.986777e+02	-2.407155e+01
1.998252e+02	-2.411998e+01
2.009794e+02	-2.417190e+01
2.021403e+02	-2.422165e+01
2.033078e+02	-2.427236e+01
2.044821e+02	-2.432549e+01
2.056632e+02	-2.437156e+01
2.068511e+02	-2.442041e+01
2.080459e+02	-2.447328e+01
2.092475e+02	-2.452240e+01
2.104561e+02	-2.457270e+01
2.116717e+02	-2.462092e+01
2.128943e+02	-2.466955e+01
2.141240e+02	-2.472081e+01
2.153608e+02	-2.476891e+01
2.166047e+02	-2.482205e+01
2.178558e+02	-2.487176e+01
2.191141e+02	-2.492116e+01
2.203797e+02	-2.496978e+01
2.216526e+02	-2.502175e+01
2.229329e+02	-2.507031e+01
2.242205e+02	-2.511799e+01
2.255156e+02	-2.516852e+01
2.268182e+02	-2.522094e+01
2.281283e+02	-2.527062e+01
2.294459e+02	-2.532084e+01
2.307712e+02	-2.537042e+01
2.321041e+02	-2.542214e+01
2.334447e+02	-2.546964e+01
2.347931e+02	-2.551621e+01
2.361493e+02	-2.557158e+01
2.375133e+02	-2.562068e+01
2.388851e+02	-2.566982e+01
2.402649e+02	-2.571679e+01
2.416527e+02	-2.576778e+01
2.430484e+02	-2.581886e+01
2.444523e+02	-2.586992e+01
2.458642e+02	-2.591987e+01
2.472843e+02	-2.597041e+01
2.487126e+02	-2.601861e+01
2.501492e+02	-2.606842e+01
2.515940e+02	-2.611606e+01
2.530472e+02	-2.616906e+01
2.545088e+02	-2.621724e+01
2.559789e+02	-2.626851e+01
2.574574e+02	-2.632055e+01
2.589444e+02	-2.636975e+01
2.604401e+02	-2.641928e+01
2.619444e+02	-2.647146e+01
2.634574e+02	-2.652029e+01
2.649791e+02	-2.657087e+01
2.665096e+02	-2.661970e+01
2.680489e+02	-2.666963e+01
2.695972e+02	-2.671951e+01
2.711544e+02	-2.676946e+01
2.727205e+02	-2.682176e+01
2.742958e+02	-2.686726e+01
2.758801e+02	-2.691899e+01
2.774736e+02	-2.697080e+01
2.790762e+02	-2.702027e+01
2.806882e+02	-2.707185e+01
2.823094e+02	-2.712066e+01
2.839400e+02	-2.716621e+01
2.855800e+02	-2.721457e+01
2.872295e+02	-2.726619e+01
2.888886e+02	-2.731388e+01
2.905572e+02	-2.736581e+01
2.922354e+02	-2.741465e+01
2.939234e+02	-2.746701e+01
2.956211e+02	-2.752364e+01
2.973286e+02	-2.756727e+01
2.990459e+02	-2.761973e+01
3.007732e+02	-2.766831e+01
3.025104e+02	-2.772179e+01
3.042577e+02	-2.777041e+01
3.060151e+02	-2.781851e+01
3.077826e+02	-2.786581e+01
3.095604e+02	-2.792314e+01
3.113484e+02	-2.796881e+01
3.131467e+02	-2.801931e+01
3.149554e+02	-2.806739e+01
3.167746e+02	-2.811965e+01
3.186043e+02	-2.816783e+01
3.204445e+02	-2.821732e+01
3.222954e+02	-2.826879e+01
3.241570e+02	-2.831557e+01
3.260293e+02	-2.836788e+01
3.279124e+02	-2.842173e+01
3.298064e+02	-2.846738e+01
3.317114e+02	-2.851857e+01
3.336273e+02	-2.857002e+01
3.355544e+02	-2.861836e+01
3.374925e+02	-2.866757e+01
3.394418e+02	-2.871773e+01
3.414024e+02	-2.876647e+01
3.433744e+02	-2.881672e+01
3.453577e+02	-2.886748e+01
3.473525e+02	-2.891855e+01
3.493588e+02	-2.896702e+01
3.513766e+02	-2.901618e+01
3.534062e+02	-2.906713e+01
3.554474e+02	-2.911822e+01
3.575005e+02	-2.917270e+01
3.595654e+02	-2.922053e+01
3.616422e+02	-2.927545e+01
3.637311e+02	-2.931779e+01
3.658320e+02	-2.937039e+01
3.679450e+02	-2.942261e+01
3.700702e+02	-2.946781e+01
3.722077e+02	-2.952237e+01
3.743576e+02	-2.957004e+01
3.765199e+02	-2.962054e+01
3.786946e+02	-2.967257e+01
3.808820e+02	-2.971772e+01
3.830819e+02	-2.976908e+01
3.852946e+02	-2.981911e+01
3.875200e+02	-2.987014e+01
3.897583e+02	-2.991987e+01
3.920096e+02	-2.997096e+01
3.942738e+02	-3.002374e+01
3.965511e+02	-3.007407e+01
3.988416e+02	-3.011643e+01
4.011452e+02	-3.016859e+01
4.034622e+02	-3.022233e+01
4.057926e+02	-3.027040e+01
4.081365e+02	-3.031868e+01
4.104938e+02	-3.036794e+01
4.128648e+02	-3.042037e+01
4.152495e+02	-3.047450e+01
4.176480e+02	-3.052195e+01
4.200603e+02	-3.057593e+01
4.224866e+02	-3.062276e+01
4.249268e+02	-3.067284e+01
4.273812e+02	-3.072446e+01
4.298497e+02	-3.077672e+01
4.323325e+02	-3.082287e+01
4.348297e+02	-3.087145e+01
4.373412e+02	-3.092411e+01
4.398673e+02	-3.097699e+01
4.424079e+02	-3.102288e+01
4.449633e+02	-3.106709e+01
4.475334e+02	-3.111937e+01
4.501183e+02	-3.117162e+01
4.527182e+02	-3.121918e+01
4.553330e+02	-3.127160e+01
4.579630e+02	-3.132596e+01
4.606082e+02	-3.137531e+01
4.632687e+02	-3.142413e+01
4.659445e+02	-3.147292e+01
4.686358e+02	-3.152482e+01
4.713426e+02	-3.157201e+01
4.740650e+02	-3.161859e+01
4.768032e+02	-3.167848e+01
4.795572e+02	-3.171973e+01
4.823271e+02	-3.177265e+01
4.851130e+02	-3.182363e+01
4.879150e+02	-3.187965e+01
4.907332e+02	-3.192620e+01
4.935676e+02	-3.197797e+01
4.964185e+02	-3.203033e+01
4.992858e+02	-3.207769e+01
5.021696e+02	-3.212808e+01
5.050701e+02	-3.217298e+01
5.079874e+02	-3.223102e+01
5.109215e+02	-3.227659e+01
5.138726e+02	-3.232986e+01
5.168407e+02	-3.238116e+01
5.198259e+02	-3.243342e+01
5.228284e+02	-3.248300e+01
5.258482e+02	-3.253083e+01
5.288855e+02	-3.257376e+01
5.319403e+02	-3.263660e+01
5.350128e+02	-3.267246e+01
5.381030e+02	-3.272361e+01
5.412111e+02	-3.277485e+01
5.443371e+02	-3.283566e+01
5.474812e+02	-3.287936e+01
5.506434e+02	-3.293019e+01
5.538239e+02	-3.297624e+01
5.570228e+02	-3.303037e+01
5.602401e+02	-3.308517e+01
5.634760e+02	-3.313333e+01
5.667306e+02	-3.318486e+01
5.700040e+02	-3.323209e+01
5.732964e+02	-3.327994e+01
5.766077e+02	-3.332778e+01
5.799382e+02	-3.338890e+01
5.832879e+02	-3.343169e+01
5.866569e+02	-3.348502e+01
5.900454e+02	-3.353140e+01
5.934535e+02	-3.358905e+01
5.968813e+02	-3.363840e+01
6.003288e+02	-3.368525e+01
6.037963e+02	-3.373192e+01
6.072838e+02	-3.378789e+01
6.107914e+02	-3.383191e+01
6.143194e+02	-3.389075e+01
6.178676e+02	-3.392707e+01
6.214364e+02	-3.398843e+01
6.250258e+02	-3.403609e+01
6.286359e+02	-3.408892e+01
6.322669e+02	-3.413142e+01
6.359189e+02	-3.418363e+01
6.395919e+02	-3.423316e+01
6.432862e+02	-3.428737e+01
6.470017e+02	-3.433316e+01
6.507388e+02	-3.439471e+01
6.544974e+02	-3.443832e+01
6.582778e+02	-3.449131e+01
6.620800e+02	-3.453712e+01
6.659041e+02	-3.458579e+01
6.697504e+02	-3.463420e+01
6.736188e+02	-3.468961e+01
6.775096e+02	-3.474339e+01
6.814229e+02	-3.479302e+01
6.853587e+02	-3.484496e+01
6.893173e+02	-3.488601e+01
6.932988e+02	-3.494525e+01
6.973033e+02	-3.497531e+01
7.013309e+02	-3.504215e+01
