Frequency(Hz)	Magnitude(dB)
1.000000e+01	-1.899832e-05
1.005776e+01	-1.921842e-05
1.011585e+01	-1.944107e-05
1.017428e+01	-1.966630e-05
1.023305e+01	-1.989414e-05
1.029215e+01	-2.012462e-05
1.035160e+01	-2.035777e-05
1.041139e+01	-2.059362e-05
1.047153e+01	-2.083220e-05
1.053201e+01	-2.107355e-05
1.059284e+01	-2.131769e-05
1.065403e+01	-2.156466e-05
1.071556e+01	-2.181449e-05
1.077746e+01	-2.206722e-05
1.083971e+01	-2.232287e-05
1.090232e+01	-2.258149e-05
1.096529e+01	-2.284310e-05
1.102862e+01	-2.310774e-05
1.109232e+01	-2.337545e-05
1.115639e+01	-2.364626e-05
1.122083e+01	-2.392021e-05
1.128564e+01	-2.419733e-05
1.135083e+01	-2.447766e-05
1.141639e+01	-2.476124e-05
1.148233e+01	-2.504811e-05
1.154865e+01	-2.533830e-05
1.161536e+01	-2.563185e-05
1.168245e+01	-2.592880e-05
1.174992e+01	-2.622919e-05
1.181779e+01	-2.653306e-05
1.188605e+01	-2.684045e-05
1.195470e+01	-2.715141e-05
1.202375e+01	-2.746596e-05
1.209320e+01	-2.778416e-05
1.216305e+01	-2.810605e-05
1.223330e+01	-2.843166e-05
1.230396e+01	-2.876105e-05
1.237503e+01	-2.909425e-05
1.244651e+01	-2.943132e-05
1.251840e+01	-2.977229e-05
1.259070e+01	-3.011721e-05
1.266343e+01	-3.046612e-05
1.273657e+01	-3.081908e-05
1.281014e+01	-3.117613e-05
1.288413e+01	-3.153731e-05
1.295855e+01	-3.190268e-05
1.303339e+01	-3.227228e-05
1.310867e+01	-3.264616e-05
1.318439e+01	-3.302437e-05
1.326054e+01	-3.340697e-05
1.333713e+01	-3.379399e-05
1.341417e+01	-3.418550e-05
1.349165e+01	-3.458155e-05
1.356958e+01	-3.498219e-05
1.364795e+01	-3.538746e-05
1.372678e+01	-3.579744e-05
1.380607e+01	-3.621216e-05
1.388581e+01	-3.663168e-05
1.396602e+01	-3.705607e-05
1.404668e+01	-3.748537e-05
1.412782e+01	-3.791965e-05
1.420942e+01	-3.835896e-05
1.429149e+01	-3.880336e-05
1.437404e+01	-3.925290e-05
1.445706e+01	-3.970765e-05
1.454057e+01	-4.016768e-05
1.462455e+01	-4.063303e-05
1.470902e+01	-4.110377e-05
1.479398e+01	-4.157997e-05
1.487943e+01	-4.206168e-05
1.496537e+01	-4.254897e-05
1.505181e+01	-4.304191e-05
1.513875e+01	-4.354056e-05
1.522619e+01	-4.404499e-05
1.531414e+01	-4.455526e-05
1.540259e+01	-4.507144e-05
1.549156e+01	-4.559361e-05
1.558103e+01	-4.612182e-05
1.567103e+01	-4.665615e-05
1.576155e+01	-4.719667e-05
1.585258e+01	-4.774346e-05
1.594415e+01	-4.829657e-05
1.603624e+01	-4.885610e-05
1.612886e+01	-4.942211e-05
1.622202e+01	-4.999467e-05
1.631572e+01	-5.057387e-05
1.640996e+01	-5.115978e-05
1.650474e+01	-5.175248e-05
1.660008e+01	-5.235204e-05
1.669596e+01	-5.295855e-05
1.679239e+01	-5.357209e-05
1.688938e+01	-5.419273e-05
1.698694e+01	-5.482057e-05
1.708505e+01	-5.545567e-05
1.718373e+01	-5.609814e-05
1.728299e+01	-5.674805e-05
1.738281e+01	-5.740548e-05
1.748322e+01	-5.807054e-05
1.758420e+01	-5.874330e-05
1.768576e+01	-5.942385e-05
1.778792e+01	-6.011229e-05
1.789066e+01	-6.080870e-05
1.799399e+01	-6.151318e-05
1.809793e+01	-6.222582e-05
1.820246e+01	-6.294672e-05
1.830760e+01	-6.367597e-05
1.841334e+01	-6.441367e-05
1.851969e+01	-6.515991e-05
1.862666e+01	-6.591481e-05
1.873425e+01	-6.667844e-05
1.884246e+01	-6.745092e-05
1.895129e+01	-6.823235e-05
1.906075e+01	-6.902284e-05
1.917085e+01	-6.982248e-05
1.928158e+01	-7.063139e-05
1.939295e+01	-7.144967e-05
1.950496e+01	-7.227742e-05
1.961762e+01	-7.311477e-05
1.973093e+01	-7.396182e-05
1.984490e+01	-7.481868e-05
1.995952e+01	-7.568547e-05
2.007480e+01	-7.656230e-05
2.019076e+01	-7.744928e-05
2.030738e+01	-7.834655e-05
2.042467e+01	-7.925421e-05
2.054264e+01	-8.017238e-05
2.066130e+01	-8.110119e-05
2.078064e+01	-8.204076e-05
2.090066e+01	-8.299122e-05
2.102139e+01	-8.395269e-05
2.114280e+01	-8.492529e-05
2.126492e+01	-8.590916e-05
2.138775e+01	-8.690444e-05
2.151128e+01	-8.791124e-05
2.163553e+01	-8.892970e-05
2.176050e+01	-8.995997e-05
2.188619e+01	-9.100217e-05
2.201260e+01	-9.205644e-05
2.213974e+01	-9.312293e-05
2.226762e+01	-9.420178e-05
2.239624e+01	-9.529312e-05
2.252560e+01	-9.639710e-05
2.265571e+01	-9.751388e-05
2.278656e+01	-9.864359e-05
2.291818e+01	-9.978639e-05
2.305055e+01	-1.009424e-04
2.318369e+01	-1.021119e-04
2.331760e+01	-1.032948e-04
2.345228e+01	-1.044915e-04
2.358774e+01	-1.057021e-04
2.372398e+01	-1.069267e-04
2.386101e+01	-1.081654e-04
2.399883e+01	-1.094185e-04
2.413745e+01	-1.106861e-04
2.427686e+01	-1.119685e-04
2.441709e+01	-1.132656e-04
2.455812e+01	-1.145778e-04
2.469997e+01	-1.159052e-04
2.484263e+01	-1.172480e-04
2.498612e+01	-1.186063e-04
2.513044e+01	-1.199804e-04
2.527559e+01	-1.213704e-04
2.542158e+01	-1.227765e-04
2.556842e+01	-1.241989e-04
2.571610e+01	-1.256377e-04
2.586463e+01	-1.270932e-04
2.601403e+01	-1.285656e-04
2.616428e+01	-1.300551e-04
2.631541e+01	-1.315618e-04
2.646740e+01	-1.330859e-04
2.662028e+01	-1.346278e-04
2.677404e+01	-1.361874e-04
2.692868e+01	-1.377652e-04
2.708422e+01	-1.393612e-04
2.724066e+01	-1.409757e-04
2.739800e+01	-1.426089e-04
2.755625e+01	-1.442611e-04
2.771541e+01	-1.459323e-04
2.787550e+01	-1.476230e-04
2.803650e+01	-1.493332e-04
2.819844e+01	-1.510632e-04
2.836131e+01	-1.528133e-04
2.852513e+01	-1.545837e-04
2.868989e+01	-1.563745e-04
2.885560e+01	-1.581861e-04
2.902227e+01	-1.600187e-04
2.918990e+01	-1.618726e-04
2.935850e+01	-1.637479e-04
2.952807e+01	-1.656449e-04
2.969863e+01	-1.675639e-04
2.987016e+01	-1.695051e-04
3.004269e+01	-1.714689e-04
3.021622e+01	-1.734553e-04
3.039075e+01	-1.754648e-04
3.056628e+01	-1.774976e-04
3.074283e+01	-1.795539e-04
3.092040e+01	-1.816340e-04
3.109900e+01	-1.837383e-04
3.127862e+01	-1.858669e-04
3.145929e+01	-1.880202e-04
3.164099e+01	-1.901984e-04
3.182375e+01	-1.924018e-04
3.200756e+01	-1.946308e-04
3.219244e+01	-1.968856e-04
3.237838e+01	-1.991665e-04
3.256540e+01	-2.014739e-04
3.275349e+01	-2.038080e-04
3.294268e+01	-2.061691e-04
3.313295e+01	-2.085576e-04
3.332433e+01	-2.109737e-04
3.351681e+01	-2.134178e-04
3.371040e+01	-2.158903e-04
3.390511e+01	-2.183913e-04
3.410094e+01	-2.209214e-04
3.429791e+01	-2.234808e-04
3.449601e+01	-2.260698e-04
3.469526e+01	-2.286888e-04
3.489566e+01	-2.313382e-04
3.509721e+01	-2.340182e-04
3.529993e+01	-2.367293e-04
3.550382e+01	-2.394718e-04
3.570889e+01	-2.422461e-04
3.591515e+01	-2.450525e-04
3.612259e+01	-2.478914e-04
3.633123e+01	-2.507632e-04
3.654108e+01	-2.536683e-04
3.675214e+01	-2.566070e-04
3.696442e+01	-2.595798e-04
3.717792e+01	-2.625870e-04
3.739266e+01	-2.656291e-04
3.760864e+01	-2.687063e-04
3.782587e+01	-2.718193e-04
3.804435e+01	-2.749683e-04
3.826409e+01	-2.781538e-04
3.848510e+01	-2.813762e-04
3.870739e+01	-2.846359e-04
3.893096e+01	-2.879333e-04
3.915583e+01	-2.912690e-04
3.938199e+01	-2.946433e-04
3.960946e+01	-2.980567e-04
3.983824e+01	-3.015097e-04
4.006834e+01	-3.050026e-04
4.029978e+01	-3.085361e-04
4.053255e+01	-3.121104e-04
4.076666e+01	-3.157262e-04
4.100213e+01	-3.193838e-04
4.123896e+01	-3.230838e-04
4.147715e+01	-3.268267e-04
4.171672e+01	-3.306129e-04
4.195767e+01	-3.344430e-04
4.220002e+01	-3.383175e-04
4.244377e+01	-3.422368e-04
4.268892e+01	-3.462016e-04
4.293549e+01	-3.502123e-04
4.318348e+01	-3.542694e-04
4.343291e+01	-3.583735e-04
4.368377e+01	-3.625252e-04
4.393609e+01	-3.667250e-04
4.418986e+01	-3.709734e-04
4.444510e+01	-3.752711e-04
4.470182e+01	-3.796185e-04
4.496001e+01	-3.840163e-04
4.521970e+01	-3.884650e-04
4.548089e+01	-3.929653e-04
4.574358e+01	-3.975177e-04
4.600779e+01	-4.021229e-04
4.627353e+01	-4.067813e-04
4.654081e+01	-4.114938e-04
4.680963e+01	-4.162608e-04
4.708000e+01	-4.210831e-04
4.735193e+01	-4.259612e-04
4.762543e+01	-4.308959e-04
4.790051e+01	-4.358877e-04
4.817719e+01	-4.409373e-04
4.845545e+01	-4.460454e-04
4.873533e+01	-4.512127e-04
4.901682e+01	-4.564398e-04
4.929994e+01	-4.617275e-04
4.958470e+01	-4.670765e-04
4.987110e+01	-4.724874e-04
5.015915e+01	-4.779610e-04
5.044887e+01	-4.834980e-04
5.074026e+01	-4.890991e-04
5.103333e+01	-4.947652e-04
5.132810e+01	-5.004968e-04
5.162457e+01	-5.062949e-04
5.192275e+01	-5.121601e-04
5.222265e+01	-5.180933e-04
5.252429e+01	-5.240952e-04
5.282767e+01	-5.301666e-04
5.313280e+01	-5.363083e-04
5.343969e+01	-5.425212e-04
5.374836e+01	-5.488061e-04
5.405880e+01	-5.551637e-04
5.437105e+01	-5.615951e-04
5.468509e+01	-5.681009e-04
5.500095e+01	-5.746820e-04
5.531863e+01	-5.813394e-04
5.563815e+01	-5.880740e-04
5.595951e+01	-5.948865e-04
5.628273e+01	-6.017779e-04
5.660782e+01	-6.087492e-04
5.693479e+01	-6.158012e-04
5.726364e+01	-6.229350e-04
5.759439e+01	-6.301513e-04
5.792705e+01	-6.374512e-04
5.826164e+01	-6.448357e-04
5.859815e+01	-6.523058e-04
5.893662e+01	-6.598623e-04
5.927703e+01	-6.675064e-04
5.961941e+01	-6.752391e-04
5.996377e+01	-6.830613e-04
6.031012e+01	-6.909741e-04
6.065847e+01	-6.989786e-04
6.100883e+01	-7.070758e-04
6.136121e+01	-7.152668e-04
6.171563e+01	-7.235527e-04
6.207210e+01	-7.319345e-04
6.243063e+01	-7.404135e-04
6.279122e+01	-7.489906e-04
6.315390e+01	-7.576671e-04
6.351868e+01	-7.664441e-04
6.388556e+01	-7.753228e-04
6.425456e+01	-7.843043e-04
6.462569e+01	-7.933899e-04
6.499897e+01	-8.025807e-04
6.537440e+01	-8.118779e-04
6.575200e+01	-8.212828e-04
6.613178e+01	-8.307967e-04
6.651375e+01	-8.404208e-04
6.689793e+01	-8.501564e-04
6.728433e+01	-8.600047e-04
6.767297e+01	-8.699671e-04
6.806384e+01	-8.800448e-04
6.845698e+01	-8.902394e-04
6.885238e+01	-9.005520e-04
6.925007e+01	-9.109840e-04
6.965005e+01	-9.215369e-04
7.005235e+01	-9.322120e-04
7.045697e+01	-9.430108e-04
7.086393e+01	-9.539346e-04
7.127323e+01	-9.649850e-04
7.168490e+01	-9.761633e-04
7.209895e+01	-9.874711e-04
7.251539e+01	-9.989099e-04
7.293424e+01	-1.010481e-03
7.335551e+01	-1.022187e-03
7.377920e+01	-1.034027e-03
7.420535e+01	-1.046006e-03
7.463396e+01	-1.058122e-03
7.506504e+01	-1.070379e-03
7.549861e+01	-1.082779e-03
7.593469e+01	-1.095321e-03
7.637328e+01	-1.108009e-03
7.681441e+01	-1.120844e-03
7.725809e+01	-1.133828e-03
7.770433e+01	-1.146962e-03
7.815315e+01	-1.160248e-03
7.860456e+01	-1.173688e-03
7.905857e+01	-1.187283e-03
7.951521e+01	-1.201036e-03
7.997449e+01	-1.214949e-03
8.043642e+01	-1.229022e-03
8.090102e+01	-1.243259e-03
8.136830e+01	-1.257660e-03
8.183828e+01	-1.272228e-03
8.231097e+01	-1.286965e-03
8.278640e+01	-1.301873e-03
8.326457e+01	-1.316953e-03
8.374550e+01	-1.332208e-03
8.422921e+01	-1.347640e-03
8.471572e+01	-1.363250e-03
8.520503e+01	-1.379041e-03
8.569717e+01	-1.395015e-03
8.619215e+01	-1.411174e-03
8.669000e+01	-1.427520e-03
8.719071e+01	-1.444056e-03
8.769432e+01	-1.460783e-03
8.820084e+01	-1.477703e-03
8.871029e+01	-1.494820e-03
8.922267e+01	-1.512135e-03
8.973802e+01	-1.529650e-03
9.025634e+01	-1.547369e-03
9.077766e+01	-1.565292e-03
9.130199e+01	-1.583423e-03
9.182935e+01	-1.601764e-03
9.235975e+01	-1.620318e-03
9.289321e+01	-1.639086e-03
9.342976e+01	-1.658071e-03
9.396941e+01	-1.677277e-03
9.451217e+01	-1.696705e-03
9.505807e+01	-1.716358e-03
9.560712e+01	-1.736238e-03
9.615934e+01	-1.756349e-03
9.671476e+01	-1.776693e-03
9.727338e+01	-1.797272e-03
9.783522e+01	-1.818089e-03
9.840032e+01	-1.839148e-03
9.896867e+01	-1.860450e-03
9.954031e+01	-1.881999e-03
1.001153e+02	-1.903798e-03
1.006935e+02	-1.925849e-03
1.012751e+02	-1.948156e-03
1.018601e+02	-1.970720e-03
1.024484e+02	-1.993547e-03
1.030402e+02	-2.016637e-03
1.036353e+02	-2.039995e-03
1.042339e+02	-2.063623e-03
1.048360e+02	-2.087525e-03
1.054415e+02	-2.111704e-03
1.060505e+02	-2.136162e-03
1.066631e+02	-2.160904e-03
1.072791e+02	-2.185932e-03
1.078988e+02	-2.211250e-03
1.085220e+02	-2.236862e-03
1.091488e+02	-2.262770e-03
1.097793e+02	-2.288978e-03
1.104133e+02	-2.315489e-03
1.110511e+02	-2.342307e-03
1.116925e+02	-2.369436e-03
1.123376e+02	-2.396879e-03
1.129865e+02	-2.424640e-03
1.136391e+02	-2.452722e-03
1.142955e+02	-2.481129e-03
1.149556e+02	-2.509865e-03
1.156196e+02	-2.538934e-03
1.162874e+02	-2.568340e-03
1.169591e+02	-2.598086e-03
1.176347e+02	-2.628176e-03
1.183141e+02	-2.658615e-03
1.189975e+02	-2.689406e-03
1.196848e+02	-2.720554e-03
1.203761e+02	-2.752062e-03
1.210714e+02	-2.783935e-03
1.217707e+02	-2.816178e-03
1.224740e+02	-2.848793e-03
1.231814e+02	-2.881786e-03
1.238929e+02	-2.915161e-03
1.246085e+02	-2.948923e-03
1.253283e+02	-2.983075e-03
1.260522e+02	-3.017623e-03
1.267802e+02	-3.052570e-03
1.275125e+02	-3.087922e-03
1.282490e+02	-3.123684e-03
1.289898e+02	-3.159859e-03
1.297348e+02	-3.196454e-03
1.304842e+02	-3.233472e-03
1.312378e+02	-3.270918e-03
1.319959e+02	-3.308798e-03
1.327583e+02	-3.347117e-03
1.335251e+02	-3.385879e-03
1.342963e+02	-3.425090e-03
1.350720e+02	-3.464754e-03
1.358522e+02	-3.504878e-03
1.366368e+02	-3.545466e-03
1.374260e+02	-3.586525e-03
1.382198e+02	-3.628058e-03
1.390182e+02	-3.670072e-03
1.398211e+02	-3.712573e-03
1.406287e+02	-3.755565e-03
1.414410e+02	-3.799055e-03
1.422579e+02	-3.843049e-03
1.430796e+02	-3.887552e-03
1.439060e+02	-3.932570e-03
1.447372e+02	-3.978109e-03
1.455732e+02	-4.024175e-03
1.464141e+02	-4.070774e-03
1.472597e+02	-4.117912e-03
1.481103e+02	-4.165597e-03
1.489658e+02	-4.213833e-03
1.498262e+02	-4.262627e-03
1.506916e+02	-4.311986e-03
1.515620e+02	-4.361916e-03
1.524374e+02	-4.412425e-03
1.533179e+02	-4.463517e-03
1.542034e+02	-4.515201e-03
1.550941e+02	-4.567484e-03
1.559899e+02	-4.620371e-03
1.568909e+02	-4.673870e-03
1.577971e+02	-4.727989e-03
1.587085e+02	-4.782733e-03
1.596252e+02	-4.838112e-03
1.605472e+02	-4.894131e-03
1.614745e+02	-4.950798e-03
1.624072e+02	-5.008121e-03
1.633453e+02	-5.066108e-03
1.642887e+02	-5.124765e-03
1.652377e+02	-5.184101e-03
1.661921e+02	-5.244124e-03
1.671520e+02	-5.304842e-03
1.681175e+02	-5.366261e-03
1.690885e+02	-5.428392e-03
1.700651e+02	-5.491241e-03
1.710474e+02	-5.554818e-03
1.720354e+02	-5.619130e-03
1.730291e+02	-5.684187e-03
1.740285e+02	-5.749996e-03
1.750337e+02	-5.816566e-03
1.760446e+02	-5.883907e-03
1.770615e+02	-5.952027e-03
1.780842e+02	-6.020934e-03
1.791128e+02	-6.090640e-03
1.801473e+02	-6.161151e-03
1.811878e+02	-6.232478e-03
1.822344e+02	-6.304630e-03
1.832870e+02	-6.377617e-03
1.843456e+02	-6.451449e-03
1.854104e+02	-6.526134e-03
1.864813e+02	-6.601683e-03
1.875584e+02	-6.678107e-03
1.886418e+02	-6.755414e-03
1.897313e+02	-6.833615e-03
1.908272e+02	-6.912721e-03
1.919294e+02	-6.992742e-03
1.930380e+02	-7.073689e-03
1.941530e+02	-7.155572e-03
1.952744e+02	-7.238402e-03
1.964023e+02	-7.322189e-03
1.975367e+02	-7.406946e-03
1.986777e+02	-7.492683e-03
1.998252e+02	-7.579412e-03
2.009794e+02	-7.667144e-03
2.021403e+02	-7.755890e-03
2.033078e+02	-7.845663e-03
2.044821e+02	-7.936473e-03
2.056632e+02	-8.028334e-03
2.068511e+02	-8.121257e-03
2.080459e+02	-8.215255e-03
2.092475e+02	-8.310339e-03
2.104561e+02	-8.406523e-03
2.116717e+02	-8.503819e-03
2.128943e+02	-8.602240e-03
2.141240e+02	-8.701799e-03
2.153608e+02	-8.802509e-03
2.166047e+02	-8.904384e-03
2.178558e+02	-9.007436e-03
2.191141e+02	-9.111680e-03
2.203797e+02	-9.217128e-03
2.216526e+02	-9.323796e-03
2.229329e+02	-9.431697e-03
2.242205e+02	-9.540845e-03
2.255156e+02	-9.651255e-03
2.268182e+02	-9.762941e-03
2.281283e+02	-9.875919e-03
2.294459e+02	-9.990202e-03
2.307712e+02	-1.010581e-02
2.321041e+02	-1.022275e-02
2.334447e+02	-1.034104e-02
2.347931e+02	-1.046070e-02
2.361493e+02	-1.058174e-02
2.375133e+02	-1.070418e-02
2.388851e+02	-1.082803e-02
2.402649e+02	-1.095332e-02
2.416527e+02	-1.108006e-02
2.430484e+02	-1.120825e-02
2.444523e+02	-1.133793e-02
2.458642e+02	-1.146911e-02
2.472843e+02	-1.160181e-02
2.487126e+02	-1.173604e-02
2.501492e+02	-1.187181e-02
2.515940e+02	-1.200916e-02
2.530472e+02	-1.214810e-02
2.545088e+02	-1.228863e-02
2.559789e+02	-1.243080e-02
2.574574e+02	-1.257460e-02
2.589444e+02	-1.272007e-02
2.604401e+02	-1.286721e-02
2.619444e+02	-1.301606e-02
2.634574e+02	-1.316662e-02
2.649791e+02	-1.331893e-02
2.665096e+02	-1.347299e-02
2.680489e+02	-1.362883e-02
2.695972e+02	-1.378648e-02
2.711544e+02	-1.394594e-02
2.727205e+02	-1.410724e-02
2.742958e+02	-1.427041e-02
2.758801e+02	-1.443546e-02
2.774736e+02	-1.460242e-02
2.790762e+02	-1.477130e-02
2.806882e+02	-1.494213e-02
2.823094e+02	-1.511494e-02
2.839400e+02	-1.528974e-02
2.855800e+02	-1.546656e-02
2.872295e+02	-1.564542e-02
2.888886e+02	-1.582634e-02
2.905572e+02	-1.600936e-02
2.922354e+02	-1.619448e-02
2.939234e+02	-1.638174e-02
2.956211e+02	-1.657117e-02
2.973286e+02	-1.676278e-02
2.990459e+02	-1.695660e-02
3.007732e+02	-1.715266e-02
3.025104e+02	-1.735097e-02
3.042577e+02	-1.755158e-02
3.060151e+02	-1.775451e-02
3.077826e+02	-1.795977e-02
3.095604e+02	-1.816740e-02
3.113484e+02	-1.837743e-02
3.131467e+02	-1.858988e-02
3.149554e+02	-1.880478e-02
3.167746e+02	-1.902216e-02
3.186043e+02	-1.924204e-02
3.204445e+02	-1.946447e-02
3.222954e+02	-1.968945e-02
3.241570e+02	-1.991704e-02
3.260293e+02	-2.014724e-02
3.279124e+02	-2.038011e-02
3.298064e+02	-2.061565e-02
3.317114e+02	-2.085391e-02
3.336273e+02	-2.109492e-02
3.355544e+02	-2.133871e-02
3.374925e+02	-2.158531e-02
3.394418e+02	-2.183475e-02
3.414024e+02	-2.208706e-02
3.433744e+02	-2.234229e-02
3.453577e+02	-2.260045e-02
3.473525e+02	-2.286159e-02
3.493588e+02	-2.312574e-02
3.513766e+02	-2.339294e-02
3.534062e+02	-2.366321e-02
3.554474e+02	-2.393660e-02
3.575005e+02	-2.421313e-02
3.595654e+02	-2.449285e-02
3.616422e+02	-2.477580e-02
3.637311e+02	-2.506200e-02
3.658320e+02	-2.535150e-02
3.679450e+02	-2.564433e-02
3.700702e+02	-2.594054e-02
3.722077e+02	-2.624016e-02
3.743576e+02	-2.654322e-02
3.765199e+02	-2.684978e-02
3.786946e+02	-2.715987e-02
3.808820e+02	-2.747352e-02
3.830819e+02	-2.779079e-02
3.852946e+02	-2.811171e-02
3.875200e+02	-2.843632e-02
3.897583e+02	-2.876467e-02
3.920096e+02	-2.909679e-02
3.942738e+02	-2.943274e-02
3.965511e+02	-2.977255e-02
3.988416e+02	-3.011628e-02
4.011452e+02	-3.046395e-02
4.034622e+02	-3.081563e-02
4.057926e+02	-3.117135e-02
4.081365e+02	-3.153117e-02
4.104938e+02	-3.189512e-02
4.128648e+02	-3.226325e-02
4.152495e+02	-3.263562e-02
4.176480e+02	-3.301227e-02
4.200603e+02	-3.339325e-02
4.224866e+02	-3.377862e-02
4.249268e+02	-3.416841e-02
4.273812e+02	-3.456268e-02
4.298497e+02	-3.496148e-02
4.323325e+02	-3.536486e-02
4.348297e+02	-3.577288e-02
4.373412e+02	-3.618559e-02
4.398673e+02	-3.660303e-02
4.424079e+02	-3.702528e-02
4.449633e+02	-3.745237e-02
4.475334e+02	-3.788437e-02
4.501183e+02	-3.832133e-02
4.527182e+02	-3.876330e-02
4.553330e+02	-3.921035e-02
4.579630e+02	-3.966254e-02
4.606082e+02	-4.011991e-02
4.632687e+02	-4.058253e-02
4.659445e+02	-4.105046e-02
4.686358e+02	-4.152376e-02
4.713426e+02	-4.200250e-02
4.740650e+02	-4.248672e-02
4.768032e+02	-4.297650e-02
4.795572e+02	-4.347190e-02
4.823271e+02	-4.397297e-02
4.851130e+02	-4.447980e-02
4.879150e+02	-4.499243e-02
4.907332e+02	-4.551094e-02
4.935676e+02	-4.603540e-02
4.964185e+02	-4.656587e-02
4.992858e+02	-4.710241e-02
5.021696e+02	-4.764511e-02
5.050701e+02	-4.819402e-02
5.079874e+02	-4.874922e-02
5.109215e+02	-4.931078e-02
5.138726e+02	-4.987877e-02
5.168407e+02	-5.045327e-02
5.198259e+02	-5.103434e-02
5.228284e+02	-5.162207e-02
5.258482e+02	-5.221652e-02
5.288855e+02	-5.281778e-02
5.319403e+02	-5.342592e-02
5.350128e+02	-5.404101e-02
5.381030e+02	-5.466314e-02
5.412111e+02	-5.529239e-02
5.443371e+02	-5.592884e-02
5.474812e+02	-5.657256e-02
5.506434e+02	-5.722365e-02
5.538239e+02	-5.788218e-02
5.570228e+02	-5.854823e-02
5.602401e+02	-5.922190e-02
5.634760e+02	-5.990326e-02
5.667306e+02	-6.059241e-02
5.700040e+02	-6.128943e-02
5.732964e+02	-6.199441e-02
5.766077e+02	-6.270744e-02
5.799382e+02	-6.342861e-02
5.832879e+02	-6.415802e-02
5.866569e+02	-6.489575e-02
5.900454e+02	-6.564190e-02
5.934535e+02	-6.639656e-02
5.968813e+02	-6.715983e-02
6.003288e+02	-6.793180e-02
6.037963e+02	-6.871258e-02
6.072838e+02	-6.950226e-02
6.107914e+02	-7.030094e-02
6.143194e+02	-7.110873e-02
6.178676e+02	-7.192572e-02
6.214364e+02	-7.275201e-02
6.250258e+02	-7.358772e-02
6.286359e+02	-7.443295e-02
6.322669e+02	-7.528780e-02
6.359189e+02	-7.615238e-02
6.395919e+02	-7.702680e-02
6.432862e+02	-7.791118e-02
6.470017e+02	-7.880561e-02
6.507388e+02	-7.971022e-02
6.544974e+02	-8.062511e-02
6.582778e+02	-8.155041e-02
6.620800e+02	-8.248622e-02
6.659041e+02	-8.343267e-02
6.697504e+02	-8.438988e-02
6.736188e+02	-8.535796e-02
6.775096e+02	-8.633703e-02
6.814229e+02	-8.732722e-02
6.853587e+02	-8.832865e-02
6.893173e+02	-8.934144e-02
6.932988e+02	-9.036573e-02
6.973033e+02	-9.140164e-02
7.013309e+02	-9.244929e-02
