Frequency(Hz)	Magnitude(dB)
1.000000e+01	-1.825069e-05
1.005776e+01	-1.846213e-05
1.011585e+01	-1.867602e-05
1.017428e+01	-1.889239e-05
1.023305e+01	-1.911126e-05
1.029215e+01	-1.933267e-05
1.035160e+01	-1.955664e-05
1.041139e+01	-1.978321e-05
1.047153e+01	-2.001241e-05
1.053201e+01	-2.024425e-05
1.059284e+01	-2.047879e-05
1.065403e+01	-2.071604e-05
1.071556e+01	-2.095604e-05
1.077746e+01	-2.119882e-05
1.083971e+01	-2.144442e-05
1.090232e+01	-2.169286e-05
1.096529e+01	-2.194417e-05
1.102862e+01	-2.219840e-05
1.109232e+01	-2.245558e-05
1.115639e+01	-2.271573e-05
1.122083e+01	-2.297890e-05
1.128564e+01	-2.324511e-05
1.135083e+01	-2.351441e-05
1.141639e+01	-2.378683e-05
1.148233e+01	-2.406241e-05
1.154865e+01	-2.434118e-05
1.161536e+01	-2.462318e-05
1.168245e+01	-2.490844e-05
1.174992e+01	-2.519701e-05
1.181779e+01	-2.548893e-05
1.188605e+01	-2.578422e-05
1.195470e+01	-2.608294e-05
1.202375e+01	-2.638512e-05
1.209320e+01	-2.669079e-05
1.216305e+01	-2.700001e-05
1.223330e+01	-2.731282e-05
1.230396e+01	-2.762924e-05
1.237503e+01	-2.794933e-05
1.244651e+01	-2.827313e-05
1.251840e+01	-2.860068e-05
1.259070e+01	-2.893203e-05
1.266343e+01	-2.926721e-05
1.273657e+01	-2.960628e-05
1.281014e+01	-2.994928e-05
1.288413e+01	-3.029625e-05
1.295855e+01	-3.064724e-05
1.303339e+01	-3.100229e-05
1.310867e+01	-3.136146e-05
1.318439e+01	-3.172479e-05
1.326054e+01	-3.209233e-05
1.333713e+01	-3.246413e-05
1.341417e+01	-3.284023e-05
1.349165e+01	-3.322069e-05
1.356958e+01	-3.360556e-05
1.364795e+01	-3.399489e-05
1.372678e+01	-3.438873e-05
1.380607e+01	-3.478713e-05
1.388581e+01	-3.519015e-05
1.396602e+01	-3.559784e-05
1.404668e+01	-3.601024e-05
1.412782e+01	-3.642743e-05
1.420942e+01	-3.684945e-05
1.429149e+01	-3.727636e-05
1.437404e+01	-3.770822e-05
1.445706e+01	-3.814507e-05
1.454057e+01	-3.858699e-05
1.462455e+01	-3.903403e-05
1.470902e+01	-3.948625e-05
1.479398e+01	-3.994371e-05
1.487943e+01	-4.040647e-05
1.496537e+01	-4.087458e-05
1.505181e+01	-4.134812e-05
1.513875e+01	-4.182715e-05
1.522619e+01	-4.231173e-05
1.531414e+01	-4.280192e-05
1.540259e+01	-4.329779e-05
1.549156e+01	-4.379940e-05
1.558103e+01	-4.430683e-05
1.567103e+01	-4.482013e-05
1.576155e+01	-4.533939e-05
1.585258e+01	-4.586465e-05
1.594415e+01	-4.639600e-05
1.603624e+01	-4.693351e-05
1.612886e+01	-4.747725e-05
1.622202e+01	-4.802728e-05
1.631572e+01	-4.858369e-05
1.640996e+01	-4.914654e-05
1.650474e+01	-4.971591e-05
1.660008e+01	-5.029188e-05
1.669596e+01	-5.087452e-05
1.679239e+01	-5.146392e-05
1.688938e+01	-5.206014e-05
1.698694e+01	-5.266326e-05
1.708505e+01	-5.327338e-05
1.718373e+01	-5.389056e-05
1.728299e+01	-5.451490e-05
1.738281e+01	-5.514646e-05
1.748322e+01	-5.578534e-05
1.758420e+01	-5.643163e-05
1.768576e+01	-5.708540e-05
1.778792e+01	-5.774675e-05
1.789066e+01	-5.841575e-05
1.799399e+01	-5.909251e-05
1.809793e+01	-5.977711e-05
1.820246e+01	-6.046964e-05
1.830760e+01	-6.117019e-05
1.841334e+01	-6.187886e-05
1.851969e+01	-6.259574e-05
1.862666e+01	-6.332093e-05
1.873425e+01	-6.405451e-05
1.884246e+01	-6.479660e-05
1.895129e+01	-6.554728e-05
1.906075e+01	-6.630665e-05
1.917085e+01	-6.707483e-05
1.928158e+01	-6.785190e-05
1.939295e+01	-6.863798e-05
1.950496e+01	-6.943316e-05
1.961762e+01	-7.023756e-05
1.973093e+01	-7.105128e-05
1.984490e+01	-7.187442e-05
1.995952e+01	-7.270710e-05
2.007480e+01	-7.354942e-05
2.019076e+01	-7.440150e-05
2.030738e+01	-7.526346e-05
2.042467e+01	-7.613540e-05
2.054264e+01	-7.701744e-05
2.066130e+01	-7.790970e-05
2.078064e+01	-7.881230e-05
2.090066e+01	-7.972535e-05
2.102139e+01	-8.064899e-05
2.114280e+01	-8.158332e-05
2.126492e+01	-8.252848e-05
2.138775e+01	-8.348458e-05
2.151128e+01	-8.445176e-05
2.163553e+01	-8.543015e-05
2.176050e+01	-8.641987e-05
2.188619e+01	-8.742106e-05
2.201260e+01	-8.843385e-05
2.213974e+01	-8.945837e-05
2.226762e+01	-9.049476e-05
2.239624e+01	-9.154316e-05
2.252560e+01	-9.260370e-05
2.265571e+01	-9.367653e-05
2.278656e+01	-9.476178e-05
2.291818e+01	-9.585961e-05
2.305055e+01	-9.697016e-05
2.318369e+01	-9.809357e-05
2.331760e+01	-9.923000e-05
2.345228e+01	-1.003796e-04
2.358774e+01	-1.015425e-04
2.372398e+01	-1.027189e-04
2.386101e+01	-1.039089e-04
2.399883e+01	-1.051127e-04
2.413745e+01	-1.063304e-04
2.427686e+01	-1.075623e-04
2.441709e+01	-1.088084e-04
2.455812e+01	-1.100690e-04
2.469997e+01	-1.113441e-04
2.484263e+01	-1.126341e-04
2.498612e+01	-1.139390e-04
2.513044e+01	-1.152590e-04
2.527559e+01	-1.165943e-04
2.542158e+01	-1.179450e-04
2.556842e+01	-1.193114e-04
2.571610e+01	-1.206937e-04
2.586463e+01	-1.220919e-04
2.601403e+01	-1.235064e-04
2.616428e+01	-1.249372e-04
2.631541e+01	-1.263846e-04
2.646740e+01	-1.278488e-04
2.662028e+01	-1.293299e-04
2.677404e+01	-1.308282e-04
2.692868e+01	-1.323439e-04
2.708422e+01	-1.338771e-04
2.724066e+01	-1.354281e-04
2.739800e+01	-1.369970e-04
2.755625e+01	-1.385841e-04
2.771541e+01	-1.401897e-04
2.787550e+01	-1.418138e-04
2.803650e+01	-1.434567e-04
2.819844e+01	-1.451187e-04
2.836131e+01	-1.467999e-04
2.852513e+01	-1.485006e-04
2.868989e+01	-1.502209e-04
2.885560e+01	-1.519613e-04
2.902227e+01	-1.537217e-04
2.918990e+01	-1.555026e-04
2.935850e+01	-1.573041e-04
2.952807e+01	-1.591265e-04
2.969863e+01	-1.609700e-04
2.987016e+01	-1.628348e-04
3.004269e+01	-1.647213e-04
3.021622e+01	-1.666296e-04
3.039075e+01	-1.685600e-04
3.056628e+01	-1.705128e-04
3.074283e+01	-1.724882e-04
3.092040e+01	-1.744865e-04
3.109900e+01	-1.765079e-04
3.127862e+01	-1.785528e-04
3.145929e+01	-1.806213e-04
3.164099e+01	-1.827138e-04
3.182375e+01	-1.848306e-04
3.200756e+01	-1.869718e-04
3.219244e+01	-1.891379e-04
3.237838e+01	-1.913291e-04
3.256540e+01	-1.935456e-04
3.275349e+01	-1.957878e-04
3.294268e+01	-1.980560e-04
3.313295e+01	-2.003505e-04
3.332433e+01	-2.026716e-04
3.351681e+01	-2.050195e-04
3.371040e+01	-2.073947e-04
3.390511e+01	-2.097974e-04
3.410094e+01	-2.122279e-04
3.429791e+01	-2.146865e-04
3.449601e+01	-2.171737e-04
3.469526e+01	-2.196896e-04
3.489566e+01	-2.222347e-04
3.509721e+01	-2.248093e-04
3.529993e+01	-2.274137e-04
3.550382e+01	-2.300483e-04
3.570889e+01	-2.327134e-04
3.591515e+01	-2.354094e-04
3.612259e+01	-2.381366e-04
3.633123e+01	-2.408954e-04
3.654108e+01	-2.436861e-04
3.675214e+01	-2.465092e-04
3.696442e+01	-2.493650e-04
3.717792e+01	-2.522539e-04
3.739266e+01	-2.551763e-04
3.760864e+01	-2.581325e-04
3.782587e+01	-2.611229e-04
3.804435e+01	-2.641480e-04
3.826409e+01	-2.672081e-04
3.848510e+01	-2.703037e-04
3.870739e+01	-2.734352e-04
3.893096e+01	-2.766029e-04
3.915583e+01	-2.798073e-04
3.938199e+01	-2.830488e-04
3.960946e+01	-2.863279e-04
3.983824e+01	-2.896450e-04
4.006834e+01	-2.930005e-04
4.029978e+01	-2.963949e-04
4.053255e+01	-2.998286e-04
4.076666e+01	-3.033021e-04
4.100213e+01	-3.068158e-04
4.123896e+01	-3.103702e-04
4.147715e+01	-3.139658e-04
4.171672e+01	-3.176030e-04
4.195767e+01	-3.212824e-04
4.220002e+01	-3.250044e-04
4.244377e+01	-3.287696e-04
4.268892e+01	-3.325783e-04
4.293549e+01	-3.364312e-04
4.318348e+01	-3.403287e-04
4.343291e+01	-3.442713e-04
4.368377e+01	-3.482596e-04
4.393609e+01	-3.522941e-04
4.418986e+01	-3.563754e-04
4.444510e+01	-3.605039e-04
4.470182e+01	-3.646803e-04
4.496001e+01	-3.689050e-04
4.521970e+01	-3.731787e-04
4.548089e+01	-3.775019e-04
4.574358e+01	-3.818752e-04
4.600779e+01	-3.862991e-04
4.627353e+01	-3.907743e-04
4.654081e+01	-3.953013e-04
4.680963e+01	-3.998808e-04
4.708000e+01	-4.045133e-04
4.735193e+01	-4.091995e-04
4.762543e+01	-4.139399e-04
4.790051e+01	-4.187353e-04
4.817719e+01	-4.235862e-04
4.845545e+01	-4.284934e-04
4.873533e+01	-4.334573e-04
4.901682e+01	-4.384788e-04
4.929994e+01	-4.435584e-04
4.958470e+01	-4.486969e-04
4.987110e+01	-4.538949e-04
5.015915e+01	-4.591532e-04
5.044887e+01	-4.644723e-04
5.074026e+01	-4.698530e-04
5.103333e+01	-4.752961e-04
5.132810e+01	-4.808022e-04
5.162457e+01	-4.863722e-04
5.192275e+01	-4.920066e-04
5.222265e+01	-4.977063e-04
5.252429e+01	-5.034720e-04
5.282767e+01	-5.093046e-04
5.313280e+01	-5.152046e-04
5.343969e+01	-5.211731e-04
5.374836e+01	-5.272106e-04
5.405880e+01	-5.333181e-04
5.437105e+01	-5.394964e-04
5.468509e+01	-5.457462e-04
5.500095e+01	-5.520684e-04
5.531863e+01	-5.584639e-04
5.563815e+01	-5.649334e-04
5.595951e+01	-5.714779e-04
5.628273e+01	-5.780982e-04
5.660782e+01	-5.847952e-04
5.693479e+01	-5.915697e-04
5.726364e+01	-5.984228e-04
5.759439e+01	-6.053552e-04
5.792705e+01	-6.123679e-04
5.826164e+01	-6.194618e-04
5.859815e+01	-6.266379e-04
5.893662e+01	-6.338972e-04
5.927703e+01	-6.412405e-04
5.961941e+01	-6.486689e-04
5.996377e+01	-6.561833e-04
6.031012e+01	-6.637848e-04
6.065847e+01	-6.714744e-04
6.100883e+01	-6.792530e-04
6.136121e+01	-6.871217e-04
6.171563e+01	-6.950815e-04
6.207210e+01	-7.031336e-04
6.243063e+01	-7.112789e-04
6.279122e+01	-7.195186e-04
6.315390e+01	-7.278537e-04
6.351868e+01	-7.362854e-04
6.388556e+01	-7.448147e-04
6.425456e+01	-7.534429e-04
6.462569e+01	-7.621709e-04
6.499897e+01	-7.710001e-04
6.537440e+01	-7.799316e-04
6.575200e+01	-7.889665e-04
6.613178e+01	-7.981060e-04
6.651375e+01	-8.073514e-04
6.689793e+01	-8.167039e-04
6.728433e+01	-8.261648e-04
6.767297e+01	-8.357352e-04
6.806384e+01	-8.454165e-04
6.845698e+01	-8.552099e-04
6.885238e+01	-8.651168e-04
6.925007e+01	-8.751384e-04
6.965005e+01	-8.852761e-04
7.005235e+01	-8.955312e-04
7.045697e+01	-9.059051e-04
7.086393e+01	-9.163991e-04
7.127323e+01	-9.270147e-04
7.168490e+01	-9.377533e-04
7.209895e+01	-9.486162e-04
7.251539e+01	-9.596050e-04
7.293424e+01	-9.707210e-04
7.335551e+01	-9.819658e-04
7.377920e+01	-9.933408e-04
7.420535e+01	-1.004848e-03
7.463396e+01	-1.016488e-03
7.506504e+01	-1.028263e-03
7.549861e+01	-1.040174e-03
7.593469e+01	-1.052223e-03
7.637328e+01	-1.064412e-03
7.681441e+01	-1.076742e-03
7.725809e+01	-1.089215e-03
7.770433e+01	-1.101832e-03
7.815315e+01	-1.114595e-03
7.860456e+01	-1.127507e-03
7.905857e+01	-1.140567e-03
7.951521e+01	-1.153779e-03
7.997449e+01	-1.167144e-03
8.043642e+01	-1.180664e-03
8.090102e+01	-1.194341e-03
8.136830e+01	-1.208175e-03
8.183828e+01	-1.222171e-03
8.231097e+01	-1.236328e-03
8.278640e+01	-1.250649e-03
8.326457e+01	-1.265136e-03
8.374550e+01	-1.279791e-03
8.422921e+01	-1.294615e-03
8.471572e+01	-1.309611e-03
8.520503e+01	-1.324781e-03
8.569717e+01	-1.340127e-03
8.619215e+01	-1.355650e-03
8.669000e+01	-1.371353e-03
8.719071e+01	-1.387238e-03
8.769432e+01	-1.403307e-03
8.820084e+01	-1.419562e-03
8.871029e+01	-1.436005e-03
8.922267e+01	-1.452639e-03
8.973802e+01	-1.469466e-03
9.025634e+01	-1.486487e-03
9.077766e+01	-1.503705e-03
9.130199e+01	-1.521123e-03
9.182935e+01	-1.538742e-03
9.235975e+01	-1.556566e-03
9.289321e+01	-1.574596e-03
9.342976e+01	-1.592835e-03
9.396941e+01	-1.611285e-03
9.451217e+01	-1.629948e-03
9.505807e+01	-1.648828e-03
9.560712e+01	-1.667927e-03
9.615934e+01	-1.687246e-03
9.671476e+01	-1.706790e-03
9.727338e+01	-1.726559e-03
9.783522e+01	-1.746558e-03
9.840032e+01	-1.766788e-03
9.896867e+01	-1.787253e-03
9.954031e+01	-1.807954e-03
1.001153e+02	-1.828895e-03
1.006935e+02	-1.850079e-03
1.012751e+02	-1.871508e-03
1.018601e+02	-1.893185e-03
1.024484e+02	-1.915113e-03
1.030402e+02	-1.937296e-03
1.036353e+02	-1.959735e-03
1.042339e+02	-1.982434e-03
1.048360e+02	-2.005395e-03
1.054415e+02	-2.028623e-03
1.060505e+02	-2.052119e-03
1.066631e+02	-2.075888e-03
1.072791e+02	-2.099932e-03
1.078988e+02	-2.124254e-03
1.085220e+02	-2.148858e-03
1.091488e+02	-2.173747e-03
1.097793e+02	-2.198924e-03
1.104133e+02	-2.224393e-03
1.110511e+02	-2.250156e-03
1.116925e+02	-2.276218e-03
1.123376e+02	-2.302582e-03
1.129865e+02	-2.329251e-03
1.136391e+02	-2.356228e-03
1.142955e+02	-2.383518e-03
1.149556e+02	-2.411124e-03
1.156196e+02	-2.439050e-03
1.162874e+02	-2.467299e-03
1.169591e+02	-2.495875e-03
1.176347e+02	-2.524782e-03
1.183141e+02	-2.554024e-03
1.189975e+02	-2.583604e-03
1.196848e+02	-2.613527e-03
1.203761e+02	-2.643796e-03
1.210714e+02	-2.674415e-03
1.217707e+02	-2.705390e-03
1.224740e+02	-2.736722e-03
1.231814e+02	-2.768418e-03
1.238929e+02	-2.800480e-03
1.246085e+02	-2.832914e-03
1.253283e+02	-2.865723e-03
1.260522e+02	-2.898912e-03
1.267802e+02	-2.932486e-03
1.275125e+02	-2.966448e-03
1.282490e+02	-3.000803e-03
1.289898e+02	-3.035556e-03
1.297348e+02	-3.070711e-03
1.304842e+02	-3.106273e-03
1.312378e+02	-3.142247e-03
1.319959e+02	-3.178638e-03
1.327583e+02	-3.215449e-03
1.335251e+02	-3.252687e-03
1.342963e+02	-3.290356e-03
1.350720e+02	-3.328461e-03
1.358522e+02	-3.367007e-03
1.366368e+02	-3.406000e-03
1.374260e+02	-3.445443e-03
1.382198e+02	-3.485344e-03
1.390182e+02	-3.525706e-03
1.398211e+02	-3.566535e-03
1.406287e+02	-3.607838e-03
1.414410e+02	-3.649618e-03
1.422579e+02	-3.691881e-03
1.430796e+02	-3.734634e-03
1.439060e+02	-3.777882e-03
1.447372e+02	-3.821631e-03
1.455732e+02	-3.865886e-03
1.464141e+02	-3.910653e-03
1.472597e+02	-3.955938e-03
1.481103e+02	-4.001747e-03
1.489658e+02	-4.048087e-03
1.498262e+02	-4.094963e-03
1.506916e+02	-4.142382e-03
1.515620e+02	-4.190349e-03
1.524374e+02	-4.238872e-03
1.533179e+02	-4.287956e-03
1.542034e+02	-4.337608e-03
1.550941e+02	-4.387835e-03
1.559899e+02	-4.438643e-03
1.568909e+02	-4.490039e-03
1.577971e+02	-4.542030e-03
1.587085e+02	-4.594623e-03
1.596252e+02	-4.647824e-03
1.605472e+02	-4.701641e-03
1.614745e+02	-4.756081e-03
1.624072e+02	-4.811151e-03
1.633453e+02	-4.866858e-03
1.642887e+02	-4.923210e-03
1.652377e+02	-4.980214e-03
1.661921e+02	-5.037877e-03
1.671520e+02	-5.096208e-03
1.681175e+02	-5.155214e-03
1.690885e+02	-5.214903e-03
1.700651e+02	-5.275282e-03
1.710474e+02	-5.336360e-03
1.720354e+02	-5.398144e-03
1.730291e+02	-5.460644e-03
1.740285e+02	-5.523866e-03
1.750337e+02	-5.587821e-03
1.760446e+02	-5.652515e-03
1.770615e+02	-5.717957e-03
1.780842e+02	-5.784157e-03
1.791128e+02	-5.851123e-03
1.801473e+02	-5.918863e-03
1.811878e+02	-5.987387e-03
1.822344e+02	-6.056704e-03
1.832870e+02	-6.126823e-03
1.843456e+02	-6.197753e-03
1.854104e+02	-6.269504e-03
1.864813e+02	-6.342085e-03
1.875584e+02	-6.415505e-03
1.886418e+02	-6.489774e-03
1.897313e+02	-6.564903e-03
1.908272e+02	-6.640901e-03
1.919294e+02	-6.717778e-03
1.930380e+02	-6.795544e-03
1.941530e+02	-6.874210e-03
1.952744e+02	-6.953785e-03
1.964023e+02	-7.034281e-03
1.975367e+02	-7.115708e-03
1.986777e+02	-7.198077e-03
1.998252e+02	-7.281399e-03
2.009794e+02	-7.365684e-03
2.021403e+02	-7.450944e-03
2.033078e+02	-7.537190e-03
2.044821e+02	-7.624433e-03
2.056632e+02	-7.712685e-03
2.068511e+02	-7.801958e-03
2.080459e+02	-7.892264e-03
2.092475e+02	-7.983613e-03
2.104561e+02	-8.076019e-03
2.116717e+02	-8.169494e-03
2.128943e+02	-8.264049e-03
2.141240e+02	-8.359698e-03
2.153608e+02	-8.456453e-03
2.166047e+02	-8.554326e-03
2.178558e+02	-8.653331e-03
2.191141e+02	-8.753481e-03
2.203797e+02	-8.854788e-03
2.216526e+02	-8.957267e-03
2.229329e+02	-9.060931e-03
2.242205e+02	-9.165793e-03
2.255156e+02	-9.271868e-03
2.268182e+02	-9.379168e-03
2.281283e+02	-9.487709e-03
2.294459e+02	-9.597505e-03
2.307712e+02	-9.708570e-03
2.321041e+02	-9.820919e-03
2.334447e+02	-9.934566e-03
2.347931e+02	-1.004953e-02
2.361493e+02	-1.016582e-02
2.375133e+02	-1.028345e-02
2.388851e+02	-1.040244e-02
2.402649e+02	-1.052281e-02
2.416527e+02	-1.064457e-02
2.430484e+02	-1.076774e-02
2.444523e+02	-1.089233e-02
2.458642e+02	-1.101836e-02
2.472843e+02	-1.114584e-02
2.487126e+02	-1.127480e-02
2.501492e+02	-1.140525e-02
2.515940e+02	-1.153721e-02
2.530472e+02	-1.167069e-02
2.545088e+02	-1.180571e-02
2.559789e+02	-1.194230e-02
2.574574e+02	-1.208046e-02
2.589444e+02	-1.222022e-02
2.604401e+02	-1.236159e-02
2.619444e+02	-1.250460e-02
2.634574e+02	-1.264925e-02
2.649791e+02	-1.279558e-02
2.665096e+02	-1.294360e-02
2.680489e+02	-1.309333e-02
2.695972e+02	-1.324479e-02
2.711544e+02	-1.339799e-02
2.727205e+02	-1.355297e-02
2.742958e+02	-1.370973e-02
2.758801e+02	-1.386831e-02
2.774736e+02	-1.402872e-02
2.790762e+02	-1.419098e-02
2.806882e+02	-1.435511e-02
2.823094e+02	-1.452114e-02
2.839400e+02	-1.468909e-02
2.855800e+02	-1.485897e-02
2.872295e+02	-1.503082e-02
2.888886e+02	-1.520465e-02
2.905572e+02	-1.538048e-02
2.922354e+02	-1.555835e-02
2.939234e+02	-1.573827e-02
2.956211e+02	-1.592027e-02
2.973286e+02	-1.610436e-02
2.990459e+02	-1.629059e-02
3.007732e+02	-1.647896e-02
3.025104e+02	-1.666950e-02
3.042577e+02	-1.686225e-02
3.060151e+02	-1.705722e-02
3.077826e+02	-1.725443e-02
3.095604e+02	-1.745393e-02
3.113484e+02	-1.765572e-02
3.131467e+02	-1.785985e-02
3.149554e+02	-1.806633e-02
3.167746e+02	-1.827519e-02
3.186043e+02	-1.848646e-02
3.204445e+02	-1.870017e-02
3.222954e+02	-1.891634e-02
3.241570e+02	-1.913501e-02
3.260293e+02	-1.935619e-02
3.279124e+02	-1.957993e-02
3.298064e+02	-1.980625e-02
3.317114e+02	-2.003518e-02
3.336273e+02	-2.026675e-02
3.355544e+02	-2.050099e-02
3.374925e+02	-2.073793e-02
3.394418e+02	-2.097761e-02
3.414024e+02	-2.122004e-02
3.433744e+02	-2.146527e-02
3.453577e+02	-2.171333e-02
3.473525e+02	-2.196424e-02
3.493588e+02	-2.221805e-02
3.513766e+02	-2.247479e-02
3.534062e+02	-2.273448e-02
3.554474e+02	-2.299716e-02
3.575005e+02	-2.326288e-02
3.595654e+02	-2.353165e-02
3.616422e+02	-2.380352e-02
3.637311e+02	-2.407852e-02
3.658320e+02	-2.435670e-02
3.679450e+02	-2.463807e-02
3.700702e+02	-2.492269e-02
3.722077e+02	-2.521058e-02
3.743576e+02	-2.550179e-02
3.765199e+02	-2.579636e-02
3.786946e+02	-2.609432e-02
3.808820e+02	-2.639570e-02
3.830819e+02	-2.670056e-02
3.852946e+02	-2.700893e-02
3.875200e+02	-2.732085e-02
3.897583e+02	-2.763636e-02
3.920096e+02	-2.795550e-02
3.942738e+02	-2.827831e-02
3.965511e+02	-2.860484e-02
3.988416e+02	-2.893513e-02
4.011452e+02	-2.926922e-02
4.034622e+02	-2.960715e-02
4.057926e+02	-2.994897e-02
4.081365e+02	-3.029473e-02
4.104938e+02	-3.064446e-02
4.128648e+02	-3.099821e-02
4.152495e+02	-3.135603e-02
4.176480e+02	-3.171797e-02
4.200603e+02	-3.208407e-02
4.224866e+02	-3.245438e-02
4.249268e+02	-3.282895e-02
4.273812e+02	-3.320782e-02
4.298497e+02	-3.359105e-02
4.323325e+02	-3.397869e-02
4.348297e+02	-3.437078e-02
4.373412e+02	-3.476737e-02
4.398673e+02	-3.516853e-02
4.424079e+02	-3.557429e-02
4.449633e+02	-3.598472e-02
4.475334e+02	-3.639986e-02
4.501183e+02	-3.681977e-02
4.527182e+02	-3.724450e-02
4.553330e+02	-3.767411e-02
4.579630e+02	-3.810866e-02
4.606082e+02	-3.854819e-02
4.632687e+02	-3.899277e-02
4.659445e+02	-3.944246e-02
4.686358e+02	-3.989731e-02
4.713426e+02	-4.035737e-02
4.740650e+02	-4.082272e-02
4.768032e+02	-4.129341e-02
4.795572e+02	-4.176950e-02
4.823271e+02	-4.225105e-02
4.851130e+02	-4.273813e-02
4.879150e+02	-4.323079e-02
4.907332e+02	-4.372911e-02
4.935676e+02	-4.423314e-02
4.964185e+02	-4.474294e-02
4.992858e+02	-4.525860e-02
5.021696e+02	-4.578016e-02
5.050701e+02	-4.630770e-02
5.079874e+02	-4.684129e-02
5.109215e+02	-4.738099e-02
5.138726e+02	-4.792688e-02
5.168407e+02	-4.847902e-02
5.198259e+02	-4.903749e-02
5.228284e+02	-4.960235e-02
5.258482e+02	-5.017368e-02
5.288855e+02	-5.075156e-02
5.319403e+02	-5.133605e-02
5.350128e+02	-5.192723e-02
5.381030e+02	-5.252518e-02
5.412111e+02	-5.312997e-02
5.443371e+02	-5.374168e-02
5.474812e+02	-5.436039e-02
5.506434e+02	-5.498618e-02
5.538239e+02	-5.561912e-02
5.570228e+02	-5.625931e-02
5.602401e+02	-5.690681e-02
5.634760e+02	-5.756172e-02
5.667306e+02	-5.822411e-02
5.700040e+02	-5.889408e-02
5.732964e+02	-5.957170e-02
5.766077e+02	-6.025706e-02
5.799382e+02	-6.095025e-02
5.832879e+02	-6.165136e-02
5.866569e+02	-6.236048e-02
5.900454e+02	-6.307769e-02
5.934535e+02	-6.380309e-02
5.968813e+02	-6.453677e-02
6.003288e+02	-6.527883e-02
6.037963e+02	-6.602935e-02
6.072838e+02	-6.678843e-02
6.107914e+02	-6.755617e-02
6.143194e+02	-6.833267e-02
6.178676e+02	-6.911802e-02
6.214364e+02	-6.991233e-02
6.250258e+02	-7.071568e-02
6.286359e+02	-7.152820e-02
6.322669e+02	-7.234997e-02
6.359189e+02	-7.318110e-02
6.395919e+02	-7.402170e-02
6.432862e+02	-7.487187e-02
6.470017e+02	-7.573172e-02
6.507388e+02	-7.660136e-02
6.544974e+02	-7.748089e-02
6.582778e+02	-7.837043e-02
6.620800e+02	-7.927010e-02
6.659041e+02	-8.017999e-02
6.697504e+02	-8.110023e-02
6.736188e+02	-8.203093e-02
6.775096e+02	-8.297221e-02
6.814229e+02	-8.392418e-02
6.853587e+02	-8.488698e-02
6.893173e+02	-8.586070e-02
6.932988e+02	-8.684549e-02
6.973033e+02	-8.784145e-02
7.013309e+02	-8.884872e-02
