Frequency(Hz)	Magnitude(dB)
1.000000e+01	-1.636505e-05
1.005776e+01	-1.655465e-05
1.011585e+01	-1.674644e-05
1.017428e+01	-1.694045e-05
1.023305e+01	-1.713671e-05
1.029215e+01	-1.733524e-05
1.035160e+01	-1.753608e-05
1.041139e+01	-1.773924e-05
1.047153e+01	-1.794475e-05
1.053201e+01	-1.815264e-05
1.059284e+01	-1.836295e-05
1.065403e+01	-1.857569e-05
1.071556e+01	-1.879089e-05
1.077746e+01	-1.900859e-05
1.083971e+01	-1.922881e-05
1.090232e+01	-1.945158e-05
1.096529e+01	-1.967693e-05
1.102862e+01	-1.990489e-05
1.109232e+01	-2.013549e-05
1.115639e+01	-2.036877e-05
1.122083e+01	-2.060475e-05
1.128564e+01	-2.084346e-05
1.135083e+01	-2.108493e-05
1.141639e+01	-2.132921e-05
1.148233e+01	-2.157631e-05
1.154865e+01	-2.182628e-05
1.161536e+01	-2.207914e-05
1.168245e+01	-2.233493e-05
1.174992e+01	-2.259369e-05
1.181779e+01	-2.285544e-05
1.188605e+01	-2.312023e-05
1.195470e+01	-2.338808e-05
1.202375e+01	-2.365904e-05
1.209320e+01	-2.393314e-05
1.216305e+01	-2.421041e-05
1.223330e+01	-2.449089e-05
1.230396e+01	-2.477462e-05
1.237503e+01	-2.506164e-05
1.244651e+01	-2.535199e-05
1.251840e+01	-2.564570e-05
1.259070e+01	-2.594281e-05
1.266343e+01	-2.624336e-05
1.273657e+01	-2.654740e-05
1.281014e+01	-2.685496e-05
1.288413e+01	-2.716608e-05
1.295855e+01	-2.748081e-05
1.303339e+01	-2.779918e-05
1.310867e+01	-2.812124e-05
1.318439e+01	-2.844703e-05
1.326054e+01	-2.877659e-05
1.333713e+01	-2.910998e-05
1.341417e+01	-2.944722e-05
1.349165e+01	-2.978838e-05
1.356958e+01	-3.013348e-05
1.364795e+01	-3.048259e-05
1.372678e+01	-3.083573e-05
1.380607e+01	-3.119297e-05
1.388581e+01	-3.155435e-05
1.396602e+01	-3.191992e-05
1.404668e+01	-3.228972e-05
1.412782e+01	-3.266380e-05
1.420942e+01	-3.304222e-05
1.429149e+01	-3.342502e-05
1.437404e+01	-3.381226e-05
1.445706e+01	-3.420398e-05
1.454057e+01	-3.460024e-05
1.462455e+01	-3.500109e-05
1.470902e+01	-3.540659e-05
1.479398e+01	-3.581678e-05
1.487943e+01	-3.623173e-05
1.496537e+01	-3.665148e-05
1.505181e+01	-3.707610e-05
1.513875e+01	-3.750563e-05
1.522619e+01	-3.794014e-05
1.531414e+01	-3.837969e-05
1.540259e+01	-3.882433e-05
1.549156e+01	-3.927411e-05
1.558103e+01	-3.972911e-05
1.567103e+01	-4.018938e-05
1.576155e+01	-4.065499e-05
1.585258e+01	-4.112598e-05
1.594415e+01	-4.160244e-05
1.603624e+01	-4.208441e-05
1.612886e+01	-4.257197e-05
1.622202e+01	-4.306518e-05
1.631572e+01	-4.356409e-05
1.640996e+01	-4.406879e-05
1.650474e+01	-4.457934e-05
1.660008e+01	-4.509580e-05
1.669596e+01	-4.561825e-05
1.679239e+01	-4.614674e-05
1.688938e+01	-4.668136e-05
1.698694e+01	-4.722218e-05
1.708505e+01	-4.776926e-05
1.718373e+01	-4.832267e-05
1.728299e+01	-4.888250e-05
1.738281e+01	-4.944882e-05
1.748322e+01	-5.002169e-05
1.758420e+01	-5.060120e-05
1.768576e+01	-5.118743e-05
1.778792e+01	-5.178045e-05
1.789066e+01	-5.238033e-05
1.799399e+01	-5.298717e-05
1.809793e+01	-5.360104e-05
1.820246e+01	-5.422202e-05
1.830760e+01	-5.485019e-05
1.841334e+01	-5.548564e-05
1.851969e+01	-5.612846e-05
1.862666e+01	-5.677872e-05
1.873425e+01	-5.743651e-05
1.884246e+01	-5.810192e-05
1.895129e+01	-5.877504e-05
1.906075e+01	-5.945596e-05
1.917085e+01	-6.014477e-05
1.928158e+01	-6.084156e-05
1.939295e+01	-6.154642e-05
1.950496e+01	-6.225945e-05
1.961762e+01	-6.298074e-05
1.973093e+01	-6.371038e-05
1.984490e+01	-6.444848e-05
1.995952e+01	-6.519513e-05
2.007480e+01	-6.595043e-05
2.019076e+01	-6.671448e-05
2.030738e+01	-6.748738e-05
2.042467e+01	-6.826923e-05
2.054264e+01	-6.906014e-05
2.066130e+01	-6.986022e-05
2.078064e+01	-7.066956e-05
2.090066e+01	-7.148828e-05
2.102139e+01	-7.231648e-05
2.114280e+01	-7.315428e-05
2.126492e+01	-7.400179e-05
2.138775e+01	-7.485911e-05
2.151128e+01	-7.572637e-05
2.163553e+01	-7.660367e-05
2.176050e+01	-7.749114e-05
2.188619e+01	-7.838889e-05
2.201260e+01	-7.929704e-05
2.213974e+01	-8.021571e-05
2.226762e+01	-8.114502e-05
2.239624e+01	-8.208510e-05
2.252560e+01	-8.303607e-05
2.265571e+01	-8.399806e-05
2.278656e+01	-8.497119e-05
2.291818e+01	-8.595559e-05
2.305055e+01	-8.695140e-05
2.318369e+01	-8.795875e-05
2.331760e+01	-8.897776e-05
2.345228e+01	-9.000859e-05
2.358774e+01	-9.105135e-05
2.372398e+01	-9.210619e-05
2.386101e+01	-9.317326e-05
2.399883e+01	-9.425268e-05
2.413745e+01	-9.534462e-05
2.427686e+01	-9.644920e-05
2.441709e+01	-9.756658e-05
2.455812e+01	-9.869690e-05
2.469997e+01	-9.984032e-05
2.484263e+01	-1.009970e-04
2.498612e+01	-1.021670e-04
2.513044e+01	-1.033507e-04
2.527559e+01	-1.045480e-04
2.542158e+01	-1.057592e-04
2.556842e+01	-1.069844e-04
2.571610e+01	-1.082239e-04
2.586463e+01	-1.094777e-04
2.601403e+01	-1.107460e-04
2.616428e+01	-1.120290e-04
2.631541e+01	-1.133268e-04
2.646740e+01	-1.146397e-04
2.662028e+01	-1.159679e-04
2.677404e+01	-1.173114e-04
2.692868e+01	-1.186704e-04
2.708422e+01	-1.200452e-04
2.724066e+01	-1.214360e-04
2.739800e+01	-1.228428e-04
2.755625e+01	-1.242660e-04
2.771541e+01	-1.257056e-04
2.787550e+01	-1.271619e-04
2.803650e+01	-1.286351e-04
2.819844e+01	-1.301254e-04
2.836131e+01	-1.316329e-04
2.852513e+01	-1.331579e-04
2.868989e+01	-1.347005e-04
2.885560e+01	-1.362610e-04
2.902227e+01	-1.378396e-04
2.918990e+01	-1.394365e-04
2.935850e+01	-1.410519e-04
2.952807e+01	-1.426860e-04
2.969863e+01	-1.443390e-04
2.987016e+01	-1.460112e-04
3.004269e+01	-1.477028e-04
3.021622e+01	-1.494139e-04
3.039075e+01	-1.511449e-04
3.056628e+01	-1.528959e-04
3.074283e+01	-1.546672e-04
3.092040e+01	-1.564590e-04
3.109900e+01	-1.582716e-04
3.127862e+01	-1.601052e-04
3.145929e+01	-1.619600e-04
3.164099e+01	-1.638364e-04
3.182375e+01	-1.657344e-04
3.200756e+01	-1.676545e-04
3.219244e+01	-1.695967e-04
3.237838e+01	-1.715615e-04
3.256540e+01	-1.735491e-04
3.275349e+01	-1.755597e-04
3.294268e+01	-1.775935e-04
3.313295e+01	-1.796509e-04
3.332433e+01	-1.817322e-04
3.351681e+01	-1.838376e-04
3.371040e+01	-1.859673e-04
3.390511e+01	-1.881218e-04
3.410094e+01	-1.903012e-04
3.429791e+01	-1.925058e-04
3.449601e+01	-1.947360e-04
3.469526e+01	-1.969920e-04
3.489566e+01	-1.992742e-04
3.509721e+01	-2.015828e-04
3.529993e+01	-2.039181e-04
3.550382e+01	-2.062805e-04
3.570889e+01	-2.086703e-04
3.591515e+01	-2.110877e-04
3.612259e+01	-2.135332e-04
3.633123e+01	-2.160069e-04
3.654108e+01	-2.185094e-04
3.675214e+01	-2.210408e-04
3.696442e+01	-2.236016e-04
3.717792e+01	-2.261920e-04
3.739266e+01	-2.288124e-04
3.760864e+01	-2.314632e-04
3.782587e+01	-2.341447e-04
3.804435e+01	-2.368572e-04
3.826409e+01	-2.396012e-04
3.848510e+01	-2.423770e-04
3.870739e+01	-2.451849e-04
3.893096e+01	-2.480254e-04
3.915583e+01	-2.508987e-04
3.938199e+01	-2.538054e-04
3.960946e+01	-2.567457e-04
3.983824e+01	-2.597201e-04
4.006834e+01	-2.627289e-04
4.029978e+01	-2.657726e-04
4.053255e+01	-2.688516e-04
4.076666e+01	-2.719662e-04
4.100213e+01	-2.751169e-04
4.123896e+01	-2.783041e-04
4.147715e+01	-2.815282e-04
4.171672e+01	-2.847897e-04
4.195767e+01	-2.880890e-04
4.220002e+01	-2.914264e-04
4.244377e+01	-2.948026e-04
4.268892e+01	-2.982178e-04
4.293549e+01	-3.016726e-04
4.318348e+01	-3.051675e-04
4.343291e+01	-3.087028e-04
4.368377e+01	-3.122791e-04
4.393609e+01	-3.158968e-04
4.418986e+01	-3.195564e-04
4.444510e+01	-3.232584e-04
4.470182e+01	-3.270033e-04
4.496001e+01	-3.307916e-04
4.521970e+01	-3.346238e-04
4.548089e+01	-3.385003e-04
4.574358e+01	-3.424218e-04
4.600779e+01	-3.463887e-04
4.627353e+01	-3.504015e-04
4.654081e+01	-3.544609e-04
4.680963e+01	-3.585672e-04
4.708000e+01	-3.627211e-04
4.735193e+01	-3.669232e-04
4.762543e+01	-3.711739e-04
4.790051e+01	-3.754739e-04
4.817719e+01	-3.798237e-04
4.845545e+01	-3.842238e-04
4.873533e+01	-3.886750e-04
4.901682e+01	-3.931777e-04
4.929994e+01	-3.977325e-04
4.958470e+01	-4.023402e-04
4.987110e+01	-4.070012e-04
5.015915e+01	-4.117162e-04
5.044887e+01	-4.164858e-04
5.074026e+01	-4.213107e-04
5.103333e+01	-4.261914e-04
5.132810e+01	-4.311287e-04
5.162457e+01	-4.361232e-04
5.192275e+01	-4.411756e-04
5.222265e+01	-4.462864e-04
5.252429e+01	-4.514565e-04
5.282767e+01	-4.566865e-04
5.313280e+01	-4.619771e-04
5.343969e+01	-4.673289e-04
5.374836e+01	-4.727427e-04
5.405880e+01	-4.782193e-04
5.437105e+01	-4.837593e-04
5.468509e+01	-4.893635e-04
5.500095e+01	-4.950326e-04
5.531863e+01	-5.007673e-04
5.563815e+01	-5.065685e-04
5.595951e+01	-5.124369e-04
5.628273e+01	-5.183733e-04
5.660782e+01	-5.243784e-04
5.693479e+01	-5.304531e-04
5.726364e+01	-5.365982e-04
5.759439e+01	-5.428144e-04
5.792705e+01	-5.491027e-04
5.826164e+01	-5.554638e-04
5.859815e+01	-5.618985e-04
5.893662e+01	-5.684079e-04
5.927703e+01	-5.749926e-04
5.961941e+01	-5.816536e-04
5.996377e+01	-5.883918e-04
6.031012e+01	-5.952080e-04
6.065847e+01	-6.021031e-04
6.100883e+01	-6.090782e-04
6.136121e+01	-6.161340e-04
6.171563e+01	-6.232716e-04
6.207210e+01	-6.304918e-04
6.243063e+01	-6.377957e-04
6.279122e+01	-6.451842e-04
6.315390e+01	-6.526583e-04
6.351868e+01	-6.602189e-04
6.388556e+01	-6.678672e-04
6.425456e+01	-6.756040e-04
6.462569e+01	-6.834304e-04
6.499897e+01	-6.913475e-04
6.537440e+01	-6.993563e-04
6.575200e+01	-7.074579e-04
6.613178e+01	-7.156533e-04
6.651375e+01	-7.239437e-04
6.689793e+01	-7.323301e-04
6.728433e+01	-7.408136e-04
6.767297e+01	-7.493954e-04
6.806384e+01	-7.580766e-04
6.845698e+01	-7.668583e-04
6.885238e+01	-7.757418e-04
6.925007e+01	-7.847282e-04
6.965005e+01	-7.938186e-04
7.005235e+01	-8.030144e-04
7.045697e+01	-8.123167e-04
7.086393e+01	-8.217267e-04
7.127323e+01	-8.312457e-04
7.168490e+01	-8.408750e-04
7.209895e+01	-8.506158e-04
7.251539e+01	-8.604694e-04
7.293424e+01	-8.704372e-04
7.335551e+01	-8.805204e-04
7.377920e+01	-8.907204e-04
7.420535e+01	-9.010386e-04
7.463396e+01	-9.114763e-04
7.506504e+01	-9.220349e-04
7.549861e+01	-9.327158e-04
7.593469e+01	-9.435204e-04
7.637328e+01	-9.544501e-04
7.681441e+01	-9.655064e-04
7.725809e+01	-9.766908e-04
7.770433e+01	-9.880048e-04
7.815315e+01	-9.994498e-04
7.860456e+01	-1.011027e-03
7.905857e+01	-1.022739e-03
7.951521e+01	-1.034586e-03
7.997449e+01	-1.046571e-03
8.043642e+01	-1.058694e-03
8.090102e+01	-1.070958e-03
8.136830e+01	-1.083364e-03
8.183828e+01	-1.095913e-03
8.231097e+01	-1.108608e-03
8.278640e+01	-1.121450e-03
8.326457e+01	-1.134440e-03
8.374550e+01	-1.147581e-03
8.422921e+01	-1.160875e-03
8.471572e+01	-1.174322e-03
8.520503e+01	-1.187925e-03
8.569717e+01	-1.201685e-03
8.619215e+01	-1.215605e-03
8.669000e+01	-1.229687e-03
8.719071e+01	-1.243931e-03
8.769432e+01	-1.258340e-03
8.820084e+01	-1.272916e-03
8.871029e+01	-1.287661e-03
8.922267e+01	-1.302577e-03
8.973802e+01	-1.317665e-03
9.025634e+01	-1.332928e-03
9.077766e+01	-1.348368e-03
9.130199e+01	-1.363987e-03
9.182935e+01	-1.379786e-03
9.235975e+01	-1.395769e-03
9.289321e+01	-1.411937e-03
9.342976e+01	-1.428292e-03
9.396941e+01	-1.444836e-03
9.451217e+01	-1.461572e-03
9.505807e+01	-1.478502e-03
9.560712e+01	-1.495628e-03
9.615934e+01	-1.512952e-03
9.671476e+01	-1.530477e-03
9.727338e+01	-1.548205e-03
9.783522e+01	-1.566138e-03
9.840032e+01	-1.584279e-03
9.896867e+01	-1.602630e-03
9.954031e+01	-1.621193e-03
1.001153e+02	-1.639972e-03
1.006935e+02	-1.658967e-03
1.012751e+02	-1.678183e-03
1.018601e+02	-1.697622e-03
1.024484e+02	-1.717285e-03
1.030402e+02	-1.737176e-03
1.036353e+02	-1.757298e-03
1.042339e+02	-1.777653e-03
1.048360e+02	-1.798243e-03
1.054415e+02	-1.819072e-03
1.060505e+02	-1.840142e-03
1.066631e+02	-1.861456e-03
1.072791e+02	-1.883016e-03
1.078988e+02	-1.904827e-03
1.085220e+02	-1.926890e-03
1.091488e+02	-1.949208e-03
1.097793e+02	-1.971785e-03
1.104133e+02	-1.994624e-03
1.110511e+02	-2.017727e-03
1.116925e+02	-2.041097e-03
1.123376e+02	-2.064738e-03
1.129865e+02	-2.088653e-03
1.136391e+02	-2.112845e-03
1.142955e+02	-2.137316e-03
1.149556e+02	-2.162072e-03
1.156196e+02	-2.187114e-03
1.162874e+02	-2.212445e-03
1.169591e+02	-2.238071e-03
1.176347e+02	-2.263992e-03
1.183141e+02	-2.290214e-03
1.189975e+02	-2.316740e-03
1.196848e+02	-2.343573e-03
1.203761e+02	-2.370716e-03
1.210714e+02	-2.398174e-03
1.217707e+02	-2.425950e-03
1.224740e+02	-2.454047e-03
1.231814e+02	-2.482470e-03
1.238929e+02	-2.511222e-03
1.246085e+02	-2.540306e-03
1.253283e+02	-2.569728e-03
1.260522e+02	-2.599490e-03
1.267802e+02	-2.629596e-03
1.275125e+02	-2.660052e-03
1.282490e+02	-2.690859e-03
1.289898e+02	-2.722024e-03
1.297348e+02	-2.753549e-03
1.304842e+02	-2.785440e-03
1.312378e+02	-2.817699e-03
1.319959e+02	-2.850332e-03
1.327583e+02	-2.883343e-03
1.335251e+02	-2.916736e-03
1.342963e+02	-2.950516e-03
1.350720e+02	-2.984687e-03
1.358522e+02	-3.019253e-03
1.366368e+02	-3.054220e-03
1.374260e+02	-3.089591e-03
1.382198e+02	-3.125372e-03
1.390182e+02	-3.161567e-03
1.398211e+02	-3.198181e-03
1.406287e+02	-3.235219e-03
1.414410e+02	-3.272686e-03
1.422579e+02	-3.310586e-03
1.430796e+02	-3.348925e-03
1.439060e+02	-3.387708e-03
1.447372e+02	-3.426940e-03
1.455732e+02	-3.466626e-03
1.464141e+02	-3.506772e-03
1.472597e+02	-3.547382e-03
1.481103e+02	-3.588462e-03
1.489658e+02	-3.630018e-03
1.498262e+02	-3.672055e-03
1.506916e+02	-3.714579e-03
1.515620e+02	-3.757594e-03
1.524374e+02	-3.801108e-03
1.533179e+02	-3.845125e-03
1.542034e+02	-3.889652e-03
1.550941e+02	-3.934694e-03
1.559899e+02	-3.980258e-03
1.568909e+02	-4.026349e-03
1.577971e+02	-4.072973e-03
1.587085e+02	-4.120137e-03
1.596252e+02	-4.167847e-03
1.605472e+02	-4.216109e-03
1.614745e+02	-4.264930e-03
1.624072e+02	-4.314316e-03
1.633453e+02	-4.364273e-03
1.642887e+02	-4.414808e-03
1.652377e+02	-4.465929e-03
1.661921e+02	-4.517641e-03
1.671520e+02	-4.569951e-03
1.681175e+02	-4.622867e-03
1.690885e+02	-4.676395e-03
1.700651e+02	-4.730543e-03
1.710474e+02	-4.785317e-03
1.720354e+02	-4.840726e-03
1.730291e+02	-4.896775e-03
1.740285e+02	-4.953473e-03
1.750337e+02	-5.010827e-03
1.760446e+02	-5.068845e-03
1.770615e+02	-5.127534e-03
1.780842e+02	-5.186902e-03
1.791128e+02	-5.246957e-03
1.801473e+02	-5.307707e-03
1.811878e+02	-5.369161e-03
1.822344e+02	-5.431325e-03
1.832870e+02	-5.494208e-03
1.843456e+02	-5.557819e-03
1.854104e+02	-5.622166e-03
1.864813e+02	-5.687258e-03
1.875584e+02	-5.753102e-03
1.886418e+02	-5.819709e-03
1.897313e+02	-5.887086e-03
1.908272e+02	-5.955242e-03
1.919294e+02	-6.024187e-03
1.930380e+02	-6.093930e-03
1.941530e+02	-6.164479e-03
1.952744e+02	-6.235845e-03
1.964023e+02	-6.308036e-03
1.975367e+02	-6.381063e-03
1.986777e+02	-6.454934e-03
1.998252e+02	-6.529660e-03
2.009794e+02	-6.605250e-03
2.021403e+02	-6.681714e-03
2.033078e+02	-6.759063e-03
2.044821e+02	-6.837307e-03
2.056632e+02	-6.916456e-03
2.068511e+02	-6.996520e-03
2.080459e+02	-7.077510e-03
2.092475e+02	-7.159437e-03
2.104561e+02	-7.242312e-03
2.116717e+02	-7.326145e-03
2.128943e+02	-7.410947e-03
2.141240e+02	-7.496731e-03
2.153608e+02	-7.583506e-03
2.166047e+02	-7.671285e-03
2.178558e+02	-7.760080e-03
2.191141e+02	-7.849901e-03
2.203797e+02	-7.940760e-03
2.216526e+02	-8.032671e-03
2.229329e+02	-8.125644e-03
2.242205e+02	-8.219692e-03
2.255156e+02	-8.314828e-03
2.268182e+02	-8.411064e-03
2.281283e+02	-8.508413e-03
2.294459e+02	-8.606887e-03
2.307712e+02	-8.706499e-03
2.321041e+02	-8.807264e-03
2.334447e+02	-8.909193e-03
2.347931e+02	-9.012301e-03
2.361493e+02	-9.116601e-03
2.375133e+02	-9.222107e-03
2.388851e+02	-9.328832e-03
2.402649e+02	-9.436791e-03
2.416527e+02	-9.545998e-03
2.430484e+02	-9.656468e-03
2.444523e+02	-9.768214e-03
2.458642e+02	-9.881252e-03
2.472843e+02	-9.995597e-03
2.487126e+02	-1.011126e-02
2.501492e+02	-1.022827e-02
2.515940e+02	-1.034662e-02
2.530472e+02	-1.046635e-02
2.545088e+02	-1.058745e-02
2.559789e+02	-1.070996e-02
2.574574e+02	-1.083388e-02
2.589444e+02	-1.095924e-02
2.604401e+02	-1.108604e-02
2.619444e+02	-1.121431e-02
2.634574e+02	-1.134406e-02
2.649791e+02	-1.147531e-02
2.665096e+02	-1.160807e-02
2.680489e+02	-1.174237e-02
2.695972e+02	-1.187823e-02
2.711544e+02	-1.201565e-02
2.727205e+02	-1.215466e-02
2.742958e+02	-1.229527e-02
2.758801e+02	-1.243751e-02
2.774736e+02	-1.258139e-02
2.790762e+02	-1.272694e-02
2.806882e+02	-1.287416e-02
2.823094e+02	-1.302309e-02
2.839400e+02	-1.317373e-02
2.855800e+02	-1.332612e-02
2.872295e+02	-1.348027e-02
2.888886e+02	-1.363619e-02
2.905572e+02	-1.379392e-02
2.922354e+02	-1.395347e-02
2.939234e+02	-1.411486e-02
2.956211e+02	-1.427811e-02
2.973286e+02	-1.444325e-02
2.990459e+02	-1.461030e-02
3.007732e+02	-1.477927e-02
3.025104e+02	-1.495020e-02
3.042577e+02	-1.512310e-02
3.060151e+02	-1.529800e-02
3.077826e+02	-1.547491e-02
3.095604e+02	-1.565387e-02
3.113484e+02	-1.583489e-02
3.131467e+02	-1.601800e-02
3.149554e+02	-1.620323e-02
3.167746e+02	-1.639059e-02
3.186043e+02	-1.658011e-02
3.204445e+02	-1.677183e-02
3.222954e+02	-1.696575e-02
3.241570e+02	-1.716192e-02
3.260293e+02	-1.736034e-02
3.279124e+02	-1.756106e-02
3.298064e+02	-1.776409e-02
3.317114e+02	-1.796946e-02
3.336273e+02	-1.817721e-02
3.355544e+02	-1.838735e-02
3.374925e+02	-1.859991e-02
3.394418e+02	-1.881493e-02
3.414024e+02	-1.903243e-02
3.433744e+02	-1.925243e-02
3.453577e+02	-1.947497e-02
3.473525e+02	-1.970008e-02
3.493588e+02	-1.992779e-02
3.513766e+02	-2.015812e-02
3.534062e+02	-2.039111e-02
3.554474e+02	-2.062678e-02
3.575005e+02	-2.086517e-02
3.595654e+02	-2.110631e-02
3.616422e+02	-2.135023e-02
3.637311e+02	-2.159696e-02
3.658320e+02	-2.184653e-02
3.679450e+02	-2.209898e-02
3.700702e+02	-2.235435e-02
3.722077e+02	-2.261265e-02
3.743576e+02	-2.287393e-02
3.765199e+02	-2.313822e-02
3.786946e+02	-2.340556e-02
3.808820e+02	-2.367598e-02
3.830819e+02	-2.394951e-02
3.852946e+02	-2.422620e-02
3.875200e+02	-2.450607e-02
3.897583e+02	-2.478917e-02
3.920096e+02	-2.507552e-02
3.942738e+02	-2.536518e-02
3.965511e+02	-2.565817e-02
3.988416e+02	-2.595454e-02
4.011452e+02	-2.625432e-02
4.034622e+02	-2.655755e-02
4.057926e+02	-2.686427e-02
4.081365e+02	-2.717452e-02
4.104938e+02	-2.748834e-02
4.128648e+02	-2.780578e-02
4.152495e+02	-2.812687e-02
4.176480e+02	-2.845166e-02
4.200603e+02	-2.878018e-02
4.224866e+02	-2.911249e-02
4.249268e+02	-2.944862e-02
4.273812e+02	-2.978861e-02
4.298497e+02	-3.013252e-02
4.323325e+02	-3.048039e-02
4.348297e+02	-3.083225e-02
4.373412e+02	-3.118817e-02
4.398673e+02	-3.154817e-02
4.424079e+02	-3.191232e-02
4.449633e+02	-3.228065e-02
4.475334e+02	-3.265322e-02
4.501183e+02	-3.303008e-02
4.527182e+02	-3.341126e-02
4.553330e+02	-3.379683e-02
4.579630e+02	-3.418683e-02
4.606082e+02	-3.458131e-02
4.632687e+02	-3.498033e-02
4.659445e+02	-3.538393e-02
4.686358e+02	-3.579217e-02
4.713426e+02	-3.620510e-02
4.740650e+02	-3.662277e-02
4.768032e+02	-3.704524e-02
4.795572e+02	-3.747256e-02
4.823271e+02	-3.790479e-02
4.851130e+02	-3.834199e-02
4.879150e+02	-3.878420e-02
4.907332e+02	-3.923149e-02
4.935676e+02	-3.968392e-02
4.964185e+02	-4.014154e-02
4.992858e+02	-4.060441e-02
5.021696e+02	-4.107259e-02
5.050701e+02	-4.154615e-02
5.079874e+02	-4.202514e-02
5.109215e+02	-4.250962e-02
5.138726e+02	-4.299966e-02
5.168407e+02	-4.349533e-02
5.198259e+02	-4.399667e-02
5.228284e+02	-4.450377e-02
5.258482e+02	-4.501668e-02
5.288855e+02	-4.553547e-02
5.319403e+02	-4.606021e-02
5.350128e+02	-4.659096e-02
5.381030e+02	-4.712779e-02
5.412111e+02	-4.767078e-02
5.443371e+02	-4.821999e-02
5.474812e+02	-4.877549e-02
5.506434e+02	-4.933735e-02
5.538239e+02	-4.990564e-02
5.570228e+02	-5.048045e-02
5.602401e+02	-5.106183e-02
5.634760e+02	-5.164988e-02
5.667306e+02	-5.224465e-02
5.700040e+02	-5.284623e-02
5.732964e+02	-5.345469e-02
5.766077e+02	-5.407012e-02
5.799382e+02	-5.469259e-02
5.832879e+02	-5.532217e-02
5.866569e+02	-5.595896e-02
5.900454e+02	-5.660303e-02
5.934535e+02	-5.725446e-02
5.968813e+02	-5.791335e-02
6.003288e+02	-5.857976e-02
6.037963e+02	-5.925378e-02
6.072838e+02	-5.993551e-02
6.107914e+02	-6.062503e-02
6.143194e+02	-6.132243e-02
6.178676e+02	-6.202779e-02
6.214364e+02	-6.274120e-02
6.250258e+02	-6.346276e-02
6.286359e+02	-6.419255e-02
6.322669e+02	-6.493068e-02
6.359189e+02	-6.567723e-02
6.395919e+02	-6.643229e-02
6.432862e+02	-6.719597e-02
6.470017e+02	-6.796836e-02
6.507388e+02	-6.874956e-02
6.544974e+02	-6.953966e-02
6.582778e+02	-7.033877e-02
6.620800e+02	-7.114699e-02
6.659041e+02	-7.196442e-02
6.697504e+02	-7.279116e-02
6.736188e+02	-7.362731e-02
6.775096e+02	-7.447299e-02
6.814229e+02	-7.532830e-02
6.853587e+02	-7.619334e-02
6.893173e+02	-7.706823e-02
6.932988e+02	-7.795308e-02
6.973033e+02	-7.884799e-02
7.013309e+02	-7.975308e-02
