Frequency(Hz)	Magnitude(dB)
1.000000e+01	-2.323352e+00
1.005776e+01	-2.344078e+00
1.011585e+01	-2.365290e+00
1.017428e+01	-2.385951e+00
1.023305e+01	-2.407461e+00
1.029215e+01	-2.428573e+00
1.035160e+01	-2.450155e+00
1.041139e+01	-2.471611e+00
1.047153e+01	-2.493477e+00
1.053201e+01	-2.515524e+00
1.059284e+01	-2.537633e+00
1.065403e+01	-2.559603e+00
1.071556e+01	-2.582058e+00
1.077746e+01	-2.604797e+00
1.083971e+01	-2.627209e+00
1.090232e+01	-2.650233e+00
1.096529e+01	-2.673038e+00
1.102862e+01	-2.696160e+00
1.109232e+01	-2.719101e+00
1.115639e+01	-2.742553e+00
1.122083e+01	-2.765948e+00
1.128564e+01	-2.789637e+00
1.135083e+01	-2.813590e+00
1.141639e+01	-2.837348e+00
1.148233e+01	-2.861590e+00
1.154865e+01	-2.885796e+00
1.161536e+01	-2.909884e+00
1.168245e+01	-2.934496e+00
1.174992e+01	-2.958998e+00
1.181779e+01	-2.984100e+00
1.188605e+01	-3.009252e+00
1.195470e+01	-3.033853e+00
1.202375e+01	-3.059133e+00
1.209320e+01	-3.084479e+00
1.216305e+01	-3.110058e+00
1.223330e+01	-3.135760e+00
1.230396e+01	-3.161454e+00
1.237503e+01	-3.187591e+00
1.244651e+01	-3.213575e+00
1.251840e+01	-3.239748e+00
1.259070e+01	-3.266073e+00
1.266343e+01	-3.292583e+00
1.273657e+01	-3.319430e+00
1.281014e+01	-3.346417e+00
1.288413e+01	-3.373171e+00
1.295855e+01	-3.400241e+00
1.303339e+01	-3.427413e+00
1.310867e+01	-3.454742e+00
1.318439e+01	-3.482157e+00
1.326054e+01	-3.509974e+00
1.333713e+01	-3.537992e+00
1.341417e+01	-3.565984e+00
1.349165e+01	-3.594004e+00
1.356958e+01	-3.621938e+00
1.364795e+01	-3.650370e+00
1.372678e+01	-3.678950e+00
1.380607e+01	-3.707666e+00
1.388581e+01	-3.736365e+00
1.396602e+01	-3.765247e+00
1.404668e+01	-3.794154e+00
1.412782e+01	-3.823374e+00
1.420942e+01	-3.852892e+00
1.429149e+01	-3.882248e+00
1.437404e+01	-3.912126e+00
1.445706e+01	-3.941706e+00
1.454057e+01	-3.972011e+00
1.462455e+01	-4.001768e+00
1.470902e+01	-4.032075e+00
1.479398e+01	-4.062291e+00
1.487943e+01	-4.093020e+00
1.496537e+01	-4.123446e+00
1.505181e+01	-4.154093e+00
1.513875e+01	-4.184986e+00
1.522619e+01	-4.215912e+00
1.531414e+01	-4.247134e+00
1.540259e+01	-4.278590e+00
1.549156e+01	-4.309808e+00
1.558103e+01	-4.341309e+00
1.567103e+01	-4.373008e+00
1.576155e+01	-4.404811e+00
1.585258e+01	-4.436757e+00
1.594415e+01	-4.468898e+00
1.603624e+01	-4.501257e+00
1.612886e+01	-4.533516e+00
1.622202e+01	-4.565836e+00
1.631572e+01	-4.598439e+00
1.640996e+01	-4.631092e+00
1.650474e+01	-4.664268e+00
1.660008e+01	-4.696982e+00
1.669596e+01	-4.730291e+00
1.679239e+01	-4.763576e+00
1.688938e+01	-4.796982e+00
1.698694e+01	-4.830349e+00
1.708505e+01	-4.863954e+00
1.718373e+01	-4.897824e+00
1.728299e+01	-4.931586e+00
1.738281e+01	-4.965760e+00
1.748322e+01	-4.999967e+00
1.758420e+01	-5.034022e+00
1.768576e+01	-5.068611e+00
1.778792e+01	-5.102687e+00
1.789066e+01	-5.137366e+00
1.799399e+01	-5.172469e+00
1.809793e+01	-5.207295e+00
1.820246e+01	-5.242346e+00
1.830760e+01	-5.277595e+00
1.841334e+01	-5.312740e+00
1.851969e+01	-5.347993e+00
1.862666e+01	-5.383627e+00
1.873425e+01	-5.419010e+00
1.884246e+01	-5.454740e+00
1.895129e+01	-5.490890e+00
1.906075e+01	-5.526747e+00
1.917085e+01	-5.562603e+00
1.928158e+01	-5.599016e+00
1.939295e+01	-5.635336e+00
1.950496e+01	-5.671684e+00
1.961762e+01	-5.707985e+00
1.973093e+01	-5.744895e+00
1.984490e+01	-5.781642e+00
1.995952e+01	-5.818682e+00
2.007480e+01	-5.855605e+00
2.019076e+01	-5.892348e+00
2.030738e+01	-5.929884e+00
2.042467e+01	-5.966775e+00
2.054264e+01	-6.004433e+00
2.066130e+01	-6.042028e+00
2.078064e+01	-6.079703e+00
2.090066e+01	-6.117419e+00
2.102139e+01	-6.155195e+00
2.114280e+01	-6.193020e+00
2.126492e+01	-6.231034e+00
2.138775e+01	-6.269629e+00
2.151128e+01	-6.307534e+00
2.163553e+01	-6.345796e+00
2.176050e+01	-6.384342e+00
2.188619e+01	-6.422797e+00
2.201260e+01	-6.461556e+00
2.213974e+01	-6.500698e+00
2.226762e+01	-6.539409e+00
2.239624e+01	-6.578451e+00
2.252560e+01	-6.617394e+00
2.265571e+01	-6.656636e+00
2.278656e+01	-6.695556e+00
2.291818e+01	-6.735338e+00
2.305055e+01	-6.774778e+00
2.318369e+01	-6.814642e+00
2.331760e+01	-6.853832e+00
2.345228e+01	-6.893433e+00
2.358774e+01	-6.933471e+00
2.372398e+01	-6.973467e+00
2.386101e+01	-7.013440e+00
2.399883e+01	-7.053522e+00
2.413745e+01	-7.093737e+00
2.427686e+01	-7.134303e+00
2.441709e+01	-7.174562e+00
2.455812e+01	-7.215019e+00
2.469997e+01	-7.255598e+00
2.484263e+01	-7.296423e+00
2.498612e+01	-7.336930e+00
2.513044e+01	-7.377736e+00
2.527559e+01	-7.418649e+00
2.542158e+01	-7.459822e+00
2.556842e+01	-7.500446e+00
2.571610e+01	-7.542242e+00
2.586463e+01	-7.583194e+00
2.601403e+01	-7.624773e+00
2.616428e+01	-7.665818e+00
2.631541e+01	-7.707934e+00
2.646740e+01	-7.749160e+00
2.662028e+01	-7.791155e+00
2.677404e+01	-7.832492e+00
2.692868e+01	-7.873973e+00
2.708422e+01	-7.916448e+00
2.724066e+01	-7.957906e+00
2.739800e+01	-8.000120e+00
2.755625e+01	-8.042272e+00
2.771541e+01	-8.084801e+00
2.787550e+01	-8.126635e+00
2.803650e+01	-8.169398e+00
2.819844e+01	-8.211606e+00
2.836131e+01	-8.254618e+00
2.852513e+01	-8.296670e+00
2.868989e+01	-8.339345e+00
2.885560e+01	-8.382280e+00
2.902227e+01	-8.424663e+00
2.918990e+01	-8.467649e+00
2.935850e+01	-8.510782e+00
2.952807e+01	-8.553651e+00
2.969863e+01	-8.597217e+00
2.987016e+01	-8.640216e+00
3.004269e+01	-8.683072e+00
3.021622e+01	-8.726589e+00
3.039075e+01	-8.769774e+00
3.056628e+01	-8.813197e+00
3.074283e+01	-8.856796e+00
3.092040e+01	-8.900628e+00
3.109900e+01	-8.944410e+00
3.127862e+01	-8.987397e+00
3.145929e+01	-9.031792e+00
3.164099e+01	-9.075527e+00
3.182375e+01	-9.119569e+00
3.200756e+01	-9.163129e+00
3.219244e+01	-9.206785e+00
3.237838e+01	-9.250653e+00
3.256540e+01	-9.296076e+00
3.275349e+01	-9.339113e+00
3.294268e+01	-9.383562e+00
3.313295e+01	-9.427844e+00
3.332433e+01	-9.472733e+00
3.351681e+01	-9.516562e+00
3.371040e+01	-9.560933e+00
3.390511e+01	-9.605787e+00
3.410094e+01	-9.650150e+00
3.429791e+01	-9.694467e+00
3.449601e+01	-9.739453e+00
3.469526e+01	-9.784177e+00
3.489566e+01	-9.829100e+00
3.509721e+01	-9.873716e+00
3.529993e+01	-9.918855e+00
3.550382e+01	-9.963775e+00
3.570889e+01	-1.000857e+01
3.591515e+01	-1.005357e+01
3.612259e+01	-1.009908e+01
3.633123e+01	-1.014395e+01
3.654108e+01	-1.018967e+01
3.675214e+01	-1.023439e+01
3.696442e+01	-1.028003e+01
3.717792e+01	-1.032507e+01
3.739266e+01	-1.037067e+01
3.760864e+01	-1.041580e+01
3.782587e+01	-1.046117e+01
3.804435e+01	-1.050715e+01
3.826409e+01	-1.055286e+01
3.848510e+01	-1.059796e+01
3.870739e+01	-1.064404e+01
3.893096e+01	-1.069031e+01
3.915583e+01	-1.073608e+01
3.938199e+01	-1.078093e+01
3.960946e+01	-1.082704e+01
3.983824e+01	-1.087304e+01
4.006834e+01	-1.091819e+01
4.029978e+01	-1.096536e+01
4.053255e+01	-1.101160e+01
4.076666e+01	-1.105757e+01
4.100213e+01	-1.110321e+01
4.123896e+01	-1.114974e+01
4.147715e+01	-1.119575e+01
4.171672e+01	-1.124176e+01
4.195767e+01	-1.128827e+01
4.220002e+01	-1.133431e+01
4.244377e+01	-1.138098e+01
4.268892e+01	-1.142703e+01
4.293549e+01	-1.147402e+01
4.318348e+01	-1.152029e+01
4.343291e+01	-1.156702e+01
4.368377e+01	-1.161347e+01
4.393609e+01	-1.166016e+01
4.418986e+01	-1.170667e+01
4.444510e+01	-1.175337e+01
4.470182e+01	-1.179997e+01
4.496001e+01	-1.184701e+01
4.521970e+01	-1.189350e+01
4.548089e+01	-1.193969e+01
4.574358e+01	-1.198649e+01
4.600779e+01	-1.203430e+01
4.627353e+01	-1.208083e+01
4.654081e+01	-1.212796e+01
4.680963e+01	-1.217399e+01
4.708000e+01	-1.222166e+01
4.735193e+01	-1.226909e+01
4.762543e+01	-1.231649e+01
4.790051e+01	-1.236351e+01
4.817719e+01	-1.241060e+01
4.845545e+01	-1.245702e+01
4.873533e+01	-1.250497e+01
4.901682e+01	-1.255153e+01
4.929994e+01	-1.259937e+01
4.958470e+01	-1.264672e+01
4.987110e+01	-1.269435e+01
5.015915e+01	-1.274118e+01
5.044887e+01	-1.278856e+01
5.074026e+01	-1.283523e+01
5.103333e+01	-1.288322e+01
5.132810e+01	-1.293026e+01
5.162457e+01	-1.297774e+01
5.192275e+01	-1.302581e+01
5.222265e+01	-1.307361e+01
5.252429e+01	-1.312025e+01
5.282767e+01	-1.316851e+01
5.313280e+01	-1.321682e+01
5.343969e+01	-1.326363e+01
5.374836e+01	-1.331224e+01
5.405880e+01	-1.335955e+01
5.437105e+01	-1.340704e+01
5.468509e+01	-1.345476e+01
5.500095e+01	-1.350239e+01
5.531863e+01	-1.355051e+01
5.563815e+01	-1.359827e+01
5.595951e+01	-1.364619e+01
5.628273e+01	-1.369344e+01
5.660782e+01	-1.374152e+01
5.693479e+01	-1.378900e+01
5.726364e+01	-1.383785e+01
5.759439e+01	-1.388586e+01
5.792705e+01	-1.393344e+01
5.826164e+01	-1.398196e+01
5.859815e+01	-1.402934e+01
5.893662e+01	-1.407770e+01
5.927703e+01	-1.412542e+01
5.961941e+01	-1.417360e+01
5.996377e+01	-1.422189e+01
6.031012e+01	-1.427008e+01
6.065847e+01	-1.431767e+01
6.100883e+01	-1.436627e+01
6.136121e+01	-1.441532e+01
6.171563e+01	-1.446295e+01
6.207210e+01	-1.451151e+01
6.243063e+01	-1.455943e+01
6.279122e+01	-1.460741e+01
6.315390e+01	-1.465593e+01
6.351868e+01	-1.470455e+01
6.388556e+01	-1.475371e+01
6.425456e+01	-1.480110e+01
6.462569e+01	-1.485022e+01
6.499897e+01	-1.489786e+01
6.537440e+01	-1.494691e+01
6.575200e+01	-1.499422e+01
6.613178e+01	-1.504277e+01
6.651375e+01	-1.509177e+01
6.689793e+01	-1.514016e+01
6.728433e+01	-1.518819e+01
6.767297e+01	-1.523833e+01
6.806384e+01	-1.528624e+01
6.845698e+01	-1.533409e+01
6.885238e+01	-1.538322e+01
6.925007e+01	-1.543168e+01
6.965005e+01	-1.547964e+01
7.005235e+01	-1.552949e+01
7.045697e+01	-1.557770e+01
7.086393e+01	-1.562558e+01
7.127323e+01	-1.567494e+01
7.168490e+01	-1.572344e+01
7.209895e+01	-1.577240e+01
7.251539e+01	-1.582050e+01
7.293424e+01	-1.586882e+01
7.335551e+01	-1.591726e+01
7.377920e+01	-1.596682e+01
7.420535e+01	-1.601578e+01
7.463396e+01	-1.606367e+01
7.506504e+01	-1.611332e+01
7.549861e+01	-1.616230e+01
7.593469e+01	-1.621082e+01
7.637328e+01	-1.625892e+01
7.681441e+01	-1.630928e+01
7.725809e+01	-1.635721e+01
7.770433e+01	-1.640639e+01
7.815315e+01	-1.645505e+01
7.860456e+01	-1.650303e+01
7.905857e+01	-1.655370e+01
7.951521e+01	-1.660201e+01
7.997449e+01	-1.665072e+01
8.043642e+01	-1.669923e+01
8.090102e+01	-1.674796e+01
8.136830e+01	-1.679727e+01
8.183828e+01	-1.684779e+01
8.231097e+01	-1.689566e+01
8.278640e+01	-1.694480e+01
8.326457e+01	-1.699347e+01
8.374550e+01	-1.704341e+01
8.422921e+01	-1.709238e+01
8.471572e+01	-1.714103e+01
8.520503e+01	-1.718980e+01
8.569717e+01	-1.723953e+01
8.619215e+01	-1.728798e+01
8.669000e+01	-1.733658e+01
8.719071e+01	-1.738623e+01
8.769432e+01	-1.743657e+01
8.820084e+01	-1.748401e+01
8.871029e+01	-1.753338e+01
8.922267e+01	-1.758229e+01
8.973802e+01	-1.763194e+01
9.025634e+01	-1.768205e+01
9.077766e+01	-1.773134e+01
9.130199e+01	-1.777910e+01
9.182935e+01	-1.782868e+01
9.235975e+01	-1.787701e+01
9.289321e+01	-1.792674e+01
9.342976e+01	-1.797547e+01
9.396941e+01	-1.802569e+01
9.451217e+01	-1.807423e+01
9.505807e+01	-1.812355e+01
9.560712e+01	-1.817331e+01
9.615934e+01	-1.822175e+01
9.671476e+01	-1.827185e+01
9.727338e+01	-1.832182e+01
9.783522e+01	-1.837065e+01
9.840032e+01	-1.842027e+01
9.896867e+01	-1.846928e+01
9.954031e+01	-1.851945e+01
1.001153e+02	-1.856889e+01
1.006935e+02	-1.861797e+01
1.012751e+02	-1.866612e+01
1.018601e+02	-1.871515e+01
1.024484e+02	-1.876491e+01
1.030402e+02	-1.881417e+01
1.036353e+02	-1.886422e+01
1.042339e+02	-1.891323e+01
1.048360e+02	-1.896245e+01
1.054415e+02	-1.901274e+01
1.060505e+02	-1.906195e+01
1.066631e+02	-1.911097e+01
1.072791e+02	-1.916067e+01
1.078988e+02	-1.920927e+01
1.085220e+02	-1.925963e+01
1.091488e+02	-1.930955e+01
1.097793e+02	-1.935709e+01
1.104133e+02	-1.940803e+01
1.110511e+02	-1.945812e+01
1.116925e+02	-1.950579e+01
1.123376e+02	-1.955636e+01
1.129865e+02	-1.960585e+01
1.136391e+02	-1.965504e+01
1.142955e+02	-1.970442e+01
1.149556e+02	-1.975377e+01
1.156196e+02	-1.980412e+01
1.162874e+02	-1.985446e+01
1.169591e+02	-1.990394e+01
1.176347e+02	-1.995296e+01
1.183141e+02	-2.000209e+01
1.189975e+02	-2.005272e+01
1.196848e+02	-2.010097e+01
1.203761e+02	-2.015101e+01
1.210714e+02	-2.019952e+01
1.217707e+02	-2.024876e+01
1.224740e+02	-2.029913e+01
1.231814e+02	-2.034877e+01
1.238929e+02	-2.039886e+01
1.246085e+02	-2.044686e+01
1.253283e+02	-2.049878e+01
1.260522e+02	-2.054746e+01
1.267802e+02	-2.059702e+01
1.275125e+02	-2.064701e+01
1.282490e+02	-2.069573e+01
1.289898e+02	-2.074424e+01
1.297348e+02	-2.079357e+01
1.304842e+02	-2.084452e+01
1.312378e+02	-2.089446e+01
1.319959e+02	-2.094335e+01
1.327583e+02	-2.099407e+01
1.335251e+02	-2.104542e+01
1.342963e+02	-2.109265e+01
1.350720e+02	-2.114118e+01
1.358522e+02	-2.119264e+01
1.366368e+02	-2.124237e+01
1.374260e+02	-2.128976e+01
1.382198e+02	-2.134048e+01
1.390182e+02	-2.139051e+01
1.398211e+02	-2.144024e+01
1.406287e+02	-2.148884e+01
1.414410e+02	-2.154106e+01
1.422579e+02	-2.159044e+01
1.430796e+02	-2.163762e+01
1.439060e+02	-2.168952e+01
1.447372e+02	-2.173889e+01
1.455732e+02	-2.178659e+01
1.464141e+02	-2.183663e+01
1.472597e+02	-2.188807e+01
1.481103e+02	-2.193865e+01
1.489658e+02	-2.198805e+01
1.498262e+02	-2.203780e+01
1.506916e+02	-2.208690e+01
1.515620e+02	-2.213701e+01
1.524374e+02	-2.218811e+01
1.533179e+02	-2.223694e+01
1.542034e+02	-2.228547e+01
1.550941e+02	-2.233700e+01
1.559899e+02	-2.238533e+01
1.568909e+02	-2.243195e+01
1.577971e+02	-2.248384e+01
1.587085e+02	-2.253386e+01
1.596252e+02	-2.258370e+01
1.605472e+02	-2.263409e+01
1.614745e+02	-2.268322e+01
1.624072e+02	-2.273270e+01
1.633453e+02	-2.278448e+01
1.642887e+02	-2.282937e+01
1.652377e+02	-2.288333e+01
1.661921e+02	-2.293286e+01
1.671520e+02	-2.298185e+01
1.681175e+02	-2.303134e+01
1.690885e+02	-2.308231e+01
1.700651e+02	-2.313171e+01
1.710474e+02	-2.318457e+01
1.720354e+02	-2.323039e+01
1.730291e+02	-2.327867e+01
1.740285e+02	-2.333105e+01
1.750337e+02	-2.338231e+01
1.760446e+02	-2.342978e+01
1.770615e+02	-2.348045e+01
1.780842e+02	-2.352982e+01
1.791128e+02	-2.358127e+01
1.801473e+02	-2.363129e+01
1.811878e+02	-2.368161e+01
1.822344e+02	-2.372887e+01
1.832870e+02	-2.378029e+01
1.843456e+02	-2.382835e+01
1.854104e+02	-2.387831e+01
1.864813e+02	-2.393023e+01
1.875584e+02	-2.397859e+01
1.886418e+02	-2.402808e+01
1.897313e+02	-2.407796e+01
1.908272e+02	-2.412817e+01
1.919294e+02	-2.418048e+01
1.930380e+02	-2.422621e+01
1.941530e+02	-2.427835e+01
1.952744e+02	-2.432857e+01
1.964023e+02	-2.437827e+01
1.975367e+02	-2.442651e+01
1.986777e+02	-2.447610e+01
1.998252e+02	-2.452825e+01
2.009794e+02	-2.457782e+01
2.021403e+02	-2.462887e+01
2.033078e+02	-2.467659e+01
2.044821e+02	-2.472560e+01
2.056632e+02	-2.477501e+01
2.068511e+02	-2.482582e+01
2.080459e+02	-2.487518e+01
2.092475e+02	-2.492415e+01
2.104561e+02	-2.497528e+01
2.116717e+02	-2.502735e+01
2.128943e+02	-2.507779e+01
2.141240e+02	-2.512382e+01
2.153608e+02	-2.517887e+01
2.166047e+02	-2.522574e+01
2.178558e+02	-2.527734e+01
2.191141e+02	-2.532520e+01
2.203797e+02	-2.537414e+01
2.216526e+02	-2.542687e+01
2.229329e+02	-2.547937e+01
2.242205e+02	-2.552733e+01
2.255156e+02	-2.557654e+01
2.268182e+02	-2.562480e+01
2.281283e+02	-2.567539e+01
2.294459e+02	-2.572652e+01
2.307712e+02	-2.577562e+01
2.321041e+02	-2.582634e+01
2.334447e+02	-2.587636e+01
2.347931e+02	-2.592580e+01
2.361493e+02	-2.597709e+01
2.375133e+02	-2.602288e+01
2.388851e+02	-2.607172e+01
2.402649e+02	-2.612423e+01
2.416527e+02	-2.617469e+01
2.430484e+02	-2.622372e+01
2.444523e+02	-2.627442e+01
2.458642e+02	-2.632477e+01
2.472843e+02	-2.637628e+01
2.487126e+02	-2.642345e+01
2.501492e+02	-2.647169e+01
2.515940e+02	-2.652407e+01
2.530472e+02	-2.657303e+01
2.545088e+02	-2.662391e+01
2.559789e+02	-2.667505e+01
2.574574e+02	-2.672182e+01
2.589444e+02	-2.677433e+01
2.604401e+02	-2.682558e+01
2.619444e+02	-2.687371e+01
2.634574e+02	-2.692616e+01
2.649791e+02	-2.697233e+01
2.665096e+02	-2.702435e+01
2.680489e+02	-2.707592e+01
2.695972e+02	-2.712669e+01
2.711544e+02	-2.717085e+01
2.727205e+02	-2.722292e+01
2.742958e+02	-2.727351e+01
2.758801e+02	-2.732366e+01
2.774736e+02	-2.737431e+01
2.790762e+02	-2.742525e+01
2.806882e+02	-2.747818e+01
2.823094e+02	-2.752339e+01
2.839400e+02	-2.757502e+01
2.855800e+02	-2.762560e+01
2.872295e+02	-2.767524e+01
2.888886e+02	-2.772548e+01
2.905572e+02	-2.777535e+01
2.922354e+02	-2.782333e+01
2.939234e+02	-2.787437e+01
2.956211e+02	-2.792121e+01
2.973286e+02	-2.797652e+01
2.990459e+02	-2.801952e+01
3.007732e+02	-2.807520e+01
3.025104e+02	-2.812342e+01
3.042577e+02	-2.817840e+01
3.060151e+02	-2.822586e+01
3.077826e+02	-2.827001e+01
3.095604e+02	-2.832795e+01
3.113484e+02	-2.837622e+01
3.131467e+02	-2.842579e+01
3.149554e+02	-2.847399e+01
3.167746e+02	-2.852914e+01
3.186043e+02	-2.857518e+01
3.204445e+02	-2.862255e+01
3.222954e+02	-2.867439e+01
3.241570e+02	-2.872516e+01
3.260293e+02	-2.877271e+01
3.279124e+02	-2.882679e+01
3.298064e+02	-2.887462e+01
3.317114e+02	-2.891975e+01
3.336273e+02	-2.897723e+01
3.355544e+02	-2.902258e+01
3.374925e+02	-2.907322e+01
3.394418e+02	-2.912771e+01
3.414024e+02	-2.917313e+01
3.433744e+02	-2.922447e+01
3.453577e+02	-2.927372e+01
3.473525e+02	-2.932936e+01
3.493588e+02	-2.938004e+01
3.513766e+02	-2.942164e+01
3.534062e+02	-2.948020e+01
3.554474e+02	-2.952542e+01
3.575005e+02	-2.957651e+01
3.595654e+02	-2.962484e+01
3.616422e+02	-2.967390e+01
3.637311e+02	-2.972784e+01
3.658320e+02	-2.977673e+01
3.679450e+02	-2.983196e+01
3.700702e+02	-2.987514e+01
3.722077e+02	-2.992778e+01
3.743576e+02	-2.997398e+01
3.765199e+02	-3.002692e+01
3.786946e+02	-3.007700e+01
3.808820e+02	-3.013162e+01
3.830819e+02	-3.017601e+01
3.852946e+02	-3.022722e+01
3.875200e+02	-3.028183e+01
3.897583e+02	-3.032131e+01
3.920096e+02	-3.037653e+01
3.942738e+02	-3.042569e+01
3.965511e+02	-3.047573e+01
3.988416e+02	-3.052868e+01
4.011452e+02	-3.057422e+01
4.034622e+02	-3.062747e+01
4.057926e+02	-3.067566e+01
4.081365e+02	-3.072918e+01
4.104938e+02	-3.077740e+01
4.128648e+02	-3.082411e+01
4.152495e+02	-3.087574e+01
4.176480e+02	-3.092450e+01
4.200603e+02	-3.098243e+01
4.224866e+02	-3.102164e+01
4.249268e+02	-3.107196e+01
4.273812e+02	-3.112830e+01
4.298497e+02	-3.118020e+01
4.323325e+02	-3.122530e+01
4.348297e+02	-3.128022e+01
4.373412e+02	-3.133000e+01
4.398673e+02	-3.138496e+01
4.424079e+02	-3.142747e+01
4.449633e+02	-3.147688e+01
4.475334e+02	-3.152535e+01
4.501183e+02	-3.157503e+01
4.527182e+02	-3.163165e+01
4.553330e+02	-3.167729e+01
4.579630e+02	-3.172890e+01
4.606082e+02	-3.177994e+01
4.632687e+02	-3.182949e+01
4.659445e+02	-3.188196e+01
4.686358e+02	-3.193593e+01
4.713426e+02	-3.198385e+01
4.740650e+02	-3.203453e+01
4.768032e+02	-3.207897e+01
4.795572e+02	-3.213561e+01
4.823271e+02	-3.217877e+01
4.851130e+02	-3.222735e+01
4.879150e+02	-3.228308e+01
4.907332e+02	-3.232604e+01
4.935676e+02	-3.238849e+01
4.964185e+02	-3.243571e+01
4.992858e+02	-3.248198e+01
5.021696e+02	-3.253111e+01
5.050701e+02	-3.258019e+01
5.079874e+02	-3.263301e+01
5.109215e+02	-3.268786e+01
5.138726e+02	-3.272944e+01
5.168407e+02	-3.279015e+01
5.198259e+02	-3.283346e+01
5.228284e+02	-3.288605e+01
5.258482e+02	-3.293794e+01
5.288855e+02	-3.297860e+01
5.319403e+02	-3.304168e+01
5.350128e+02	-3.309059e+01
5.381030e+02	-3.313252e+01
5.412111e+02	-3.319058e+01
5.443371e+02	-3.324069e+01
5.474812e+02	-3.328787e+01
5.506434e+02	-3.334507e+01
5.538239e+02	-3.338699e+01
5.570228e+02	-3.342922e+01
5.602401e+02	-3.348720e+01
5.634760e+02	-3.353279e+01
5.667306e+02	-3.359872e+01
5.700040e+02	-3.363872e+01
5.732964e+02	-3.368112e+01
5.766077e+02	-3.374026e+01
5.799382e+02	-3.378789e+01
5.832879e+02	-3.384003e+01
5.866569e+02	-3.389390e+01
5.900454e+02	-3.394071e+01
5.934535e+02	-3.398762e+01
5.968813e+02	-3.404073e+01
6.003288e+02	-3.408627e+01
6.037963e+02	-3.414245e+01
6.072838e+02	-3.419441e+01
6.107914e+02	-3.424737e+01
6.143194e+02	-3.429116e+01
6.178676e+02	-3.434233e+01
6.214364e+02	-3.439425e+01
6.250258e+02	-3.444596e+01
6.286359e+02	-3.449998e+01
6.322669e+02	-3.454170e+01
6.359189e+02	-3.459313e+01
6.395919e+02	-3.464251e+01
6.432862e+02	-3.469196e+01
6.470017e+02	-3.474272e+01
6.507388e+02	-3.479200e+01
6.544974e+02	-3.484768e+01
6.582778e+02	-3.489100e+01
6.620800e+02	-3.494385e+01
6.659041e+02	-3.499506e+01
6.697504e+02	-3.505641e+01
6.736188e+02	-3.510283e+01
6.775096e+02	-3.514950e+01
6.814229e+02	-3.519739e+01
6.853587e+02	-3.524246e+01
6.893173e+02	-3.530829e+01
6.932988e+02	-3.535051e+01
6.973033e+02	-3.540188e+01
7.013309e+02	-3.545056e+01
