Frequency(Hz)	Magnitude(dB)
1.000000e+01	-2.251454e+00
1.005776e+01	-2.271787e+00
1.011585e+01	-2.291950e+00
1.017428e+01	-2.312716e+00
1.023305e+01	-2.333513e+00
1.029215e+01	-2.354255e+00
1.035160e+01	-2.375509e+00
1.041139e+01	-2.396481e+00
1.047153e+01	-2.417681e+00
1.053201e+01	-2.438904e+00
1.059284e+01	-2.460704e+00
1.065403e+01	-2.482448e+00
1.071556e+01	-2.504287e+00
1.077746e+01	-2.526304e+00
1.083971e+01	-2.548430e+00
1.090232e+01	-2.570854e+00
1.096529e+01	-2.593402e+00
1.102862e+01	-2.615574e+00
1.109232e+01	-2.638481e+00
1.115639e+01	-2.661338e+00
1.122083e+01	-2.684466e+00
1.128564e+01	-2.707254e+00
1.135083e+01	-2.730929e+00
1.141639e+01	-2.754026e+00
1.148233e+01	-2.778001e+00
1.154865e+01	-2.801411e+00
1.161536e+01	-2.825071e+00
1.168245e+01	-2.849254e+00
1.174992e+01	-2.873332e+00
1.181779e+01	-2.897613e+00
1.188605e+01	-2.922067e+00
1.195470e+01	-2.946631e+00
1.202375e+01	-2.971413e+00
1.209320e+01	-2.996277e+00
1.216305e+01	-3.021294e+00
1.223330e+01	-3.046380e+00
1.230396e+01	-3.071655e+00
1.237503e+01	-3.096906e+00
1.244651e+01	-3.122680e+00
1.251840e+01	-3.148369e+00
1.259070e+01	-3.174210e+00
1.266343e+01	-3.200497e+00
1.273657e+01	-3.226720e+00
1.281014e+01	-3.252755e+00
1.288413e+01	-3.279275e+00
1.295855e+01	-3.305792e+00
1.303339e+01	-3.332626e+00
1.310867e+01	-3.359399e+00
1.318439e+01	-3.386064e+00
1.326054e+01	-3.413571e+00
1.333713e+01	-3.440904e+00
1.341417e+01	-3.467948e+00
1.349165e+01	-3.495846e+00
1.356958e+01	-3.523563e+00
1.364795e+01	-3.551459e+00
1.372678e+01	-3.579292e+00
1.380607e+01	-3.607569e+00
1.388581e+01	-3.636097e+00
1.396602e+01	-3.664250e+00
1.404668e+01	-3.692958e+00
1.412782e+01	-3.721442e+00
1.420942e+01	-3.750518e+00
1.429149e+01	-3.779508e+00
1.437404e+01	-3.809076e+00
1.445706e+01	-3.837947e+00
1.454057e+01	-3.867382e+00
1.462455e+01	-3.896803e+00
1.470902e+01	-3.926642e+00
1.479398e+01	-3.956437e+00
1.487943e+01	-3.986556e+00
1.496537e+01	-4.016565e+00
1.505181e+01	-4.046842e+00
1.513875e+01	-4.076996e+00
1.522619e+01	-4.107499e+00
1.531414e+01	-4.138419e+00
1.540259e+01	-4.169093e+00
1.549156e+01	-4.200033e+00
1.558103e+01	-4.231420e+00
1.567103e+01	-4.262643e+00
1.576155e+01	-4.294044e+00
1.585258e+01	-4.324932e+00
1.594415e+01	-4.356769e+00
1.603624e+01	-4.388566e+00
1.612886e+01	-4.420551e+00
1.622202e+01	-4.452269e+00
1.631572e+01	-4.484652e+00
1.640996e+01	-4.516905e+00
1.650474e+01	-4.549289e+00
1.660008e+01	-4.581874e+00
1.669596e+01	-4.614477e+00
1.679239e+01	-4.647413e+00
1.688938e+01	-4.680451e+00
1.698694e+01	-4.713173e+00
1.708505e+01	-4.746461e+00
1.718373e+01	-4.780117e+00
1.728299e+01	-4.813582e+00
1.738281e+01	-4.847203e+00
1.748322e+01	-4.880584e+00
1.758420e+01	-4.914420e+00
1.768576e+01	-4.948201e+00
1.778792e+01	-4.982382e+00
1.789066e+01	-5.016597e+00
1.799399e+01	-5.050982e+00
1.809793e+01	-5.085640e+00
1.820246e+01	-5.120063e+00
1.830760e+01	-5.154776e+00
1.841334e+01	-5.189491e+00
1.851969e+01	-5.224420e+00
1.862666e+01	-5.259590e+00
1.873425e+01	-5.294845e+00
1.884246e+01	-5.330183e+00
1.895129e+01	-5.365314e+00
1.906075e+01	-5.400875e+00
1.917085e+01	-5.436740e+00
1.928158e+01	-5.472607e+00
1.939295e+01	-5.508424e+00
1.950496e+01	-5.544350e+00
1.961762e+01	-5.580639e+00
1.973093e+01	-5.616797e+00
1.984490e+01	-5.652973e+00
1.995952e+01	-5.689661e+00
2.007480e+01	-5.726089e+00
2.019076e+01	-5.763132e+00
2.030738e+01	-5.799681e+00
2.042467e+01	-5.836622e+00
2.054264e+01	-5.873465e+00
2.066130e+01	-5.910985e+00
2.078064e+01	-5.948086e+00
2.090066e+01	-5.985306e+00
2.102139e+01	-6.022730e+00
2.114280e+01	-6.060291e+00
2.126492e+01	-6.098325e+00
2.138775e+01	-6.136276e+00
2.151128e+01	-6.173991e+00
2.163553e+01	-6.211711e+00
2.176050e+01	-6.249952e+00
2.188619e+01	-6.288268e+00
2.201260e+01	-6.326345e+00
2.213974e+01	-6.364815e+00
2.226762e+01	-6.403553e+00
2.239624e+01	-6.441934e+00
2.252560e+01	-6.480650e+00
2.265571e+01	-6.519772e+00
2.278656e+01	-6.558825e+00
2.291818e+01	-6.597378e+00
2.305055e+01	-6.636508e+00
2.318369e+01	-6.675639e+00
2.331760e+01	-6.715254e+00
2.345228e+01	-6.754408e+00
2.358774e+01	-6.794054e+00
2.372398e+01	-6.833484e+00
2.386101e+01	-6.873530e+00
2.399883e+01	-6.913505e+00
2.413745e+01	-6.953194e+00
2.427686e+01	-6.992886e+00
2.441709e+01	-7.033141e+00
2.455812e+01	-7.073604e+00
2.469997e+01	-7.113654e+00
2.484263e+01	-7.153800e+00
2.498612e+01	-7.194186e+00
2.513044e+01	-7.234728e+00
2.527559e+01	-7.275510e+00
2.542158e+01	-7.316679e+00
2.556842e+01	-7.356783e+00
2.571610e+01	-7.397948e+00
2.586463e+01	-7.438988e+00
2.601403e+01	-7.479899e+00
2.616428e+01	-7.521157e+00
2.631541e+01	-7.562284e+00
2.646740e+01	-7.603415e+00
2.662028e+01	-7.644909e+00
2.677404e+01	-7.686067e+00
2.692868e+01	-7.727821e+00
2.708422e+01	-7.769546e+00
2.724066e+01	-7.811313e+00
2.739800e+01	-7.852923e+00
2.755625e+01	-7.894671e+00
2.771541e+01	-7.936518e+00
2.787550e+01	-7.978790e+00
2.803650e+01	-8.020895e+00
2.819844e+01	-8.063188e+00
2.836131e+01	-8.105532e+00
2.852513e+01	-8.147287e+00
2.868989e+01	-8.190492e+00
2.885560e+01	-8.232601e+00
2.902227e+01	-8.274870e+00
2.918990e+01	-8.317767e+00
2.935850e+01	-8.360508e+00
2.952807e+01	-8.403268e+00
2.969863e+01	-8.445778e+00
2.987016e+01	-8.489005e+00
3.004269e+01	-8.531890e+00
3.021622e+01	-8.575230e+00
3.039075e+01	-8.618136e+00
3.056628e+01	-8.660986e+00
3.074283e+01	-8.704613e+00
3.092040e+01	-8.747475e+00
3.109900e+01	-8.790955e+00
3.127862e+01	-8.834583e+00
3.145929e+01	-8.878354e+00
3.164099e+01	-8.921824e+00
3.182375e+01	-8.965518e+00
3.200756e+01	-9.009106e+00
3.219244e+01	-9.053210e+00
3.237838e+01	-9.096746e+00
3.256540e+01	-9.140691e+00
3.275349e+01	-9.184890e+00
3.294268e+01	-9.228892e+00
3.313295e+01	-9.272502e+00
3.332433e+01	-9.316936e+00
3.351681e+01	-9.361327e+00
3.371040e+01	-9.405523e+00
3.390511e+01	-9.449347e+00
3.410094e+01	-9.494414e+00
3.429791e+01	-9.538624e+00
3.449601e+01	-9.582914e+00
3.469526e+01	-9.627789e+00
3.489566e+01	-9.671718e+00
3.509721e+01	-9.716652e+00
3.529993e+01	-9.761537e+00
3.550382e+01	-9.805678e+00
3.570889e+01	-9.851071e+00
3.591515e+01	-9.895340e+00
3.612259e+01	-9.940693e+00
3.633123e+01	-9.985914e+00
3.654108e+01	-1.003094e+01
3.675214e+01	-1.007576e+01
3.696442e+01	-1.012086e+01
3.717792e+01	-1.016606e+01
3.739266e+01	-1.021187e+01
3.760864e+01	-1.025656e+01
3.782587e+01	-1.030220e+01
3.804435e+01	-1.034724e+01
3.826409e+01	-1.039254e+01
3.848510e+01	-1.043836e+01
3.870739e+01	-1.048378e+01
3.893096e+01	-1.052989e+01
3.915583e+01	-1.057524e+01
3.938199e+01	-1.062076e+01
3.960946e+01	-1.066629e+01
3.983824e+01	-1.071207e+01
4.006834e+01	-1.075805e+01
4.029978e+01	-1.080393e+01
4.053255e+01	-1.084977e+01
4.076666e+01	-1.089568e+01
4.100213e+01	-1.094161e+01
4.123896e+01	-1.098773e+01
4.147715e+01	-1.103348e+01
4.171672e+01	-1.107906e+01
4.195767e+01	-1.112624e+01
4.220002e+01	-1.117248e+01
4.244377e+01	-1.121869e+01
4.268892e+01	-1.126515e+01
4.293549e+01	-1.131054e+01
4.318348e+01	-1.135749e+01
4.343291e+01	-1.140378e+01
4.368377e+01	-1.145039e+01
4.393609e+01	-1.149648e+01
4.418986e+01	-1.154337e+01
4.444510e+01	-1.158951e+01
4.470182e+01	-1.163589e+01
4.496001e+01	-1.168325e+01
4.521970e+01	-1.172962e+01
4.548089e+01	-1.177657e+01
4.574358e+01	-1.182344e+01
4.600779e+01	-1.186919e+01
4.627353e+01	-1.191721e+01
4.654081e+01	-1.196370e+01
4.680963e+01	-1.201014e+01
4.708000e+01	-1.205683e+01
4.735193e+01	-1.210392e+01
4.762543e+01	-1.215080e+01
4.790051e+01	-1.219779e+01
4.817719e+01	-1.224509e+01
4.845545e+01	-1.229170e+01
4.873533e+01	-1.233932e+01
4.901682e+01	-1.238644e+01
4.929994e+01	-1.243342e+01
4.958470e+01	-1.248037e+01
4.987110e+01	-1.252735e+01
5.015915e+01	-1.257513e+01
5.044887e+01	-1.262159e+01
5.074026e+01	-1.266951e+01
5.103333e+01	-1.271700e+01
5.132810e+01	-1.276424e+01
5.162457e+01	-1.281169e+01
5.192275e+01	-1.285928e+01
5.222265e+01	-1.290665e+01
5.252429e+01	-1.295369e+01
5.282767e+01	-1.300146e+01
5.313280e+01	-1.304873e+01
5.343969e+01	-1.309671e+01
5.374836e+01	-1.314414e+01
5.405880e+01	-1.319185e+01
5.437105e+01	-1.323903e+01
5.468509e+01	-1.328684e+01
5.500095e+01	-1.333528e+01
5.531863e+01	-1.338279e+01
5.563815e+01	-1.343046e+01
5.595951e+01	-1.347884e+01
5.628273e+01	-1.352644e+01
5.660782e+01	-1.357430e+01
5.693479e+01	-1.362104e+01
5.726364e+01	-1.366927e+01
5.759439e+01	-1.371797e+01
5.792705e+01	-1.376654e+01
5.826164e+01	-1.381242e+01
5.859815e+01	-1.386093e+01
5.893662e+01	-1.390887e+01
5.927703e+01	-1.395745e+01
5.961941e+01	-1.400492e+01
5.996377e+01	-1.405316e+01
6.031012e+01	-1.410132e+01
6.065847e+01	-1.414964e+01
6.100883e+01	-1.419806e+01
6.136121e+01	-1.424533e+01
6.171563e+01	-1.429419e+01
6.207210e+01	-1.434092e+01
6.243063e+01	-1.439026e+01
6.279122e+01	-1.443885e+01
6.315390e+01	-1.448652e+01
6.351868e+01	-1.453427e+01
6.388556e+01	-1.458396e+01
6.425456e+01	-1.463113e+01
6.462569e+01	-1.467963e+01
6.499897e+01	-1.472716e+01
6.537440e+01	-1.477606e+01
6.575200e+01	-1.482486e+01
6.613178e+01	-1.487345e+01
6.651375e+01	-1.492096e+01
6.689793e+01	-1.496977e+01
6.728433e+01	-1.501900e+01
6.767297e+01	-1.506662e+01
6.806384e+01	-1.511537e+01
6.845698e+01	-1.516318e+01
6.885238e+01	-1.521233e+01
6.925007e+01	-1.526112e+01
6.965005e+01	-1.530950e+01
7.005235e+01	-1.535779e+01
7.045697e+01	-1.540607e+01
7.086393e+01	-1.545597e+01
7.127323e+01	-1.550370e+01
7.168490e+01	-1.555268e+01
7.209895e+01	-1.559969e+01
7.251539e+01	-1.564949e+01
7.293424e+01	-1.569845e+01
7.335551e+01	-1.574679e+01
7.377920e+01	-1.579641e+01
7.420535e+01	-1.584497e+01
7.463396e+01	-1.589322e+01
7.506504e+01	-1.594156e+01
7.549861e+01	-1.599100e+01
7.593469e+01	-1.603925e+01
7.637328e+01	-1.608781e+01
7.681441e+01	-1.613726e+01
7.725809e+01	-1.618515e+01
7.770433e+01	-1.623355e+01
7.815315e+01	-1.628337e+01
7.860456e+01	-1.633352e+01
7.905857e+01	-1.638240e+01
7.951521e+01	-1.643089e+01
7.997449e+01	-1.647841e+01
8.043642e+01	-1.652897e+01
8.090102e+01	-1.657631e+01
8.136830e+01	-1.662645e+01
8.183828e+01	-1.667568e+01
8.231097e+01	-1.672313e+01
8.278640e+01	-1.677287e+01
8.326457e+01	-1.682177e+01
8.374550e+01	-1.687060e+01
8.422921e+01	-1.691948e+01
8.471572e+01	-1.696894e+01
8.520503e+01	-1.701784e+01
8.569717e+01	-1.706726e+01
8.619215e+01	-1.711490e+01
8.669000e+01	-1.716502e+01
8.719071e+01	-1.721391e+01
8.769432e+01	-1.726330e+01
8.820084e+01	-1.731166e+01
8.871029e+01	-1.736169e+01
8.922267e+01	-1.741080e+01
8.973802e+01	-1.745935e+01
9.025634e+01	-1.750739e+01
9.077766e+01	-1.755778e+01
9.130199e+01	-1.760591e+01
9.182935e+01	-1.765701e+01
9.235975e+01	-1.770637e+01
9.289321e+01	-1.775422e+01
9.342976e+01	-1.780424e+01
9.396941e+01	-1.785215e+01
9.451217e+01	-1.790327e+01
9.505807e+01	-1.795186e+01
9.560712e+01	-1.800044e+01
9.615934e+01	-1.804941e+01
9.671476e+01	-1.809863e+01
9.727338e+01	-1.814913e+01
9.783522e+01	-1.819679e+01
9.840032e+01	-1.824615e+01
9.896867e+01	-1.829584e+01
9.954031e+01	-1.834551e+01
1.001153e+02	-1.839408e+01
1.006935e+02	-1.844541e+01
1.012751e+02	-1.849288e+01
1.018601e+02	-1.854200e+01
1.024484e+02	-1.859269e+01
1.030402e+02	-1.864261e+01
1.036353e+02	-1.869205e+01
1.042339e+02	-1.873981e+01
1.048360e+02	-1.879079e+01
1.054415e+02	-1.883942e+01
1.060505e+02	-1.888880e+01
1.066631e+02	-1.893793e+01
1.072791e+02	-1.898689e+01
1.078988e+02	-1.903599e+01
1.085220e+02	-1.908514e+01
1.091488e+02	-1.913474e+01
1.097793e+02	-1.918634e+01
1.104133e+02	-1.923473e+01
1.110511e+02	-1.928427e+01
1.116925e+02	-1.933318e+01
1.123376e+02	-1.938176e+01
1.129865e+02	-1.943174e+01
1.136391e+02	-1.948218e+01
1.142955e+02	-1.953005e+01
1.149556e+02	-1.958129e+01
1.156196e+02	-1.963121e+01
1.162874e+02	-1.967991e+01
1.169591e+02	-1.972763e+01
1.176347e+02	-1.977845e+01
1.183141e+02	-1.982867e+01
1.189975e+02	-1.987886e+01
1.196848e+02	-1.992803e+01
1.203761e+02	-1.997641e+01
1.210714e+02	-2.002617e+01
1.217707e+02	-2.007602e+01
1.224740e+02	-2.012533e+01
1.231814e+02	-2.017557e+01
1.238929e+02	-2.022398e+01
1.246085e+02	-2.027537e+01
1.253283e+02	-2.032267e+01
1.260522e+02	-2.037159e+01
1.267802e+02	-2.042154e+01
1.275125e+02	-2.047214e+01
1.282490e+02	-2.052229e+01
1.289898e+02	-2.057118e+01
1.297348e+02	-2.062114e+01
1.304842e+02	-2.067034e+01
1.312378e+02	-2.072042e+01
1.319959e+02	-2.076996e+01
1.327583e+02	-2.082055e+01
1.335251e+02	-2.086983e+01
1.342963e+02	-2.091876e+01
1.350720e+02	-2.096815e+01
1.358522e+02	-2.101730e+01
1.366368e+02	-2.106718e+01
1.374260e+02	-2.111567e+01
1.382198e+02	-2.116444e+01
1.390182e+02	-2.121565e+01
1.398211e+02	-2.126613e+01
1.406287e+02	-2.131503e+01
1.414410e+02	-2.136516e+01
1.422579e+02	-2.141577e+01
1.430796e+02	-2.146432e+01
1.439060e+02	-2.151605e+01
1.447372e+02	-2.156452e+01
1.455732e+02	-2.161376e+01
1.464141e+02	-2.166434e+01
1.472597e+02	-2.171415e+01
1.481103e+02	-2.176453e+01
1.489658e+02	-2.181396e+01
1.498262e+02	-2.186258e+01
1.506916e+02	-2.191137e+01
1.515620e+02	-2.196129e+01
1.524374e+02	-2.201078e+01
1.533179e+02	-2.206099e+01
1.542034e+02	-2.211163e+01
1.550941e+02	-2.216243e+01
1.559899e+02	-2.221110e+01
1.568909e+02	-2.226371e+01
1.577971e+02	-2.230952e+01
1.587085e+02	-2.236041e+01
1.596252e+02	-2.241095e+01
1.605472e+02	-2.245999e+01
1.614745e+02	-2.250920e+01
1.624072e+02	-2.255711e+01
1.633453e+02	-2.260961e+01
1.642887e+02	-2.265802e+01
1.652377e+02	-2.270867e+01
1.661921e+02	-2.275880e+01
1.671520e+02	-2.281020e+01
1.681175e+02	-2.285993e+01
1.690885e+02	-2.290813e+01
1.700651e+02	-2.295772e+01
1.710474e+02	-2.300811e+01
1.720354e+02	-2.305600e+01
1.730291e+02	-2.310797e+01
1.740285e+02	-2.315642e+01
1.750337e+02	-2.320623e+01
1.760446e+02	-2.325551e+01
1.770615e+02	-2.330741e+01
1.780842e+02	-2.335714e+01
1.791128e+02	-2.340617e+01
1.801473e+02	-2.345248e+01
1.811878e+02	-2.350777e+01
1.822344e+02	-2.355504e+01
1.832870e+02	-2.360498e+01
1.843456e+02	-2.365579e+01
1.854104e+02	-2.370511e+01
1.864813e+02	-2.375275e+01
1.875584e+02	-2.380538e+01
1.886418e+02	-2.385555e+01
1.897313e+02	-2.390584e+01
1.908272e+02	-2.395182e+01
1.919294e+02	-2.400356e+01
1.930380e+02	-2.405255e+01
1.941530e+02	-2.410275e+01
1.952744e+02	-2.415383e+01
1.964023e+02	-2.420488e+01
1.975367e+02	-2.425609e+01
1.986777e+02	-2.430194e+01
1.998252e+02	-2.435313e+01
2.009794e+02	-2.440259e+01
2.021403e+02	-2.445172e+01
2.033078e+02	-2.450460e+01
2.044821e+02	-2.455330e+01
2.056632e+02	-2.460145e+01
2.068511e+02	-2.465260e+01
2.080459e+02	-2.470128e+01
2.092475e+02	-2.475195e+01
2.104561e+02	-2.480043e+01
2.116717e+02	-2.485091e+01
2.128943e+02	-2.490138e+01
2.141240e+02	-2.495465e+01
2.153608e+02	-2.500063e+01
2.166047e+02	-2.505444e+01
2.178558e+02	-2.510032e+01
2.191141e+02	-2.515101e+01
2.203797e+02	-2.520007e+01
2.216526e+02	-2.524919e+01
2.229329e+02	-2.530021e+01
2.242205e+02	-2.535265e+01
2.255156e+02	-2.539913e+01
2.268182e+02	-2.544911e+01
2.281283e+02	-2.549952e+01
2.294459e+02	-2.555073e+01
2.307712e+02	-2.559842e+01
2.321041e+02	-2.565278e+01
2.334447e+02	-2.570131e+01
2.347931e+02	-2.575031e+01
2.361493e+02	-2.580025e+01
2.375133e+02	-2.585327e+01
2.388851e+02	-2.590045e+01
2.402649e+02	-2.594830e+01
2.416527e+02	-2.599903e+01
2.430484e+02	-2.605167e+01
2.444523e+02	-2.610015e+01
2.458642e+02	-2.615075e+01
2.472843e+02	-2.620001e+01
2.487126e+02	-2.625005e+01
2.501492e+02	-2.629569e+01
2.515940e+02	-2.635186e+01
2.530472e+02	-2.639815e+01
2.545088e+02	-2.644442e+01
2.559789e+02	-2.650382e+01
2.574574e+02	-2.655112e+01
2.589444e+02	-2.659956e+01
2.604401e+02	-2.664815e+01
2.619444e+02	-2.670275e+01
2.634574e+02	-2.674747e+01
2.649791e+02	-2.679771e+01
2.665096e+02	-2.684809e+01
2.680489e+02	-2.690141e+01
2.695972e+02	-2.695052e+01
2.711544e+02	-2.700224e+01
2.727205e+02	-2.704856e+01
2.742958e+02	-2.709690e+01
2.758801e+02	-2.714742e+01
2.774736e+02	-2.720148e+01
2.790762e+02	-2.724739e+01
2.806882e+02	-2.730018e+01
2.823094e+02	-2.734665e+01
2.839400e+02	-2.740094e+01
2.855800e+02	-2.744776e+01
2.872295e+02	-2.749932e+01
2.888886e+02	-2.755080e+01
2.905572e+02	-2.760024e+01
2.922354e+02	-2.765160e+01
2.939234e+02	-2.769917e+01
2.956211e+02	-2.775255e+01
2.973286e+02	-2.780112e+01
2.990459e+02	-2.785105e+01
3.007732e+02	-2.789983e+01
3.025104e+02	-2.794677e+01
3.042577e+02	-2.799956e+01
3.060151e+02	-2.805514e+01
3.077826e+02	-2.810008e+01
3.095604e+02	-2.814839e+01
3.113484e+02	-2.820332e+01
3.131467e+02	-2.825133e+01
3.149554e+02	-2.829467e+01
3.167746e+02	-2.834301e+01
3.186043e+02	-2.839729e+01
3.204445e+02	-2.845007e+01
3.222954e+02	-2.850024e+01
3.241570e+02	-2.855314e+01
3.260293e+02	-2.860328e+01
3.279124e+02	-2.864675e+01
3.298064e+02	-2.870302e+01
3.317114e+02	-2.874890e+01
3.336273e+02	-2.880218e+01
3.355544e+02	-2.885176e+01
3.374925e+02	-2.889649e+01
3.394418e+02	-2.895218e+01
3.414024e+02	-2.899897e+01
3.433744e+02	-2.904969e+01
3.453577e+02	-2.910203e+01
3.473525e+02	-2.915412e+01
3.493588e+02	-2.920295e+01
3.513766e+02	-2.925171e+01
3.534062e+02	-2.930219e+01
3.554474e+02	-2.935205e+01
3.575005e+02	-2.939579e+01
3.595654e+02	-2.945115e+01
3.616422e+02	-2.950405e+01
3.637311e+02	-2.955114e+01
3.658320e+02	-2.959992e+01
3.679450e+02	-2.964957e+01
3.700702e+02	-2.970251e+01
3.722077e+02	-2.975067e+01
3.743576e+02	-2.980111e+01
3.765199e+02	-2.985254e+01
3.786946e+02	-2.990439e+01
3.808820e+02	-2.995246e+01
3.830819e+02	-2.999920e+01
3.852946e+02	-3.005155e+01
3.875200e+02	-3.010517e+01
3.897583e+02	-3.015356e+01
3.920096e+02	-3.020185e+01
3.942738e+02	-3.025427e+01
3.965511e+02	-3.030440e+01
3.988416e+02	-3.035337e+01
4.011452e+02	-3.040067e+01
4.034622e+02	-3.044727e+01
4.057926e+02	-3.049938e+01
4.081365e+02	-3.055584e+01
4.104938e+02	-3.060006e+01
4.128648e+02	-3.065352e+01
4.152495e+02	-3.070743e+01
4.176480e+02	-3.075437e+01
4.200603e+02	-3.080701e+01
4.224866e+02	-3.085428e+01
4.249268e+02	-3.089639e+01
4.273812e+02	-3.095143e+01
4.298497e+02	-3.100569e+01
4.323325e+02	-3.104813e+01
4.348297e+02	-3.110445e+01
4.373412e+02	-3.115698e+01
4.398673e+02	-3.120431e+01
4.424079e+02	-3.125381e+01
4.449633e+02	-3.130384e+01
4.475334e+02	-3.135960e+01
4.501183e+02	-3.141069e+01
4.527182e+02	-3.145916e+01
4.553330e+02	-3.150734e+01
4.579630e+02	-3.155892e+01
4.606082e+02	-3.160589e+01
4.632687e+02	-3.165718e+01
4.659445e+02	-3.170870e+01
4.686358e+02	-3.175854e+01
4.713426e+02	-3.181106e+01
4.740650e+02	-3.185755e+01
4.768032e+02	-3.191081e+01
4.795572e+02	-3.196161e+01
4.823271e+02	-3.200537e+01
4.851130e+02	-3.205671e+01
4.879150e+02	-3.211071e+01
4.907332e+02	-3.216090e+01
4.935676e+02	-3.220886e+01
4.964185e+02	-3.225920e+01
4.992858e+02	-3.231235e+01
5.021696e+02	-3.235331e+01
5.050701e+02	-3.240683e+01
5.079874e+02	-3.244857e+01
5.109215e+02	-3.251285e+01
5.138726e+02	-3.256109e+01
5.168407e+02	-3.261730e+01
5.198259e+02	-3.266072e+01
5.228284e+02	-3.271644e+01
5.258482e+02	-3.276541e+01
5.288855e+02	-3.281398e+01
5.319403e+02	-3.285699e+01
5.350128e+02	-3.291245e+01
5.381030e+02	-3.296049e+01
5.412111e+02	-3.301183e+01
5.443371e+02	-3.306908e+01
5.474812e+02	-3.311844e+01
5.506434e+02	-3.316181e+01
5.538239e+02	-3.321014e+01
5.570228e+02	-3.326237e+01
5.602401e+02	-3.331738e+01
5.634760e+02	-3.336544e+01
5.667306e+02	-3.341438e+01
5.700040e+02	-3.347122e+01
5.732964e+02	-3.351943e+01
5.766077e+02	-3.357079e+01
5.799382e+02	-3.362017e+01
5.832879e+02	-3.366308e+01
5.866569e+02	-3.372072e+01
5.900454e+02	-3.377521e+01
5.934535e+02	-3.381749e+01
5.968813e+02	-3.386424e+01
6.003288e+02	-3.392747e+01
6.037963e+02	-3.396126e+01
6.072838e+02	-3.401853e+01
6.107914e+02	-3.406621e+01
6.143194e+02	-3.412622e+01
6.178676e+02	-3.416591e+01
6.214364e+02	-3.421064e+01
6.250258e+02	-3.427389e+01
6.286359e+02	-3.432253e+01
6.322669e+02	-3.436873e+01
6.359189e+02	-3.441900e+01
6.395919e+02	-3.446483e+01
6.432862e+02	-3.451867e+01
6.470017e+02	-3.457264e+01
6.507388e+02	-3.462233e+01
6.544974e+02	-3.468231e+01
6.582778e+02	-3.472338e+01
6.620800e+02	-3.476757e+01
6.659041e+02	-3.483044e+01
6.697504e+02	-3.487132e+01
6.736188e+02	-3.492158e+01
6.775096e+02	-3.497525e+01
6.814229e+02	-3.503541e+01
6.853587e+02	-3.507687e+01
6.893173e+02	-3.512347e+01
6.932988e+02	-3.517821e+01
6.973033e+02	-3.522596e+01
7.013309e+02	-3.528078e+01
