Frequency(Hz)	Magnitude(dB)
1.000000e+01	-2.121048e+00
1.005776e+01	-2.140301e+00
1.011585e+01	-2.159676e+00
1.017428e+01	-2.179630e+00
1.023305e+01	-2.199260e+00
1.029215e+01	-2.219318e+00
1.035160e+01	-2.239484e+00
1.041139e+01	-2.259574e+00
1.047153e+01	-2.279903e+00
1.053201e+01	-2.300536e+00
1.059284e+01	-2.321139e+00
1.065403e+01	-2.341746e+00
1.071556e+01	-2.362883e+00
1.077746e+01	-2.383950e+00
1.083971e+01	-2.405033e+00
1.090232e+01	-2.426422e+00
1.096529e+01	-2.447953e+00
1.102862e+01	-2.469531e+00
1.109232e+01	-2.491336e+00
1.115639e+01	-2.513042e+00
1.122083e+01	-2.535244e+00
1.128564e+01	-2.557471e+00
1.135083e+01	-2.579618e+00
1.141639e+01	-2.602153e+00
1.148233e+01	-2.624798e+00
1.154865e+01	-2.647424e+00
1.161536e+01	-2.670502e+00
1.168245e+01	-2.693539e+00
1.174992e+01	-2.716718e+00
1.181779e+01	-2.740108e+00
1.188605e+01	-2.763452e+00
1.195470e+01	-2.787050e+00
1.202375e+01	-2.811072e+00
1.209320e+01	-2.834895e+00
1.216305e+01	-2.858829e+00
1.223330e+01	-2.883400e+00
1.230396e+01	-2.907611e+00
1.237503e+01	-2.931935e+00
1.244651e+01	-2.956705e+00
1.251840e+01	-2.981369e+00
1.259070e+01	-3.006518e+00
1.266343e+01	-3.031239e+00
1.273657e+01	-3.056702e+00
1.281014e+01	-3.081711e+00
1.288413e+01	-3.107296e+00
1.295855e+01	-3.133079e+00
1.303339e+01	-3.158851e+00
1.310867e+01	-3.184813e+00
1.318439e+01	-3.210789e+00
1.326054e+01	-3.237011e+00
1.333713e+01	-3.263411e+00
1.341417e+01	-3.289708e+00
1.349165e+01	-3.316607e+00
1.356958e+01	-3.343386e+00
1.364795e+01	-3.370451e+00
1.372678e+01	-3.397199e+00
1.380607e+01	-3.424707e+00
1.388581e+01	-3.451906e+00
1.396602e+01	-3.479372e+00
1.404668e+01	-3.506702e+00
1.412782e+01	-3.534986e+00
1.420942e+01	-3.562795e+00
1.429149e+01	-3.590812e+00
1.437404e+01	-3.619057e+00
1.445706e+01	-3.647402e+00
1.454057e+01	-3.675805e+00
1.462455e+01	-3.704539e+00
1.470902e+01	-3.733250e+00
1.479398e+01	-3.762084e+00
1.487943e+01	-3.791382e+00
1.496537e+01	-3.820362e+00
1.505181e+01	-3.849731e+00
1.513875e+01	-3.879366e+00
1.522619e+01	-3.909230e+00
1.531414e+01	-3.938707e+00
1.540259e+01	-3.968567e+00
1.549156e+01	-3.998685e+00
1.558103e+01	-4.028721e+00
1.567103e+01	-4.059123e+00
1.576155e+01	-4.089590e+00
1.585258e+01	-4.120159e+00
1.594415e+01	-4.150934e+00
1.603624e+01	-4.181963e+00
1.612886e+01	-4.212800e+00
1.622202e+01	-4.243598e+00
1.631572e+01	-4.274952e+00
1.640996e+01	-4.306394e+00
1.650474e+01	-4.337996e+00
1.660008e+01	-4.369661e+00
1.669596e+01	-4.401408e+00
1.679239e+01	-4.433443e+00
1.688938e+01	-4.465431e+00
1.698694e+01	-4.497581e+00
1.708505e+01	-4.530163e+00
1.718373e+01	-4.562778e+00
1.728299e+01	-4.595155e+00
1.738281e+01	-4.627719e+00
1.748322e+01	-4.660728e+00
1.758420e+01	-4.693807e+00
1.768576e+01	-4.726533e+00
1.778792e+01	-4.759897e+00
1.789066e+01	-4.793325e+00
1.799399e+01	-4.826704e+00
1.809793e+01	-4.860680e+00
1.820246e+01	-4.894147e+00
1.830760e+01	-4.928114e+00
1.841334e+01	-4.962285e+00
1.851969e+01	-4.996379e+00
1.862666e+01	-5.030567e+00
1.873425e+01	-5.064812e+00
1.884246e+01	-5.099280e+00
1.895129e+01	-5.134408e+00
1.906075e+01	-5.168654e+00
1.917085e+01	-5.203809e+00
1.928158e+01	-5.238422e+00
1.939295e+01	-5.273925e+00
1.950496e+01	-5.308946e+00
1.961762e+01	-5.344481e+00
1.973093e+01	-5.379716e+00
1.984490e+01	-5.415339e+00
1.995952e+01	-5.451056e+00
2.007480e+01	-5.486929e+00
2.019076e+01	-5.522992e+00
2.030738e+01	-5.558970e+00
2.042467e+01	-5.595174e+00
2.054264e+01	-5.631477e+00
2.066130e+01	-5.667846e+00
2.078064e+01	-5.704423e+00
2.090066e+01	-5.740592e+00
2.102139e+01	-5.777690e+00
2.114280e+01	-5.814550e+00
2.126492e+01	-5.851887e+00
2.138775e+01	-5.888357e+00
2.151128e+01	-5.926074e+00
2.163553e+01	-5.963071e+00
2.176050e+01	-6.000636e+00
2.188619e+01	-6.037569e+00
2.201260e+01	-6.075566e+00
2.213974e+01	-6.113267e+00
2.226762e+01	-6.151036e+00
2.239624e+01	-6.189116e+00
2.252560e+01	-6.227485e+00
2.265571e+01	-6.265389e+00
2.278656e+01	-6.303171e+00
2.291818e+01	-6.342132e+00
2.305055e+01	-6.380512e+00
2.318369e+01	-6.418895e+00
2.331760e+01	-6.457470e+00
2.345228e+01	-6.496710e+00
2.358774e+01	-6.535363e+00
2.372398e+01	-6.574544e+00
2.386101e+01	-6.613540e+00
2.399883e+01	-6.652327e+00
2.413745e+01	-6.691302e+00
2.427686e+01	-6.730793e+00
2.441709e+01	-6.770565e+00
2.455812e+01	-6.810103e+00
2.469997e+01	-6.849858e+00
2.484263e+01	-6.889253e+00
2.498612e+01	-6.929353e+00
2.513044e+01	-6.969225e+00
2.527559e+01	-7.009353e+00
2.542158e+01	-7.049163e+00
2.556842e+01	-7.089617e+00
2.571610e+01	-7.130161e+00
2.586463e+01	-7.169964e+00
2.601403e+01	-7.210430e+00
2.616428e+01	-7.251081e+00
2.631541e+01	-7.291941e+00
2.646740e+01	-7.332915e+00
2.662028e+01	-7.373387e+00
2.677404e+01	-7.414282e+00
2.692868e+01	-7.455356e+00
2.708422e+01	-7.496375e+00
2.724066e+01	-7.537593e+00
2.739800e+01	-7.578838e+00
2.755625e+01	-7.620162e+00
2.771541e+01	-7.661573e+00
2.787550e+01	-7.703150e+00
2.803650e+01	-7.744751e+00
2.819844e+01	-7.786718e+00
2.836131e+01	-7.827976e+00
2.852513e+01	-7.869559e+00
2.868989e+01	-7.911925e+00
2.885560e+01	-7.953733e+00
2.902227e+01	-7.995719e+00
2.918990e+01	-8.037500e+00
2.935850e+01	-8.080012e+00
2.952807e+01	-8.122675e+00
2.969863e+01	-8.165206e+00
2.987016e+01	-8.207146e+00
3.004269e+01	-8.249906e+00
3.021622e+01	-8.292555e+00
3.039075e+01	-8.335200e+00
3.056628e+01	-8.377340e+00
3.074283e+01	-8.420113e+00
3.092040e+01	-8.463308e+00
3.109900e+01	-8.506206e+00
3.127862e+01	-8.549383e+00
3.145929e+01	-8.592082e+00
3.164099e+01	-8.635020e+00
3.182375e+01	-8.678476e+00
3.200756e+01	-8.721737e+00
3.219244e+01	-8.765226e+00
3.237838e+01	-8.809066e+00
3.256540e+01	-8.852091e+00
3.275349e+01	-8.895531e+00
3.294268e+01	-8.939600e+00
3.313295e+01	-8.983059e+00
3.332433e+01	-9.027186e+00
3.351681e+01	-9.070710e+00
3.371040e+01	-9.114506e+00
3.390511e+01	-9.158433e+00
3.410094e+01	-9.201950e+00
3.429791e+01	-9.246465e+00
3.449601e+01	-9.290357e+00
3.469526e+01	-9.334791e+00
3.489566e+01	-9.378505e+00
3.509721e+01	-9.422902e+00
3.529993e+01	-9.468432e+00
3.550382e+01	-9.511891e+00
3.570889e+01	-9.556245e+00
3.591515e+01	-9.600727e+00
3.612259e+01	-9.645702e+00
3.633123e+01	-9.690007e+00
3.654108e+01	-9.734944e+00
3.675214e+01	-9.779720e+00
3.696442e+01	-9.824417e+00
3.717792e+01	-9.869348e+00
3.739266e+01	-9.914301e+00
3.760864e+01	-9.959463e+00
3.782587e+01	-1.000407e+01
3.804435e+01	-1.004883e+01
3.826409e+01	-1.009387e+01
3.848510e+01	-1.013938e+01
3.870739e+01	-1.018491e+01
3.893096e+01	-1.022906e+01
3.915583e+01	-1.027528e+01
3.938199e+01	-1.032001e+01
3.960946e+01	-1.036630e+01
3.983824e+01	-1.041115e+01
4.006834e+01	-1.045686e+01
4.029978e+01	-1.050281e+01
4.053255e+01	-1.054835e+01
4.076666e+01	-1.059360e+01
4.100213e+01	-1.063939e+01
4.123896e+01	-1.068507e+01
4.147715e+01	-1.073077e+01
4.171672e+01	-1.077692e+01
4.195767e+01	-1.082239e+01
4.220002e+01	-1.086788e+01
4.244377e+01	-1.091428e+01
4.268892e+01	-1.096037e+01
4.293549e+01	-1.100676e+01
4.318348e+01	-1.105238e+01
4.343291e+01	-1.109864e+01
4.368377e+01	-1.114490e+01
4.393609e+01	-1.119048e+01
4.418986e+01	-1.123717e+01
4.444510e+01	-1.128321e+01
4.470182e+01	-1.133013e+01
4.496001e+01	-1.137566e+01
4.521970e+01	-1.142269e+01
4.548089e+01	-1.146899e+01
4.574358e+01	-1.151564e+01
4.600779e+01	-1.156224e+01
4.627353e+01	-1.160860e+01
4.654081e+01	-1.165506e+01
4.680963e+01	-1.170107e+01
4.708000e+01	-1.174815e+01
4.735193e+01	-1.179482e+01
4.762543e+01	-1.184132e+01
4.790051e+01	-1.188870e+01
4.817719e+01	-1.193529e+01
4.845545e+01	-1.198204e+01
4.873533e+01	-1.202908e+01
4.901682e+01	-1.207648e+01
4.929994e+01	-1.212337e+01
4.958470e+01	-1.216984e+01
4.987110e+01	-1.221692e+01
5.015915e+01	-1.226402e+01
5.044887e+01	-1.231040e+01
5.074026e+01	-1.235779e+01
5.103333e+01	-1.240507e+01
5.132810e+01	-1.245271e+01
5.162457e+01	-1.249959e+01
5.192275e+01	-1.254731e+01
5.222265e+01	-1.259407e+01
5.252429e+01	-1.264123e+01
5.282767e+01	-1.268920e+01
5.313280e+01	-1.273602e+01
5.343969e+01	-1.278368e+01
5.374836e+01	-1.283102e+01
5.405880e+01	-1.287873e+01
5.437105e+01	-1.292576e+01
5.468509e+01	-1.297327e+01
5.500095e+01	-1.302041e+01
5.531863e+01	-1.306790e+01
5.563815e+01	-1.311598e+01
5.595951e+01	-1.316391e+01
5.628273e+01	-1.321149e+01
5.660782e+01	-1.325875e+01
5.693479e+01	-1.330675e+01
5.726364e+01	-1.335412e+01
5.759439e+01	-1.340245e+01
5.792705e+01	-1.345025e+01
5.826164e+01	-1.349742e+01
5.859815e+01	-1.354496e+01
5.893662e+01	-1.359248e+01
5.927703e+01	-1.364122e+01
5.961941e+01	-1.368793e+01
5.996377e+01	-1.373744e+01
6.031012e+01	-1.378503e+01
6.065847e+01	-1.383359e+01
6.100883e+01	-1.388003e+01
6.136121e+01	-1.392888e+01
6.171563e+01	-1.397679e+01
6.207210e+01	-1.402420e+01
6.243063e+01	-1.407231e+01
6.279122e+01	-1.412062e+01
6.315390e+01	-1.416914e+01
6.351868e+01	-1.421763e+01
6.388556e+01	-1.426548e+01
6.425456e+01	-1.431413e+01
6.462569e+01	-1.436113e+01
6.499897e+01	-1.440969e+01
6.537440e+01	-1.445844e+01
6.575200e+01	-1.450644e+01
6.613178e+01	-1.455435e+01
6.651375e+01	-1.460266e+01
6.689793e+01	-1.465072e+01
6.728433e+01	-1.469943e+01
6.767297e+01	-1.474865e+01
6.806384e+01	-1.479599e+01
6.845698e+01	-1.484416e+01
6.885238e+01	-1.489414e+01
6.925007e+01	-1.494135e+01
6.965005e+01	-1.498942e+01
7.005235e+01	-1.503821e+01
7.045697e+01	-1.508669e+01
7.086393e+01	-1.513525e+01
7.127323e+01	-1.518302e+01
7.168490e+01	-1.523189e+01
7.209895e+01	-1.527962e+01
7.251539e+01	-1.532954e+01
7.293424e+01	-1.537749e+01
7.335551e+01	-1.542624e+01
7.377920e+01	-1.547498e+01
7.420535e+01	-1.552317e+01
7.463396e+01	-1.557097e+01
7.506504e+01	-1.562112e+01
7.549861e+01	-1.566897e+01
7.593469e+01	-1.571751e+01
7.637328e+01	-1.576648e+01
7.681441e+01	-1.581578e+01
7.725809e+01	-1.586458e+01
7.770433e+01	-1.591302e+01
7.815315e+01	-1.596207e+01
7.860456e+01	-1.600997e+01
7.905857e+01	-1.606021e+01
7.951521e+01	-1.610866e+01
7.997449e+01	-1.615730e+01
8.043642e+01	-1.620529e+01
8.090102e+01	-1.625512e+01
8.136830e+01	-1.630447e+01
8.183828e+01	-1.635308e+01
8.231097e+01	-1.640065e+01
8.278640e+01	-1.645002e+01
8.326457e+01	-1.649995e+01
8.374550e+01	-1.654816e+01
8.422921e+01	-1.659713e+01
8.471572e+01	-1.664605e+01
8.520503e+01	-1.669496e+01
8.569717e+01	-1.674386e+01
8.619215e+01	-1.679274e+01
8.669000e+01	-1.684195e+01
8.719071e+01	-1.689116e+01
8.769432e+01	-1.693931e+01
8.820084e+01	-1.698894e+01
8.871029e+01	-1.703721e+01
8.922267e+01	-1.708753e+01
8.973802e+01	-1.713657e+01
9.025634e+01	-1.718449e+01
9.077766e+01	-1.723315e+01
9.130199e+01	-1.728285e+01
9.182935e+01	-1.733148e+01
9.235975e+01	-1.738221e+01
9.289321e+01	-1.743089e+01
9.342976e+01	-1.747909e+01
9.396941e+01	-1.752828e+01
9.451217e+01	-1.757713e+01
9.505807e+01	-1.762581e+01
9.560712e+01	-1.767541e+01
9.615934e+01	-1.772513e+01
9.671476e+01	-1.777426e+01
9.727338e+01	-1.782346e+01
9.783522e+01	-1.787408e+01
9.840032e+01	-1.792232e+01
9.896867e+01	-1.797181e+01
9.954031e+01	-1.802271e+01
1.001153e+02	-1.807060e+01
1.006935e+02	-1.811779e+01
1.012751e+02	-1.816922e+01
1.018601e+02	-1.821673e+01
1.024484e+02	-1.826762e+01
1.030402e+02	-1.831680e+01
1.036353e+02	-1.836540e+01
1.042339e+02	-1.841483e+01
1.048360e+02	-1.846400e+01
1.054415e+02	-1.851483e+01
1.060505e+02	-1.856266e+01
1.066631e+02	-1.861253e+01
1.072791e+02	-1.866195e+01
1.078988e+02	-1.871166e+01
1.085220e+02	-1.876035e+01
1.091488e+02	-1.880890e+01
1.097793e+02	-1.885858e+01
1.104133e+02	-1.890785e+01
1.110511e+02	-1.895756e+01
1.116925e+02	-1.900689e+01
1.123376e+02	-1.905759e+01
1.129865e+02	-1.910524e+01
1.136391e+02	-1.915555e+01
1.142955e+02	-1.920406e+01
1.149556e+02	-1.925415e+01
1.156196e+02	-1.930321e+01
1.162874e+02	-1.935297e+01
1.169591e+02	-1.940290e+01
1.176347e+02	-1.945321e+01
1.183141e+02	-1.950294e+01
1.189975e+02	-1.955077e+01
1.196848e+02	-1.960020e+01
1.203761e+02	-1.965014e+01
1.210714e+02	-1.969993e+01
1.217707e+02	-1.974973e+01
1.224740e+02	-1.979786e+01
1.231814e+02	-1.984818e+01
1.238929e+02	-1.989703e+01
1.246085e+02	-1.994775e+01
1.253283e+02	-1.999594e+01
1.260522e+02	-2.004538e+01
1.267802e+02	-2.009665e+01
1.275125e+02	-2.014501e+01
1.282490e+02	-2.019566e+01
1.289898e+02	-2.024323e+01
1.297348e+02	-2.029531e+01
1.304842e+02	-2.034387e+01
1.312378e+02	-2.039350e+01
1.319959e+02	-2.044149e+01
1.327583e+02	-2.049373e+01
1.335251e+02	-2.054154e+01
1.342963e+02	-2.059067e+01
1.350720e+02	-2.064158e+01
1.358522e+02	-2.069164e+01
1.366368e+02	-2.073996e+01
1.374260e+02	-2.078947e+01
1.382198e+02	-2.083938e+01
1.390182e+02	-2.088975e+01
1.398211e+02	-2.093763e+01
1.406287e+02	-2.098655e+01
1.414410e+02	-2.103804e+01
1.422579e+02	-2.108546e+01
1.430796e+02	-2.113630e+01
1.439060e+02	-2.118845e+01
1.447372e+02	-2.123808e+01
1.455732e+02	-2.128779e+01
1.464141e+02	-2.133422e+01
1.472597e+02	-2.138604e+01
1.481103e+02	-2.143535e+01
1.489658e+02	-2.148443e+01
1.498262e+02	-2.153514e+01
1.506916e+02	-2.158486e+01
1.515620e+02	-2.163407e+01
1.524374e+02	-2.168243e+01
1.533179e+02	-2.173282e+01
1.542034e+02	-2.178427e+01
1.550941e+02	-2.183334e+01
1.559899e+02	-2.188460e+01
1.568909e+02	-2.193323e+01
1.577971e+02	-2.198361e+01
1.587085e+02	-2.203148e+01
1.596252e+02	-2.208203e+01
1.605472e+02	-2.213032e+01
1.614745e+02	-2.218070e+01
1.624072e+02	-2.223091e+01
1.633453e+02	-2.227879e+01
1.642887e+02	-2.233176e+01
1.652377e+02	-2.237894e+01
1.661921e+02	-2.242947e+01
1.671520e+02	-2.247821e+01
1.681175e+02	-2.252930e+01
1.690885e+02	-2.257948e+01
1.700651e+02	-2.262852e+01
1.710474e+02	-2.267733e+01
1.720354e+02	-2.272998e+01
1.730291e+02	-2.277732e+01
1.740285e+02	-2.282973e+01
1.750337e+02	-2.287538e+01
1.760446e+02	-2.292799e+01
1.770615e+02	-2.297609e+01
1.780842e+02	-2.302525e+01
1.791128e+02	-2.307730e+01
1.801473e+02	-2.312870e+01
1.811878e+02	-2.317615e+01
1.822344e+02	-2.322547e+01
1.832870e+02	-2.327789e+01
1.843456e+02	-2.332499e+01
1.854104e+02	-2.337465e+01
1.864813e+02	-2.342569e+01
1.875584e+02	-2.347678e+01
1.886418e+02	-2.352324e+01
1.897313e+02	-2.357638e+01
1.908272e+02	-2.362406e+01
1.919294e+02	-2.367480e+01
1.930380e+02	-2.372716e+01
1.941530e+02	-2.377488e+01
1.952744e+02	-2.382425e+01
1.964023e+02	-2.387460e+01
1.975367e+02	-2.392234e+01
1.986777e+02	-2.397492e+01
1.998252e+02	-2.402377e+01
2.009794e+02	-2.407389e+01
2.021403e+02	-2.412425e+01
2.033078e+02	-2.416965e+01
2.044821e+02	-2.422205e+01
2.056632e+02	-2.427322e+01
2.068511e+02	-2.432598e+01
2.080459e+02	-2.437460e+01
2.092475e+02	-2.442232e+01
2.104561e+02	-2.447079e+01
2.116717e+02	-2.452255e+01
2.128943e+02	-2.456957e+01
2.141240e+02	-2.462119e+01
2.153608e+02	-2.467381e+01
2.166047e+02	-2.472258e+01
2.178558e+02	-2.477201e+01
2.191141e+02	-2.482229e+01
2.203797e+02	-2.487012e+01
2.216526e+02	-2.491969e+01
2.229329e+02	-2.497139e+01
2.242205e+02	-2.502105e+01
2.255156e+02	-2.507328e+01
2.268182e+02	-2.512212e+01
2.281283e+02	-2.517194e+01
2.294459e+02	-2.522075e+01
2.307712e+02	-2.526793e+01
2.321041e+02	-2.532068e+01
2.334447e+02	-2.537164e+01
2.347931e+02	-2.542131e+01
2.361493e+02	-2.547203e+01
2.375133e+02	-2.551931e+01
2.388851e+02	-2.557209e+01
2.402649e+02	-2.561853e+01
2.416527e+02	-2.567142e+01
2.430484e+02	-2.571927e+01
2.444523e+02	-2.576982e+01
2.458642e+02	-2.581788e+01
2.472843e+02	-2.586766e+01
2.487126e+02	-2.592053e+01
2.501492e+02	-2.597061e+01
2.515940e+02	-2.602154e+01
2.530472e+02	-2.606859e+01
2.545088e+02	-2.611926e+01
2.559789e+02	-2.617176e+01
2.574574e+02	-2.622194e+01
2.589444e+02	-2.626950e+01
2.604401e+02	-2.631578e+01
2.619444e+02	-2.636831e+01
2.634574e+02	-2.642261e+01
2.649791e+02	-2.646842e+01
2.665096e+02	-2.651849e+01
2.680489e+02	-2.657283e+01
2.695972e+02	-2.662022e+01
2.711544e+02	-2.667084e+01
2.727205e+02	-2.671748e+01
2.742958e+02	-2.676595e+01
2.758801e+02	-2.681826e+01
2.774736e+02	-2.686878e+01
2.790762e+02	-2.691852e+01
2.806882e+02	-2.696747e+01
2.823094e+02	-2.701952e+01
2.839400e+02	-2.706843e+01
2.855800e+02	-2.711483e+01
2.872295e+02	-2.716634e+01
2.888886e+02	-2.721974e+01
2.905572e+02	-2.726940e+01
2.922354e+02	-2.732114e+01
2.939234e+02	-2.736702e+01
2.956211e+02	-2.741859e+01
2.973286e+02	-2.746862e+01
2.990459e+02	-2.751632e+01
3.007732e+02	-2.756873e+01
3.025104e+02	-2.761987e+01
3.042577e+02	-2.766703e+01
3.060151e+02	-2.771855e+01
3.077826e+02	-2.776813e+01
3.095604e+02	-2.781975e+01
3.113484e+02	-2.786435e+01
3.131467e+02	-2.791842e+01
3.149554e+02	-2.797207e+01
3.167746e+02	-2.801487e+01
3.186043e+02	-2.807148e+01
3.204445e+02	-2.811626e+01
3.222954e+02	-2.817228e+01
3.241570e+02	-2.821822e+01
3.260293e+02	-2.827029e+01
3.279124e+02	-2.831837e+01
3.298064e+02	-2.836899e+01
3.317114e+02	-2.842033e+01
3.336273e+02	-2.846884e+01
3.355544e+02	-2.851357e+01
3.374925e+02	-2.856811e+01
3.394418e+02	-2.861922e+01
3.414024e+02	-2.866612e+01
3.433744e+02	-2.871788e+01
3.453577e+02	-2.877438e+01
3.473525e+02	-2.881770e+01
3.493588e+02	-2.887334e+01
3.513766e+02	-2.892162e+01
3.534062e+02	-2.897037e+01
3.554474e+02	-2.901754e+01
3.575005e+02	-2.907060e+01
3.595654e+02	-2.912358e+01
3.616422e+02	-2.917042e+01
3.637311e+02	-2.921728e+01
3.658320e+02	-2.927491e+01
3.679450e+02	-2.931956e+01
3.700702e+02	-2.937344e+01
3.722077e+02	-2.942301e+01
3.743576e+02	-2.947718e+01
3.765199e+02	-2.951905e+01
3.786946e+02	-2.956856e+01
3.808820e+02	-2.962344e+01
3.830819e+02	-2.966787e+01
3.852946e+02	-2.971818e+01
3.875200e+02	-2.977241e+01
3.897583e+02	-2.982573e+01
3.920096e+02	-2.987466e+01
3.942738e+02	-2.992283e+01
3.965511e+02	-2.997038e+01
3.988416e+02	-3.002168e+01
4.011452e+02	-3.006950e+01
4.034622e+02	-3.012191e+01
4.057926e+02	-3.017573e+01
4.081365e+02	-3.022108e+01
4.104938e+02	-3.027207e+01
4.128648e+02	-3.032150e+01
4.152495e+02	-3.037141e+01
4.176480e+02	-3.041622e+01
4.200603e+02	-3.047517e+01
4.224866e+02	-3.052528e+01
4.249268e+02	-3.057245e+01
4.273812e+02	-3.061556e+01
4.298497e+02	-3.067983e+01
4.323325e+02	-3.072193e+01
4.348297e+02	-3.077142e+01
4.373412e+02	-3.081852e+01
4.398673e+02	-3.087535e+01
4.424079e+02	-3.092026e+01
4.449633e+02	-3.097128e+01
4.475334e+02	-3.102693e+01
4.501183e+02	-3.108097e+01
4.527182e+02	-3.112260e+01
4.553330e+02	-3.117917e+01
4.579630e+02	-3.121948e+01
4.606082e+02	-3.127420e+01
4.632687e+02	-3.132593e+01
4.659445e+02	-3.137508e+01
4.686358e+02	-3.142187e+01
4.713426e+02	-3.147360e+01
4.740650e+02	-3.152722e+01
4.768032e+02	-3.157232e+01
4.795572e+02	-3.162583e+01
4.823271e+02	-3.166899e+01
4.851130e+02	-3.172710e+01
4.879150e+02	-3.178084e+01
4.907332e+02	-3.181933e+01
4.935676e+02	-3.187065e+01
4.964185e+02	-3.192193e+01
4.992858e+02	-3.198019e+01
5.021696e+02	-3.202590e+01
5.050701e+02	-3.207635e+01
5.079874e+02	-3.212479e+01
5.109215e+02	-3.217484e+01
5.138726e+02	-3.222814e+01
5.168407e+02	-3.227512e+01
5.198259e+02	-3.233293e+01
5.228284e+02	-3.237719e+01
5.258482e+02	-3.243122e+01
5.288855e+02	-3.248248e+01
5.319403e+02	-3.253192e+01
5.350128e+02	-3.257981e+01
5.381030e+02	-3.262846e+01
5.412111e+02	-3.267910e+01
5.443371e+02	-3.272863e+01
5.474812e+02	-3.278004e+01
5.506434e+02	-3.283259e+01
5.538239e+02	-3.287788e+01
5.570228e+02	-3.292814e+01
5.602401e+02	-3.298511e+01
5.634760e+02	-3.302985e+01
5.667306e+02	-3.308820e+01
5.700040e+02	-3.312711e+01
5.732964e+02	-3.318771e+01
5.766077e+02	-3.323675e+01
5.799382e+02	-3.328623e+01
5.832879e+02	-3.332675e+01
5.866569e+02	-3.338850e+01
5.900454e+02	-3.344126e+01
5.934535e+02	-3.348363e+01
5.968813e+02	-3.353378e+01
6.003288e+02	-3.358751e+01
6.037963e+02	-3.363166e+01
6.072838e+02	-3.368572e+01
6.107914e+02	-3.373197e+01
6.143194e+02	-3.378528e+01
6.178676e+02	-3.383959e+01
6.214364e+02	-3.389052e+01
6.250258e+02	-3.393954e+01
6.286359e+02	-3.398547e+01
6.322669e+02	-3.403836e+01
6.359189e+02	-3.408680e+01
6.395919e+02	-3.412773e+01
6.432862e+02	-3.419062e+01
6.470017e+02	-3.422925e+01
6.507388e+02	-3.428806e+01
6.544974e+02	-3.434328e+01
6.582778e+02	-3.438658e+01
6.620800e+02	-3.443703e+01
6.659041e+02	-3.449119e+01
6.697504e+02	-3.454221e+01
6.736188e+02	-3.459295e+01
6.775096e+02	-3.463299e+01
6.814229e+02	-3.469655e+01
6.853587e+02	-3.474503e+01
6.893173e+02	-3.478861e+01
6.932988e+02	-3.483996e+01
6.973033e+02	-3.488691e+01
7.013309e+02	-3.493766e+01
