Frequency(Hz)	Magnitude(dB)
1.000000e+01	-2.012698e+00
1.005776e+01	-2.031323e+00
1.011585e+01	-2.049952e+00
1.017428e+01	-2.068808e+00
1.023305e+01	-2.087833e+00
1.029215e+01	-2.106857e+00
1.035160e+01	-2.126357e+00
1.041139e+01	-2.145568e+00
1.047153e+01	-2.165241e+00
1.053201e+01	-2.185234e+00
1.059284e+01	-2.204807e+00
1.065403e+01	-2.224795e+00
1.071556e+01	-2.245175e+00
1.077746e+01	-2.265223e+00
1.083971e+01	-2.285527e+00
1.090232e+01	-2.306279e+00
1.096529e+01	-2.326760e+00
1.102862e+01	-2.347679e+00
1.109232e+01	-2.368777e+00
1.115639e+01	-2.389770e+00
1.122083e+01	-2.411018e+00
1.128564e+01	-2.432311e+00
1.135083e+01	-2.453924e+00
1.141639e+01	-2.475377e+00
1.148233e+01	-2.497324e+00
1.154865e+01	-2.519228e+00
1.161536e+01	-2.541249e+00
1.168245e+01	-2.563493e+00
1.174992e+01	-2.586066e+00
1.181779e+01	-2.608293e+00
1.188605e+01	-2.630957e+00
1.195470e+01	-2.653881e+00
1.202375e+01	-2.677170e+00
1.209320e+01	-2.699950e+00
1.216305e+01	-2.723413e+00
1.223330e+01	-2.746678e+00
1.230396e+01	-2.769951e+00
1.237503e+01	-2.793885e+00
1.244651e+01	-2.817744e+00
1.251840e+01	-2.841429e+00
1.259070e+01	-2.865589e+00
1.266343e+01	-2.889853e+00
1.273657e+01	-2.914400e+00
1.281014e+01	-2.938758e+00
1.288413e+01	-2.963563e+00
1.295855e+01	-2.988350e+00
1.303339e+01	-3.013101e+00
1.310867e+01	-3.038126e+00
1.318439e+01	-3.063448e+00
1.326054e+01	-3.088966e+00
1.333713e+01	-3.114498e+00
1.341417e+01	-3.139996e+00
1.349165e+01	-3.166128e+00
1.356958e+01	-3.191913e+00
1.364795e+01	-3.217979e+00
1.372678e+01	-3.244601e+00
1.380607e+01	-3.270603e+00
1.388581e+01	-3.297237e+00
1.396602e+01	-3.323990e+00
1.404668e+01	-3.350767e+00
1.412782e+01	-3.377775e+00
1.420942e+01	-3.405052e+00
1.429149e+01	-3.431894e+00
1.437404e+01	-3.459486e+00
1.445706e+01	-3.487181e+00
1.454057e+01	-3.514743e+00
1.462455e+01	-3.542429e+00
1.470902e+01	-3.570480e+00
1.479398e+01	-3.598815e+00
1.487943e+01	-3.626926e+00
1.496537e+01	-3.655172e+00
1.505181e+01	-3.683866e+00
1.513875e+01	-3.712513e+00
1.522619e+01	-3.741454e+00
1.531414e+01	-3.770416e+00
1.540259e+01	-3.799506e+00
1.549156e+01	-3.828511e+00
1.558103e+01	-3.858049e+00
1.567103e+01	-3.887346e+00
1.576155e+01	-3.917177e+00
1.585258e+01	-3.946723e+00
1.594415e+01	-3.976982e+00
1.603624e+01	-4.007369e+00
1.612886e+01	-4.037265e+00
1.622202e+01	-4.067691e+00
1.631572e+01	-4.098008e+00
1.640996e+01	-4.128694e+00
1.650474e+01	-4.159551e+00
1.660008e+01	-4.190598e+00
1.669596e+01	-4.221345e+00
1.679239e+01	-4.252528e+00
1.688938e+01	-4.283901e+00
1.698694e+01	-4.315381e+00
1.708505e+01	-4.346723e+00
1.718373e+01	-4.378756e+00
1.728299e+01	-4.410140e+00
1.738281e+01	-4.442386e+00
1.748322e+01	-4.474562e+00
1.758420e+01	-4.506453e+00
1.768576e+01	-4.539336e+00
1.778792e+01	-4.571517e+00
1.789066e+01	-4.604031e+00
1.799399e+01	-4.636764e+00
1.809793e+01	-4.669693e+00
1.820246e+01	-4.702946e+00
1.830760e+01	-4.735920e+00
1.841334e+01	-4.769607e+00
1.851969e+01	-4.802367e+00
1.862666e+01	-4.836264e+00
1.873425e+01	-4.869786e+00
1.884246e+01	-4.903690e+00
1.895129e+01	-4.937604e+00
1.906075e+01	-4.971809e+00
1.917085e+01	-5.005624e+00
1.928158e+01	-5.040261e+00
1.939295e+01	-5.074461e+00
1.950496e+01	-5.109125e+00
1.961762e+01	-5.143621e+00
1.973093e+01	-5.178524e+00
1.984490e+01	-5.213435e+00
1.995952e+01	-5.248145e+00
2.007480e+01	-5.283415e+00
2.019076e+01	-5.318618e+00
2.030738e+01	-5.354081e+00
2.042467e+01	-5.389820e+00
2.054264e+01	-5.425433e+00
2.066130e+01	-5.460900e+00
2.078064e+01	-5.496687e+00
2.090066e+01	-5.532739e+00
2.102139e+01	-5.568921e+00
2.114280e+01	-5.605444e+00
2.126492e+01	-5.641521e+00
2.138775e+01	-5.678003e+00
2.151128e+01	-5.714504e+00
2.163553e+01	-5.751146e+00
2.176050e+01	-5.788174e+00
2.188619e+01	-5.824546e+00
2.201260e+01	-5.861851e+00
2.213974e+01	-5.899023e+00
2.226762e+01	-5.936316e+00
2.239624e+01	-5.973455e+00
2.252560e+01	-6.010985e+00
2.265571e+01	-6.048284e+00
2.278656e+01	-6.085912e+00
2.291818e+01	-6.123883e+00
2.305055e+01	-6.161808e+00
2.318369e+01	-6.199580e+00
2.331760e+01	-6.237605e+00
2.345228e+01	-6.276090e+00
2.358774e+01	-6.314118e+00
2.372398e+01	-6.352558e+00
2.386101e+01	-6.391603e+00
2.399883e+01	-6.429840e+00
2.413745e+01	-6.468606e+00
2.427686e+01	-6.507217e+00
2.441709e+01	-6.546405e+00
2.455812e+01	-6.585043e+00
2.469997e+01	-6.624308e+00
2.484263e+01	-6.663538e+00
2.498612e+01	-6.702906e+00
2.513044e+01	-6.742119e+00
2.527559e+01	-6.781699e+00
2.542158e+01	-6.821218e+00
2.556842e+01	-6.860516e+00
2.571610e+01	-6.900545e+00
2.586463e+01	-6.940295e+00
2.601403e+01	-6.980321e+00
2.616428e+01	-7.020844e+00
2.631541e+01	-7.059905e+00
2.646740e+01	-7.100722e+00
2.662028e+01	-7.140932e+00
2.677404e+01	-7.181097e+00
2.692868e+01	-7.222202e+00
2.708422e+01	-7.262088e+00
2.724066e+01	-7.303284e+00
2.739800e+01	-7.343933e+00
2.755625e+01	-7.384625e+00
2.771541e+01	-7.425830e+00
2.787550e+01	-7.466764e+00
2.803650e+01	-7.507731e+00
2.819844e+01	-7.549265e+00
2.836131e+01	-7.590596e+00
2.852513e+01	-7.631828e+00
2.868989e+01	-7.673328e+00
2.885560e+01	-7.714720e+00
2.902227e+01	-7.756552e+00
2.918990e+01	-7.798209e+00
2.935850e+01	-7.839874e+00
2.952807e+01	-7.881232e+00
2.969863e+01	-7.923499e+00
2.987016e+01	-7.965276e+00
3.004269e+01	-8.007603e+00
3.021622e+01	-8.049359e+00
3.039075e+01	-8.091683e+00
3.056628e+01	-8.134156e+00
3.074283e+01	-8.176462e+00
3.092040e+01	-8.219563e+00
3.109900e+01	-8.261651e+00
3.127862e+01	-8.303788e+00
3.145929e+01	-8.346836e+00
3.164099e+01	-8.389771e+00
3.182375e+01	-8.431946e+00
3.200756e+01	-8.475856e+00
3.219244e+01	-8.518460e+00
3.237838e+01	-8.561206e+00
3.256540e+01	-8.604429e+00
3.275349e+01	-8.647785e+00
3.294268e+01	-8.690449e+00
3.313295e+01	-8.734010e+00
3.332433e+01	-8.777221e+00
3.351681e+01	-8.820792e+00
3.371040e+01	-8.864374e+00
3.390511e+01	-8.908414e+00
3.410094e+01	-8.951152e+00
3.429791e+01	-8.995480e+00
3.449601e+01	-9.039166e+00
3.469526e+01	-9.082573e+00
3.489566e+01	-9.127013e+00
3.509721e+01	-9.171025e+00
3.529993e+01	-9.214612e+00
3.550382e+01	-9.258214e+00
3.570889e+01	-9.302551e+00
3.591515e+01	-9.346948e+00
3.612259e+01	-9.391107e+00
3.633123e+01	-9.434893e+00
3.654108e+01	-9.479713e+00
3.675214e+01	-9.524324e+00
3.696442e+01	-9.568599e+00
3.717792e+01	-9.613363e+00
3.739266e+01	-9.657638e+00
3.760864e+01	-9.702322e+00
3.782587e+01	-9.746904e+00
3.804435e+01	-9.792184e+00
3.826409e+01	-9.836536e+00
3.848510e+01	-9.881860e+00
3.870739e+01	-9.926772e+00
3.893096e+01	-9.971930e+00
3.915583e+01	-1.001656e+01
3.938199e+01	-1.006161e+01
3.960946e+01	-1.010694e+01
3.983824e+01	-1.015216e+01
4.006834e+01	-1.019692e+01
4.029978e+01	-1.024251e+01
4.053255e+01	-1.028746e+01
4.076666e+01	-1.033277e+01
4.100213e+01	-1.037838e+01
4.123896e+01	-1.042389e+01
4.147715e+01	-1.046920e+01
4.171672e+01	-1.051475e+01
4.195767e+01	-1.056078e+01
4.220002e+01	-1.060637e+01
4.244377e+01	-1.065239e+01
4.268892e+01	-1.069742e+01
4.293549e+01	-1.074366e+01
4.318348e+01	-1.078934e+01
4.343291e+01	-1.083527e+01
4.368377e+01	-1.088077e+01
4.393609e+01	-1.092725e+01
4.418986e+01	-1.097280e+01
4.444510e+01	-1.101899e+01
4.470182e+01	-1.106531e+01
4.496001e+01	-1.111100e+01
4.521970e+01	-1.115763e+01
4.548089e+01	-1.120436e+01
4.574358e+01	-1.124989e+01
4.600779e+01	-1.129643e+01
4.627353e+01	-1.134294e+01
4.654081e+01	-1.138889e+01
4.680963e+01	-1.143576e+01
4.708000e+01	-1.148118e+01
4.735193e+01	-1.152829e+01
4.762543e+01	-1.157492e+01
4.790051e+01	-1.162099e+01
4.817719e+01	-1.166855e+01
4.845545e+01	-1.171495e+01
4.873533e+01	-1.176157e+01
4.901682e+01	-1.180814e+01
4.929994e+01	-1.185496e+01
4.958470e+01	-1.190167e+01
4.987110e+01	-1.194820e+01
5.015915e+01	-1.199533e+01
5.044887e+01	-1.204224e+01
5.074026e+01	-1.208943e+01
5.103333e+01	-1.213623e+01
5.132810e+01	-1.218337e+01
5.162457e+01	-1.222956e+01
5.192275e+01	-1.227700e+01
5.222265e+01	-1.232385e+01
5.252429e+01	-1.237157e+01
5.282767e+01	-1.241836e+01
5.313280e+01	-1.246561e+01
5.343969e+01	-1.251272e+01
5.374836e+01	-1.255998e+01
5.405880e+01	-1.260758e+01
5.437105e+01	-1.265478e+01
5.468509e+01	-1.270219e+01
5.500095e+01	-1.274939e+01
5.531863e+01	-1.279645e+01
5.563815e+01	-1.284437e+01
5.595951e+01	-1.289205e+01
5.628273e+01	-1.293963e+01
5.660782e+01	-1.298683e+01
5.693479e+01	-1.303374e+01
5.726364e+01	-1.308126e+01
5.759439e+01	-1.312936e+01
5.792705e+01	-1.317675e+01
5.826164e+01	-1.322473e+01
5.859815e+01	-1.327233e+01
5.893662e+01	-1.332031e+01
5.927703e+01	-1.336783e+01
5.961941e+01	-1.341517e+01
5.996377e+01	-1.346275e+01
6.031012e+01	-1.351114e+01
6.065847e+01	-1.355871e+01
6.100883e+01	-1.360570e+01
6.136121e+01	-1.365352e+01
6.171563e+01	-1.370203e+01
6.207210e+01	-1.374985e+01
6.243063e+01	-1.379810e+01
6.279122e+01	-1.384560e+01
6.315390e+01	-1.389382e+01
6.351868e+01	-1.394220e+01
6.388556e+01	-1.398938e+01
6.425456e+01	-1.403800e+01
6.462569e+01	-1.408688e+01
6.499897e+01	-1.413457e+01
6.537440e+01	-1.418221e+01
6.575200e+01	-1.423026e+01
6.613178e+01	-1.427911e+01
6.651375e+01	-1.432667e+01
6.689793e+01	-1.437438e+01
6.728433e+01	-1.442338e+01
6.767297e+01	-1.447117e+01
6.806384e+01	-1.451929e+01
6.845698e+01	-1.456747e+01
6.885238e+01	-1.461572e+01
6.925007e+01	-1.466436e+01
6.965005e+01	-1.471262e+01
7.005235e+01	-1.476073e+01
7.045697e+01	-1.480943e+01
7.086393e+01	-1.485782e+01
7.127323e+01	-1.490602e+01
7.168490e+01	-1.495530e+01
7.209895e+01	-1.500329e+01
7.251539e+01	-1.505145e+01
7.293424e+01	-1.509955e+01
7.335551e+01	-1.514731e+01
7.377920e+01	-1.519665e+01
7.420535e+01	-1.524564e+01
7.463396e+01	-1.529364e+01
7.506504e+01	-1.534410e+01
7.549861e+01	-1.539098e+01
7.593469e+01	-1.543944e+01
7.637328e+01	-1.548803e+01
7.681441e+01	-1.553655e+01
7.725809e+01	-1.558595e+01
7.770433e+01	-1.563413e+01
7.815315e+01	-1.568263e+01
7.860456e+01	-1.573165e+01
7.905857e+01	-1.578104e+01
7.951521e+01	-1.582863e+01
7.997449e+01	-1.587795e+01
8.043642e+01	-1.592678e+01
8.090102e+01	-1.597400e+01
8.136830e+01	-1.602413e+01
8.183828e+01	-1.607214e+01
8.231097e+01	-1.612164e+01
8.278640e+01	-1.616919e+01
8.326457e+01	-1.621873e+01
8.374550e+01	-1.626929e+01
8.422921e+01	-1.631739e+01
8.471572e+01	-1.636564e+01
8.520503e+01	-1.641570e+01
8.569717e+01	-1.646487e+01
8.619215e+01	-1.651211e+01
8.669000e+01	-1.656051e+01
8.719071e+01	-1.661124e+01
8.769432e+01	-1.665813e+01
8.820084e+01	-1.670867e+01
8.871029e+01	-1.675670e+01
8.922267e+01	-1.680608e+01
8.973802e+01	-1.685486e+01
9.025634e+01	-1.690511e+01
9.077766e+01	-1.695305e+01
9.130199e+01	-1.700209e+01
9.182935e+01	-1.705169e+01
9.235975e+01	-1.710027e+01
9.289321e+01	-1.714940e+01
9.342976e+01	-1.719861e+01
9.396941e+01	-1.724766e+01
9.451217e+01	-1.729630e+01
9.505807e+01	-1.734545e+01
9.560712e+01	-1.739428e+01
9.615934e+01	-1.744472e+01
9.671476e+01	-1.749357e+01
9.727338e+01	-1.754309e+01
9.783522e+01	-1.759223e+01
9.840032e+01	-1.764137e+01
9.896867e+01	-1.769051e+01
9.954031e+01	-1.773944e+01
1.001153e+02	-1.778897e+01
1.006935e+02	-1.783687e+01
1.012751e+02	-1.788689e+01
1.018601e+02	-1.793549e+01
1.024484e+02	-1.798536e+01
1.030402e+02	-1.803452e+01
1.036353e+02	-1.808338e+01
1.042339e+02	-1.813386e+01
1.048360e+02	-1.818208e+01
1.054415e+02	-1.823062e+01
1.060505e+02	-1.828115e+01
1.066631e+02	-1.832911e+01
1.072791e+02	-1.837801e+01
1.078988e+02	-1.842871e+01
1.085220e+02	-1.847736e+01
1.091488e+02	-1.852727e+01
1.097793e+02	-1.857537e+01
1.104133e+02	-1.862613e+01
1.110511e+02	-1.867559e+01
1.116925e+02	-1.872458e+01
1.123376e+02	-1.877429e+01
1.129865e+02	-1.882425e+01
1.136391e+02	-1.887244e+01
1.142955e+02	-1.892174e+01
1.149556e+02	-1.897077e+01
1.156196e+02	-1.901963e+01
1.162874e+02	-1.907088e+01
1.169591e+02	-1.911974e+01
1.176347e+02	-1.916820e+01
1.183141e+02	-1.921940e+01
1.189975e+02	-1.926681e+01
1.196848e+02	-1.931850e+01
1.203761e+02	-1.936519e+01
1.210714e+02	-1.941625e+01
1.217707e+02	-1.946656e+01
1.224740e+02	-1.951499e+01
1.231814e+02	-1.956482e+01
1.238929e+02	-1.961408e+01
1.246085e+02	-1.966419e+01
1.253283e+02	-1.971328e+01
1.260522e+02	-1.976348e+01
1.267802e+02	-1.981151e+01
1.275125e+02	-1.986061e+01
1.282490e+02	-1.991214e+01
1.289898e+02	-1.995897e+01
1.297348e+02	-2.001003e+01
1.304842e+02	-2.006020e+01
1.312378e+02	-2.010861e+01
1.319959e+02	-2.015884e+01
1.327583e+02	-2.020922e+01
1.335251e+02	-2.025903e+01
1.342963e+02	-2.030875e+01
1.350720e+02	-2.035916e+01
1.358522e+02	-2.040571e+01
1.366368e+02	-2.045486e+01
1.374260e+02	-2.050656e+01
1.382198e+02	-2.055485e+01
1.390182e+02	-2.060444e+01
1.398211e+02	-2.065380e+01
1.406287e+02	-2.070605e+01
1.414410e+02	-2.075318e+01
1.422579e+02	-2.080419e+01
1.430796e+02	-2.085385e+01
1.439060e+02	-2.090167e+01
1.447372e+02	-2.095171e+01
1.455732e+02	-2.100271e+01
1.464141e+02	-2.105029e+01
1.472597e+02	-2.110152e+01
1.481103e+02	-2.115129e+01
1.489658e+02	-2.120056e+01
1.498262e+02	-2.125144e+01
1.506916e+02	-2.130059e+01
1.515620e+02	-2.134993e+01
1.524374e+02	-2.140072e+01
1.533179e+02	-2.144935e+01
1.542034e+02	-2.149894e+01
1.550941e+02	-2.154764e+01
1.559899e+02	-2.159821e+01
1.568909e+02	-2.164839e+01
1.577971e+02	-2.169550e+01
1.587085e+02	-2.174758e+01
1.596252e+02	-2.179668e+01
1.605472e+02	-2.184548e+01
1.614745e+02	-2.189831e+01
1.624072e+02	-2.194517e+01
1.633453e+02	-2.199436e+01
1.642887e+02	-2.204388e+01
1.652377e+02	-2.209570e+01
1.661921e+02	-2.214588e+01
1.671520e+02	-2.219683e+01
1.681175e+02	-2.224612e+01
1.690885e+02	-2.229617e+01
1.700651e+02	-2.234492e+01
1.710474e+02	-2.239393e+01
1.720354e+02	-2.244231e+01
1.730291e+02	-2.249453e+01
1.740285e+02	-2.254544e+01
1.750337e+02	-2.259214e+01
1.760446e+02	-2.264196e+01
1.770615e+02	-2.269205e+01
1.780842e+02	-2.274299e+01
1.791128e+02	-2.279175e+01
1.801473e+02	-2.284097e+01
1.811878e+02	-2.289324e+01
1.822344e+02	-2.294166e+01
1.832870e+02	-2.299141e+01
1.843456e+02	-2.304229e+01
1.854104e+02	-2.309000e+01
1.864813e+02	-2.314122e+01
1.875584e+02	-2.318995e+01
1.886418e+02	-2.324110e+01
1.897313e+02	-2.329115e+01
1.908272e+02	-2.333832e+01
1.919294e+02	-2.338728e+01
1.930380e+02	-2.344000e+01
1.941530e+02	-2.349008e+01
1.952744e+02	-2.353866e+01
1.964023e+02	-2.358795e+01
1.975367e+02	-2.364010e+01
1.986777e+02	-2.368828e+01
1.998252e+02	-2.373791e+01
2.009794e+02	-2.378774e+01
2.021403e+02	-2.383892e+01
2.033078e+02	-2.388766e+01
2.044821e+02	-2.393658e+01
2.056632e+02	-2.398898e+01
2.068511e+02	-2.403586e+01
2.080459e+02	-2.408883e+01
2.092475e+02	-2.413816e+01
2.104561e+02	-2.418514e+01
2.116717e+02	-2.423779e+01
2.128943e+02	-2.428620e+01
2.141240e+02	-2.433574e+01
2.153608e+02	-2.438513e+01
2.166047e+02	-2.443705e+01
2.178558e+02	-2.448343e+01
2.191141e+02	-2.453768e+01
2.203797e+02	-2.458600e+01
2.216526e+02	-2.463571e+01
2.229329e+02	-2.468813e+01
2.242205e+02	-2.473503e+01
2.255156e+02	-2.478616e+01
2.268182e+02	-2.483657e+01
2.281283e+02	-2.488590e+01
2.294459e+02	-2.493504e+01
2.307712e+02	-2.498835e+01
2.321041e+02	-2.503575e+01
2.334447e+02	-2.508732e+01
2.347931e+02	-2.513896e+01
2.361493e+02	-2.518520e+01
2.375133e+02	-2.523869e+01
2.388851e+02	-2.528568e+01
2.402649e+02	-2.533536e+01
2.416527e+02	-2.538550e+01
2.430484e+02	-2.543391e+01
2.444523e+02	-2.548431e+01
2.458642e+02	-2.553487e+01
2.472843e+02	-2.558435e+01
2.487126e+02	-2.563499e+01
2.501492e+02	-2.568326e+01
2.515940e+02	-2.573197e+01
2.530472e+02	-2.578527e+01
2.545088e+02	-2.583345e+01
2.559789e+02	-2.588600e+01
2.574574e+02	-2.593088e+01
2.589444e+02	-2.598574e+01
2.604401e+02	-2.603334e+01
2.619444e+02	-2.608130e+01
2.634574e+02	-2.613164e+01
2.649791e+02	-2.618320e+01
2.665096e+02	-2.623301e+01
2.680489e+02	-2.628311e+01
2.695972e+02	-2.633106e+01
2.711544e+02	-2.638318e+01
2.727205e+02	-2.643306e+01
2.742958e+02	-2.648492e+01
2.758801e+02	-2.653401e+01
2.774736e+02	-2.658183e+01
2.790762e+02	-2.663053e+01
2.806882e+02	-2.668423e+01
2.823094e+02	-2.673719e+01
2.839400e+02	-2.678777e+01
2.855800e+02	-2.683431e+01
2.872295e+02	-2.688440e+01
2.888886e+02	-2.693205e+01
2.905572e+02	-2.698256e+01
2.922354e+02	-2.703486e+01
2.939234e+02	-2.708517e+01
2.956211e+02	-2.713085e+01
2.973286e+02	-2.718208e+01
2.990459e+02	-2.723463e+01
3.007732e+02	-2.728709e+01
3.025104e+02	-2.733753e+01
3.042577e+02	-2.738326e+01
3.060151e+02	-2.743662e+01
3.077826e+02	-2.748097e+01
3.095604e+02	-2.753430e+01
3.113484e+02	-2.758422e+01
3.131467e+02	-2.763075e+01
3.149554e+02	-2.768421e+01
3.167746e+02	-2.773476e+01
3.186043e+02	-2.778371e+01
3.204445e+02	-2.783135e+01
3.222954e+02	-2.788577e+01
3.241570e+02	-2.793289e+01
3.260293e+02	-2.798233e+01
3.279124e+02	-2.803417e+01
3.298064e+02	-2.808072e+01
3.317114e+02	-2.813704e+01
3.336273e+02	-2.818296e+01
3.355544e+02	-2.823498e+01
3.374925e+02	-2.828752e+01
3.394418e+02	-2.833279e+01
3.414024e+02	-2.838162e+01
3.433744e+02	-2.843472e+01
3.453577e+02	-2.848542e+01
3.473525e+02	-2.853712e+01
3.493588e+02	-2.858249e+01
3.513766e+02	-2.863491e+01
3.534062e+02	-2.868477e+01
3.554474e+02	-2.873537e+01
3.575005e+02	-2.878496e+01
3.595654e+02	-2.883695e+01
3.616422e+02	-2.888562e+01
3.637311e+02	-2.893468e+01
3.658320e+02	-2.898439e+01
3.679450e+02	-2.903704e+01
3.700702e+02	-2.908381e+01
3.722077e+02	-2.913263e+01
3.743576e+02	-2.918339e+01
3.765199e+02	-2.923360e+01
3.786946e+02	-2.928350e+01
3.808820e+02	-2.933538e+01
3.830819e+02	-2.938624e+01
3.852946e+02	-2.943363e+01
3.875200e+02	-2.948910e+01
3.897583e+02	-2.953505e+01
3.920096e+02	-2.958364e+01
3.942738e+02	-2.963471e+01
3.965511e+02	-2.968647e+01
3.988416e+02	-2.973263e+01
4.011452e+02	-2.978946e+01
4.034622e+02	-2.983598e+01
4.057926e+02	-2.988394e+01
4.081365e+02	-2.993700e+01
4.104938e+02	-2.998122e+01
4.128648e+02	-3.003878e+01
4.152495e+02	-3.008270e+01
4.176480e+02	-3.013643e+01
4.200603e+02	-3.018883e+01
4.224866e+02	-3.023329e+01
4.249268e+02	-3.028563e+01
4.273812e+02	-3.033657e+01
4.298497e+02	-3.038061e+01
4.323325e+02	-3.043622e+01
4.348297e+02	-3.049012e+01
4.373412e+02	-3.053963e+01
4.398673e+02	-3.058699e+01
4.424079e+02	-3.063141e+01
4.449633e+02	-3.069039e+01
4.475334e+02	-3.074186e+01
4.501183e+02	-3.078854e+01
4.527182e+02	-3.083688e+01
4.553330e+02	-3.088462e+01
4.579630e+02	-3.093904e+01
4.606082e+02	-3.099086e+01
4.632687e+02	-3.103863e+01
4.659445e+02	-3.108871e+01
4.686358e+02	-3.114072e+01
4.713426e+02	-3.118408e+01
4.740650e+02	-3.124003e+01
4.768032e+02	-3.128720e+01
4.795572e+02	-3.133628e+01
4.823271e+02	-3.139531e+01
4.851130e+02	-3.144157e+01
4.879150e+02	-3.148559e+01
4.907332e+02	-3.153999e+01
4.935676e+02	-3.158819e+01
4.964185e+02	-3.164248e+01
4.992858e+02	-3.169092e+01
5.021696e+02	-3.173521e+01
5.050701e+02	-3.178847e+01
5.079874e+02	-3.184682e+01
5.109215e+02	-3.189364e+01
5.138726e+02	-3.194064e+01
5.168407e+02	-3.198356e+01
5.198259e+02	-3.203579e+01
5.228284e+02	-3.209013e+01
5.258482e+02	-3.214868e+01
5.288855e+02	-3.219074e+01
5.319403e+02	-3.224592e+01
5.350128e+02	-3.229214e+01
5.381030e+02	-3.234179e+01
5.412111e+02	-3.239261e+01
5.443371e+02	-3.244119e+01
5.474812e+02	-3.248874e+01
5.506434e+02	-3.254102e+01
5.538239e+02	-3.260204e+01
5.570228e+02	-3.263857e+01
5.602401e+02	-3.269082e+01
5.634760e+02	-3.273380e+01
5.667306e+02	-3.279171e+01
5.700040e+02	-3.283920e+01
5.732964e+02	-3.289471e+01
5.766077e+02	-3.294535e+01
5.799382e+02	-3.299591e+01
5.832879e+02	-3.304129e+01
5.866569e+02	-3.308985e+01
5.900454e+02	-3.314235e+01
5.934535e+02	-3.319948e+01
5.968813e+02	-3.324225e+01
6.003288e+02	-3.330254e+01
6.037963e+02	-3.335391e+01
6.072838e+02	-3.340621e+01
6.107914e+02	-3.344566e+01
6.143194e+02	-3.349459e+01
6.178676e+02	-3.354343e+01
6.214364e+02	-3.360849e+01
6.250258e+02	-3.364808e+01
6.286359e+02	-3.370011e+01
6.322669e+02	-3.375416e+01
6.359189e+02	-3.380195e+01
6.395919e+02	-3.384601e+01
6.432862e+02	-3.390184e+01
6.470017e+02	-3.394326e+01
6.507388e+02	-3.399954e+01
6.544974e+02	-3.405402e+01
6.582778e+02	-3.409848e+01
6.620800e+02	-3.415538e+01
6.659041e+02	-3.420377e+01
6.697504e+02	-3.424941e+01
6.736188e+02	-3.430021e+01
6.775096e+02	-3.434596e+01
6.814229e+02	-3.439330e+01
6.853587e+02	-3.446012e+01
6.893173e+02	-3.450434e+01
6.932988e+02	-3.454763e+01
6.973033e+02	-3.460381e+01
7.013309e+02	-3.465302e+01
