Frequency(Hz)	Magnitude(dB)
1.000000e+01	-1.703004e-05
1.005776e+01	-1.722734e-05
1.011585e+01	-1.742692e-05
1.017428e+01	-1.762882e-05
1.023305e+01	-1.783305e-05
1.029215e+01	-1.803965e-05
1.035160e+01	-1.824865e-05
1.041139e+01	-1.846006e-05
1.047153e+01	-1.867393e-05
1.053201e+01	-1.889027e-05
1.059284e+01	-1.910912e-05
1.065403e+01	-1.933050e-05
1.071556e+01	-1.955445e-05
1.077746e+01	-1.978099e-05
1.083971e+01	-2.001016e-05
1.090232e+01	-2.024199e-05
1.096529e+01	-2.047649e-05
1.102862e+01	-2.071372e-05
1.109232e+01	-2.095369e-05
1.115639e+01	-2.119645e-05
1.122083e+01	-2.144201e-05
1.128564e+01	-2.169042e-05
1.135083e+01	-2.194171e-05
1.141639e+01	-2.219591e-05
1.148233e+01	-2.245306e-05
1.154865e+01	-2.271318e-05
1.161536e+01	-2.297632e-05
1.168245e+01	-2.324251e-05
1.174992e+01	-2.351178e-05
1.181779e+01	-2.378417e-05
1.188605e+01	-2.405971e-05
1.195470e+01	-2.433845e-05
1.202375e+01	-2.462042e-05
1.209320e+01	-2.490565e-05
1.216305e+01	-2.519419e-05
1.223330e+01	-2.548607e-05
1.230396e+01	-2.578133e-05
1.237503e+01	-2.608002e-05
1.244651e+01	-2.638216e-05
1.251840e+01	-2.668780e-05
1.259070e+01	-2.699699e-05
1.266343e+01	-2.730975e-05
1.273657e+01	-2.762614e-05
1.281014e+01	-2.794620e-05
1.288413e+01	-2.826996e-05
1.295855e+01	-2.859748e-05
1.303339e+01	-2.892879e-05
1.310867e+01	-2.926393e-05
1.318439e+01	-2.960296e-05
1.326054e+01	-2.994592e-05
1.333713e+01	-3.029285e-05
1.341417e+01	-3.064380e-05
1.349165e+01	-3.099882e-05
1.356958e+01	-3.135795e-05
1.364795e+01	-3.172123e-05
1.372678e+01	-3.208873e-05
1.380607e+01	-3.246049e-05
1.388581e+01	-3.283655e-05
1.396602e+01	-3.321697e-05
1.404668e+01	-3.360180e-05
1.412782e+01	-3.399108e-05
1.420942e+01	-3.438488e-05
1.429149e+01	-3.478323e-05
1.437404e+01	-3.518620e-05
1.445706e+01	-3.559384e-05
1.454057e+01	-3.600621e-05
1.462455e+01	-3.642335e-05
1.470902e+01	-3.684532e-05
1.479398e+01	-3.727218e-05
1.487943e+01	-3.770399e-05
1.496537e+01	-3.814080e-05
1.505181e+01	-3.858267e-05
1.513875e+01	-3.902966e-05
1.522619e+01	-3.948182e-05
1.531414e+01	-3.993923e-05
1.540259e+01	-4.040194e-05
1.549156e+01	-4.087000e-05
1.558103e+01	-4.134349e-05
1.567103e+01	-4.182246e-05
1.576155e+01	-4.230699e-05
1.585258e+01	-4.279712e-05
1.594415e+01	-4.329293e-05
1.603624e+01	-4.379449e-05
1.612886e+01	-4.430186e-05
1.622202e+01	-4.481511e-05
1.631572e+01	-4.533430e-05
1.640996e+01	-4.585951e-05
1.650474e+01	-4.639080e-05
1.660008e+01	-4.692825e-05
1.669596e+01	-4.747192e-05
1.679239e+01	-4.802190e-05
1.688938e+01	-4.857824e-05
1.698694e+01	-4.914103e-05
1.708505e+01	-4.971034e-05
1.718373e+01	-5.028624e-05
1.728299e+01	-5.086882e-05
1.738281e+01	-5.145815e-05
1.748322e+01	-5.205430e-05
1.758420e+01	-5.265736e-05
1.768576e+01	-5.326741e-05
1.778792e+01	-5.388452e-05
1.789066e+01	-5.450878e-05
1.799399e+01	-5.514028e-05
1.809793e+01	-5.577909e-05
1.820246e+01	-5.642530e-05
1.830760e+01	-5.707900e-05
1.841334e+01	-5.774027e-05
1.851969e+01	-5.840921e-05
1.862666e+01	-5.908589e-05
1.873425e+01	-5.977041e-05
1.884246e+01	-6.046286e-05
1.895129e+01	-6.116334e-05
1.906075e+01	-6.187193e-05
1.917085e+01	-6.258872e-05
1.928158e+01	-6.331383e-05
1.939295e+01	-6.404733e-05
1.950496e+01	-6.478933e-05
1.961762e+01	-6.553993e-05
1.973093e+01	-6.629922e-05
1.984490e+01	-6.706731e-05
1.995952e+01	-6.784430e-05
2.007480e+01	-6.863029e-05
2.019076e+01	-6.942538e-05
2.030738e+01	-7.022969e-05
2.042467e+01	-7.104331e-05
2.054264e+01	-7.186636e-05
2.066130e+01	-7.269894e-05
2.078064e+01	-7.354118e-05
2.090066e+01	-7.439316e-05
2.102139e+01	-7.525502e-05
2.114280e+01	-7.612686e-05
2.126492e+01	-7.700881e-05
2.138775e+01	-7.790097e-05
2.151128e+01	-7.880346e-05
2.163553e+01	-7.971642e-05
2.176050e+01	-8.063994e-05
2.188619e+01	-8.157417e-05
2.201260e+01	-8.251922e-05
2.213974e+01	-8.347522e-05
2.226762e+01	-8.444230e-05
2.239624e+01	-8.542057e-05
2.252560e+01	-8.641019e-05
2.265571e+01	-8.741126e-05
2.278656e+01	-8.842394e-05
2.291818e+01	-8.944834e-05
2.305055e+01	-9.048461e-05
2.318369e+01	-9.153289e-05
2.331760e+01	-9.259332e-05
2.345228e+01	-9.366602e-05
2.358774e+01	-9.475116e-05
2.372398e+01	-9.584886e-05
2.386101e+01	-9.695929e-05
2.399883e+01	-9.808258e-05
2.413745e+01	-9.921888e-05
2.427686e+01	-1.003683e-04
2.441709e+01	-1.015311e-04
2.455812e+01	-1.027074e-04
2.469997e+01	-1.038973e-04
2.484263e+01	-1.051009e-04
2.498612e+01	-1.063185e-04
2.513044e+01	-1.075502e-04
2.527559e+01	-1.087962e-04
2.542158e+01	-1.100566e-04
2.556842e+01	-1.113317e-04
2.571610e+01	-1.126215e-04
2.586463e+01	-1.139262e-04
2.601403e+01	-1.152460e-04
2.616428e+01	-1.165812e-04
2.631541e+01	-1.179318e-04
2.646740e+01	-1.192980e-04
2.662028e+01	-1.206801e-04
2.677404e+01	-1.220782e-04
2.692868e+01	-1.234925e-04
2.708422e+01	-1.249232e-04
2.724066e+01	-1.263704e-04
2.739800e+01	-1.278344e-04
2.755625e+01	-1.293154e-04
2.771541e+01	-1.308136e-04
2.787550e+01	-1.323290e-04
2.803650e+01	-1.338621e-04
2.819844e+01	-1.354129e-04
2.836131e+01	-1.369817e-04
2.852513e+01	-1.385686e-04
2.868989e+01	-1.401739e-04
2.885560e+01	-1.417979e-04
2.902227e+01	-1.434406e-04
2.918990e+01	-1.451024e-04
2.935850e+01	-1.467834e-04
2.952807e+01	-1.484839e-04
2.969863e+01	-1.502041e-04
2.987016e+01	-1.519442e-04
3.004269e+01	-1.537045e-04
3.021622e+01	-1.554852e-04
3.039075e+01	-1.572865e-04
3.056628e+01	-1.591087e-04
3.074283e+01	-1.609520e-04
3.092040e+01	-1.628166e-04
3.109900e+01	-1.647028e-04
3.127862e+01	-1.666109e-04
3.145929e+01	-1.685411e-04
3.164099e+01	-1.704937e-04
3.182375e+01	-1.724689e-04
3.200756e+01	-1.744669e-04
3.219244e+01	-1.764881e-04
3.237838e+01	-1.785327e-04
3.256540e+01	-1.806011e-04
3.275349e+01	-1.826933e-04
3.294268e+01	-1.848098e-04
3.313295e+01	-1.869509e-04
3.332433e+01	-1.891167e-04
3.351681e+01	-1.913076e-04
3.371040e+01	-1.935239e-04
3.390511e+01	-1.957659e-04
3.410094e+01	-1.980338e-04
3.429791e+01	-2.003281e-04
3.449601e+01	-2.026489e-04
3.469526e+01	-2.049966e-04
3.489566e+01	-2.073714e-04
3.509721e+01	-2.097738e-04
3.529993e+01	-2.122041e-04
3.550382e+01	-2.146625e-04
3.570889e+01	-2.171493e-04
3.591515e+01	-2.196650e-04
3.612259e+01	-2.222098e-04
3.633123e+01	-2.247841e-04
3.654108e+01	-2.273882e-04
3.675214e+01	-2.300225e-04
3.696442e+01	-2.326873e-04
3.717792e+01	-2.353830e-04
3.739266e+01	-2.381099e-04
3.760864e+01	-2.408684e-04
3.782587e+01	-2.436588e-04
3.804435e+01	-2.464816e-04
3.826409e+01	-2.493371e-04
3.848510e+01	-2.522256e-04
3.870739e+01	-2.551476e-04
3.893096e+01	-2.581035e-04
3.915583e+01	-2.610936e-04
3.938199e+01	-2.641184e-04
3.960946e+01	-2.671782e-04
3.983824e+01	-2.702734e-04
4.006834e+01	-2.734045e-04
4.029978e+01	-2.765719e-04
4.053255e+01	-2.797759e-04
4.076666e+01	-2.830171e-04
4.100213e+01	-2.862958e-04
4.123896e+01	-2.896125e-04
4.147715e+01	-2.929677e-04
4.171672e+01	-2.963617e-04
4.195767e+01	-2.997950e-04
4.220002e+01	-3.032681e-04
4.244377e+01	-3.067814e-04
4.268892e+01	-3.103354e-04
4.293549e+01	-3.139306e-04
4.318348e+01	-3.175674e-04
4.343291e+01	-3.212464e-04
4.368377e+01	-3.249680e-04
4.393609e+01	-3.287327e-04
4.418986e+01	-3.325410e-04
4.444510e+01	-3.363934e-04
4.470182e+01	-3.402905e-04
4.496001e+01	-3.442327e-04
4.521970e+01	-3.482206e-04
4.548089e+01	-3.522546e-04
4.574358e+01	-3.563354e-04
4.600779e+01	-3.604635e-04
4.627353e+01	-3.646394e-04
4.654081e+01	-3.688637e-04
4.680963e+01	-3.731369e-04
4.708000e+01	-3.774596e-04
4.735193e+01	-3.818324e-04
4.762543e+01	-3.862558e-04
4.790051e+01	-3.907305e-04
4.817719e+01	-3.952570e-04
4.845545e+01	-3.998360e-04
4.873533e+01	-4.044679e-04
4.901682e+01	-4.091536e-04
4.929994e+01	-4.138935e-04
4.958470e+01	-4.186884e-04
4.987110e+01	-4.235388e-04
5.015915e+01	-4.284453e-04
5.044887e+01	-4.334087e-04
5.074026e+01	-4.384296e-04
5.103333e+01	-4.435087e-04
5.132810e+01	-4.486466e-04
5.162457e+01	-4.538440e-04
5.192275e+01	-4.591017e-04
5.222265e+01	-4.644202e-04
5.252429e+01	-4.698004e-04
5.282767e+01	-4.752428e-04
5.313280e+01	-4.807483e-04
5.343969e+01	-4.863176e-04
5.374836e+01	-4.919514e-04
5.405880e+01	-4.976505e-04
5.437105e+01	-5.034156e-04
5.468509e+01	-5.092475e-04
5.500095e+01	-5.151469e-04
5.531863e+01	-5.211146e-04
5.563815e+01	-5.271515e-04
5.595951e+01	-5.332583e-04
5.628273e+01	-5.394359e-04
5.660782e+01	-5.456850e-04
5.693479e+01	-5.520065e-04
5.726364e+01	-5.584013e-04
5.759439e+01	-5.648701e-04
5.792705e+01	-5.714138e-04
5.826164e+01	-5.780334e-04
5.859815e+01	-5.847296e-04
5.893662e+01	-5.915034e-04
5.927703e+01	-5.983557e-04
5.961941e+01	-6.052873e-04
5.996377e+01	-6.122992e-04
6.031012e+01	-6.193924e-04
6.065847e+01	-6.265677e-04
6.100883e+01	-6.338261e-04
6.136121e+01	-6.411686e-04
6.171563e+01	-6.485962e-04
6.207210e+01	-6.561098e-04
6.243063e+01	-6.637104e-04
6.279122e+01	-6.713991e-04
6.315390e+01	-6.791768e-04
6.351868e+01	-6.870446e-04
6.388556e+01	-6.950036e-04
6.425456e+01	-7.030548e-04
6.462569e+01	-7.111992e-04
6.499897e+01	-7.194379e-04
6.537440e+01	-7.277721e-04
6.575200e+01	-7.362028e-04
6.613178e+01	-7.447312e-04
6.651375e+01	-7.533584e-04
6.689793e+01	-7.620855e-04
6.728433e+01	-7.709137e-04
6.767297e+01	-7.798441e-04
6.806384e+01	-7.888780e-04
6.845698e+01	-7.980165e-04
6.885238e+01	-8.072609e-04
6.925007e+01	-8.166124e-04
6.965005e+01	-8.260722e-04
7.005235e+01	-8.356415e-04
7.045697e+01	-8.453217e-04
7.086393e+01	-8.551140e-04
7.127323e+01	-8.650198e-04
7.168490e+01	-8.750402e-04
7.209895e+01	-8.851768e-04
7.251539e+01	-8.954308e-04
7.293424e+01	-9.058035e-04
7.335551e+01	-9.162964e-04
7.377920e+01	-9.269108e-04
7.420535e+01	-9.376481e-04
7.463396e+01	-9.485098e-04
7.506504e+01	-9.594974e-04
7.549861e+01	-9.706122e-04
7.593469e+01	-9.818557e-04
7.637328e+01	-9.932295e-04
7.681441e+01	-1.004735e-03
7.725809e+01	-1.016374e-03
7.770433e+01	-1.028147e-03
7.815315e+01	-1.040057e-03
7.860456e+01	-1.052105e-03
7.905857e+01	-1.064293e-03
7.951521e+01	-1.076621e-03
7.997449e+01	-1.089093e-03
8.043642e+01	-1.101708e-03
8.090102e+01	-1.114470e-03
8.136830e+01	-1.127380e-03
8.183828e+01	-1.140439e-03
8.231097e+01	-1.153650e-03
8.278640e+01	-1.167013e-03
8.326457e+01	-1.180532e-03
8.374550e+01	-1.194207e-03
8.422921e+01	-1.208040e-03
8.471572e+01	-1.222034e-03
8.520503e+01	-1.236189e-03
8.569717e+01	-1.250509e-03
8.619215e+01	-1.264994e-03
8.669000e+01	-1.279647e-03
8.719071e+01	-1.294470e-03
8.769432e+01	-1.309464e-03
8.820084e+01	-1.324633e-03
8.871029e+01	-1.339977e-03
8.922267e+01	-1.355498e-03
8.973802e+01	-1.371199e-03
9.025634e+01	-1.387083e-03
9.077766e+01	-1.403150e-03
9.130199e+01	-1.419403e-03
9.182935e+01	-1.435844e-03
9.235975e+01	-1.452476e-03
9.289321e+01	-1.469301e-03
9.342976e+01	-1.486320e-03
9.396941e+01	-1.503537e-03
9.451217e+01	-1.520952e-03
9.505807e+01	-1.538570e-03
9.560712e+01	-1.556391e-03
9.615934e+01	-1.574419e-03
9.671476e+01	-1.592656e-03
9.727338e+01	-1.611104e-03
9.783522e+01	-1.629766e-03
9.840032e+01	-1.648643e-03
9.896867e+01	-1.667740e-03
9.954031e+01	-1.687057e-03
1.001153e+02	-1.706598e-03
1.006935e+02	-1.726366e-03
1.012751e+02	-1.746362e-03
1.018601e+02	-1.766590e-03
1.024484e+02	-1.787052e-03
1.030402e+02	-1.807751e-03
1.036353e+02	-1.828690e-03
1.042339e+02	-1.849872e-03
1.048360e+02	-1.871298e-03
1.054415e+02	-1.892973e-03
1.060505e+02	-1.914899e-03
1.066631e+02	-1.937078e-03
1.072791e+02	-1.959515e-03
1.078988e+02	-1.982211e-03
1.085220e+02	-2.005170e-03
1.091488e+02	-2.028395e-03
1.097793e+02	-2.051889e-03
1.104133e+02	-2.075655e-03
1.110511e+02	-2.099697e-03
1.116925e+02	-2.124016e-03
1.123376e+02	-2.148617e-03
1.129865e+02	-2.173503e-03
1.136391e+02	-2.198678e-03
1.142955e+02	-2.224143e-03
1.149556e+02	-2.249904e-03
1.156196e+02	-2.275963e-03
1.162874e+02	-2.302324e-03
1.169591e+02	-2.328989e-03
1.176347e+02	-2.355964e-03
1.183141e+02	-2.383251e-03
1.189975e+02	-2.410854e-03
1.196848e+02	-2.438776e-03
1.203761e+02	-2.467022e-03
1.210714e+02	-2.495595e-03
1.217707e+02	-2.524499e-03
1.224740e+02	-2.553737e-03
1.231814e+02	-2.583314e-03
1.238929e+02	-2.613234e-03
1.246085e+02	-2.643499e-03
1.253283e+02	-2.674116e-03
1.260522e+02	-2.705086e-03
1.267802e+02	-2.736416e-03
1.275125e+02	-2.768107e-03
1.282490e+02	-2.800166e-03
1.289898e+02	-2.832596e-03
1.297348e+02	-2.865402e-03
1.304842e+02	-2.898587e-03
1.312378e+02	-2.932157e-03
1.319959e+02	-2.966115e-03
1.327583e+02	-3.000466e-03
1.335251e+02	-3.035215e-03
1.342963e+02	-3.070367e-03
1.350720e+02	-3.105925e-03
1.358522e+02	-3.141895e-03
1.366368e+02	-3.178281e-03
1.374260e+02	-3.215089e-03
1.382198e+02	-3.252323e-03
1.390182e+02	-3.289987e-03
1.398211e+02	-3.328088e-03
1.406287e+02	-3.366630e-03
1.414410e+02	-3.405618e-03
1.422579e+02	-3.445057e-03
1.430796e+02	-3.484953e-03
1.439060e+02	-3.525311e-03
1.447372e+02	-3.566136e-03
1.455732e+02	-3.607433e-03
1.464141e+02	-3.649208e-03
1.472597e+02	-3.691467e-03
1.481103e+02	-3.734216e-03
1.489658e+02	-3.777459e-03
1.498262e+02	-3.821202e-03
1.506916e+02	-3.865452e-03
1.515620e+02	-3.910214e-03
1.524374e+02	-3.955494e-03
1.533179e+02	-4.001299e-03
1.542034e+02	-4.047633e-03
1.550941e+02	-4.094504e-03
1.559899e+02	-4.141917e-03
1.568909e+02	-4.189879e-03
1.577971e+02	-4.238396e-03
1.587085e+02	-4.287475e-03
1.596252e+02	-4.337121e-03
1.605472e+02	-4.387343e-03
1.614745e+02	-4.438145e-03
1.624072e+02	-4.489536e-03
1.633453e+02	-4.541521e-03
1.642887e+02	-4.594108e-03
1.652377e+02	-4.647303e-03
1.661921e+02	-4.701114e-03
1.671520e+02	-4.755548e-03
1.681175e+02	-4.810612e-03
1.690885e+02	-4.866312e-03
1.700651e+02	-4.922658e-03
1.710474e+02	-4.979655e-03
1.720354e+02	-5.037312e-03
1.730291e+02	-5.095637e-03
1.740285e+02	-5.154636e-03
1.750337e+02	-5.214318e-03
1.760446e+02	-5.274690e-03
1.770615e+02	-5.335761e-03
1.780842e+02	-5.397539e-03
1.791128e+02	-5.460031e-03
1.801473e+02	-5.523247e-03
1.811878e+02	-5.587194e-03
1.822344e+02	-5.651881e-03
1.832870e+02	-5.717316e-03
1.843456e+02	-5.783508e-03
1.854104e+02	-5.850467e-03
1.864813e+02	-5.918199e-03
1.875584e+02	-5.986716e-03
1.886418e+02	-6.056025e-03
1.897313e+02	-6.126136e-03
1.908272e+02	-6.197058e-03
1.919294e+02	-6.268801e-03
1.930380e+02	-6.341373e-03
1.941530e+02	-6.414785e-03
1.952744e+02	-6.489047e-03
1.964023e+02	-6.564167e-03
1.975367e+02	-6.640156e-03
1.986777e+02	-6.717025e-03
1.998252e+02	-6.794782e-03
2.009794e+02	-6.873439e-03
2.021403e+02	-6.953005e-03
2.033078e+02	-7.033492e-03
2.044821e+02	-7.114910e-03
2.056632e+02	-7.197270e-03
2.068511e+02	-7.280582e-03
2.080459e+02	-7.364858e-03
2.092475e+02	-7.450108e-03
2.104561e+02	-7.536344e-03
2.116717e+02	-7.623578e-03
2.128943e+02	-7.711820e-03
2.141240e+02	-7.801083e-03
2.153608e+02	-7.891379e-03
2.166047e+02	-7.982718e-03
2.178558e+02	-8.075114e-03
2.191141e+02	-8.168578e-03
2.203797e+02	-8.263122e-03
2.216526e+02	-8.358760e-03
2.229329e+02	-8.455504e-03
2.242205e+02	-8.553367e-03
2.255156e+02	-8.652361e-03
2.268182e+02	-8.752499e-03
2.281283e+02	-8.853795e-03
2.294459e+02	-8.956263e-03
2.307712e+02	-9.059915e-03
2.321041e+02	-9.164765e-03
2.334447e+02	-9.270828e-03
2.347931e+02	-9.378116e-03
2.361493e+02	-9.486645e-03
2.375133e+02	-9.596428e-03
2.388851e+02	-9.707481e-03
2.402649e+02	-9.819817e-03
2.416527e+02	-9.933452e-03
2.430484e+02	-1.004840e-02
2.444523e+02	-1.016468e-02
2.458642e+02	-1.028230e-02
2.472843e+02	-1.040128e-02
2.487126e+02	-1.052163e-02
2.501492e+02	-1.064338e-02
2.515940e+02	-1.076653e-02
2.530472e+02	-1.089111e-02
2.545088e+02	-1.101712e-02
2.559789e+02	-1.114459e-02
2.574574e+02	-1.127354e-02
2.589444e+02	-1.140397e-02
2.604401e+02	-1.153592e-02
2.619444e+02	-1.166938e-02
2.634574e+02	-1.180439e-02
2.649791e+02	-1.194096e-02
2.665096e+02	-1.207910e-02
2.680489e+02	-1.221885e-02
2.695972e+02	-1.236020e-02
2.711544e+02	-1.250319e-02
2.727205e+02	-1.264783e-02
2.742958e+02	-1.279415e-02
2.758801e+02	-1.294215e-02
2.774736e+02	-1.309186e-02
2.790762e+02	-1.324330e-02
2.806882e+02	-1.339649e-02
2.823094e+02	-1.355145e-02
2.839400e+02	-1.370820e-02
2.855800e+02	-1.386675e-02
2.872295e+02	-1.402714e-02
2.888886e+02	-1.418939e-02
2.905572e+02	-1.435350e-02
2.922354e+02	-1.451951e-02
2.939234e+02	-1.468744e-02
2.956211e+02	-1.485730e-02
2.973286e+02	-1.502913e-02
2.990459e+02	-1.520294e-02
3.007732e+02	-1.537876e-02
3.025104e+02	-1.555660e-02
3.042577e+02	-1.573650e-02
3.060151e+02	-1.591848e-02
3.077826e+02	-1.610256e-02
3.095604e+02	-1.628876e-02
3.113484e+02	-1.647711e-02
3.131467e+02	-1.666763e-02
3.149554e+02	-1.686036e-02
3.167746e+02	-1.705530e-02
3.186043e+02	-1.725250e-02
3.204445e+02	-1.745197e-02
3.222954e+02	-1.765374e-02
3.241570e+02	-1.785784e-02
3.260293e+02	-1.806430e-02
3.279124e+02	-1.827314e-02
3.298064e+02	-1.848439e-02
3.317114e+02	-1.869807e-02
3.336273e+02	-1.891422e-02
3.355544e+02	-1.913286e-02
3.374925e+02	-1.935402e-02
3.394418e+02	-1.957774e-02
3.414024e+02	-1.980403e-02
3.433744e+02	-2.003294e-02
3.453577e+02	-2.026448e-02
3.473525e+02	-2.049869e-02
3.493588e+02	-2.073561e-02
3.513766e+02	-2.097525e-02
3.534062e+02	-2.121766e-02
3.554474e+02	-2.146286e-02
3.575005e+02	-2.171089e-02
3.595654e+02	-2.196178e-02
3.616422e+02	-2.221556e-02
3.637311e+02	-2.247226e-02
3.658320e+02	-2.273193e-02
3.679450e+02	-2.299458e-02
3.700702e+02	-2.326027e-02
3.722077e+02	-2.352901e-02
3.743576e+02	-2.380085e-02
3.765199e+02	-2.407582e-02
3.786946e+02	-2.435396e-02
3.808820e+02	-2.463531e-02
3.830819e+02	-2.491989e-02
3.852946e+02	-2.520775e-02
3.875200e+02	-2.549893e-02
3.897583e+02	-2.579346e-02
3.920096e+02	-2.609139e-02
3.942738e+02	-2.639274e-02
3.965511e+02	-2.669757e-02
3.988416e+02	-2.700590e-02
4.011452e+02	-2.731778e-02
4.034622e+02	-2.763326e-02
4.057926e+02	-2.795236e-02
4.081365e+02	-2.827514e-02
4.104938e+02	-2.860163e-02
4.128648e+02	-2.893188e-02
4.152495e+02	-2.926593e-02
4.176480e+02	-2.960383e-02
4.200603e+02	-2.994561e-02
4.224866e+02	-3.029132e-02
4.249268e+02	-3.064102e-02
4.273812e+02	-3.099473e-02
4.298497e+02	-3.135251e-02
4.323325e+02	-3.171441e-02
4.348297e+02	-3.208047e-02
4.373412e+02	-3.245074e-02
4.398673e+02	-3.282526e-02
4.424079e+02	-3.320409e-02
4.449633e+02	-3.358728e-02
4.475334e+02	-3.397487e-02
4.501183e+02	-3.436692e-02
4.527182e+02	-3.476347e-02
4.553330e+02	-3.516458e-02
4.579630e+02	-3.557029e-02
4.606082e+02	-3.598067e-02
4.632687e+02	-3.639577e-02
4.659445e+02	-3.681563e-02
4.686358e+02	-3.724032e-02
4.713426e+02	-3.766988e-02
4.740650e+02	-3.810438e-02
4.768032e+02	-3.854386e-02
4.795572e+02	-3.898839e-02
4.823271e+02	-3.943803e-02
4.851130e+02	-3.989282e-02
4.879150e+02	-4.035284e-02
4.907332e+02	-4.081814e-02
4.935676e+02	-4.128877e-02
4.964185e+02	-4.176481e-02
4.992858e+02	-4.224631e-02
5.021696e+02	-4.273333e-02
5.050701e+02	-4.322594e-02
5.079874e+02	-4.372419e-02
5.109215e+02	-4.422817e-02
5.138726e+02	-4.473792e-02
5.168407e+02	-4.525351e-02
5.198259e+02	-4.577502e-02
5.228284e+02	-4.630250e-02
5.258482e+02	-4.683603e-02
5.288855e+02	-4.737567e-02
5.319403e+02	-4.792150e-02
5.350128e+02	-4.847358e-02
5.381030e+02	-4.903198e-02
5.412111e+02	-4.959678e-02
5.443371e+02	-5.016805e-02
5.474812e+02	-5.074586e-02
5.506434e+02	-5.133028e-02
5.538239e+02	-5.192139e-02
5.570228e+02	-5.251927e-02
5.602401e+02	-5.312400e-02
5.634760e+02	-5.373564e-02
5.667306e+02	-5.435428e-02
5.700040e+02	-5.498000e-02
5.732964e+02	-5.561287e-02
5.766077e+02	-5.625298e-02
5.799382e+02	-5.690042e-02
5.832879e+02	-5.755525e-02
5.866569e+02	-5.821757e-02
5.900454e+02	-5.888746e-02
5.934535e+02	-5.956500e-02
5.968813e+02	-6.025028e-02
6.003288e+02	-6.094340e-02
6.037963e+02	-6.164443e-02
6.072838e+02	-6.235346e-02
6.107914e+02	-6.307060e-02
6.143194e+02	-6.379592e-02
6.178676e+02	-6.452951e-02
6.214364e+02	-6.527148e-02
6.250258e+02	-6.602192e-02
6.286359e+02	-6.678092e-02
6.322669e+02	-6.754857e-02
6.359189e+02	-6.832498e-02
6.395919e+02	-6.911025e-02
6.432862e+02	-6.990446e-02
6.470017e+02	-7.070773e-02
6.507388e+02	-7.152015e-02
6.544974e+02	-7.234183e-02
6.582778e+02	-7.317287e-02
6.620800e+02	-7.401337e-02
6.659041e+02	-7.486345e-02
6.697504e+02	-7.572320e-02
6.736188e+02	-7.659274e-02
6.775096e+02	-7.747217e-02
6.814229e+02	-7.836161e-02
6.853587e+02	-7.926117e-02
6.893173e+02	-8.017096e-02
6.932988e+02	-8.109110e-02
6.973033e+02	-8.202170e-02
7.013309e+02	-8.296287e-02
