Frequency(Hz)	Magnitude(dB)
1.000000e+01	-1.605478e-05
1.005776e+01	-1.624078e-05
1.011585e+01	-1.642893e-05
1.017428e+01	-1.661927e-05
1.023305e+01	-1.681181e-05
1.029215e+01	-1.700657e-05
1.035160e+01	-1.720360e-05
1.041139e+01	-1.740291e-05
1.047153e+01	-1.760453e-05
1.053201e+01	-1.780848e-05
1.059284e+01	-1.801479e-05
1.065403e+01	-1.822350e-05
1.071556e+01	-1.843462e-05
1.077746e+01	-1.864819e-05
1.083971e+01	-1.886424e-05
1.090232e+01	-1.908279e-05
1.096529e+01	-1.930386e-05
1.102862e+01	-1.952750e-05
1.109232e+01	-1.975374e-05
1.115639e+01	-1.998259e-05
1.122083e+01	-2.021409e-05
1.128564e+01	-2.044828e-05
1.135083e+01	-2.068517e-05
1.141639e+01	-2.092482e-05
1.148233e+01	-2.116724e-05
1.154865e+01	-2.141246e-05
1.161536e+01	-2.166053e-05
1.168245e+01	-2.191148e-05
1.174992e+01	-2.216533e-05
1.181779e+01	-2.242212e-05
1.188605e+01	-2.268188e-05
1.195470e+01	-2.294466e-05
1.202375e+01	-2.321048e-05
1.209320e+01	-2.347938e-05
1.216305e+01	-2.375139e-05
1.223330e+01	-2.402656e-05
1.230396e+01	-2.430491e-05
1.237503e+01	-2.458649e-05
1.244651e+01	-2.487133e-05
1.251840e+01	-2.515947e-05
1.259070e+01	-2.545095e-05
1.266343e+01	-2.574580e-05
1.273657e+01	-2.604408e-05
1.281014e+01	-2.634580e-05
1.288413e+01	-2.665102e-05
1.295855e+01	-2.695978e-05
1.303339e+01	-2.727212e-05
1.310867e+01	-2.758807e-05
1.318439e+01	-2.790769e-05
1.326054e+01	-2.823101e-05
1.333713e+01	-2.855807e-05
1.341417e+01	-2.888892e-05
1.349165e+01	-2.922361e-05
1.356958e+01	-2.956217e-05
1.364795e+01	-2.990465e-05
1.372678e+01	-3.025111e-05
1.380607e+01	-3.060157e-05
1.388581e+01	-3.095610e-05
1.396602e+01	-3.131473e-05
1.404668e+01	-3.167752e-05
1.412782e+01	-3.204451e-05
1.420942e+01	-3.241576e-05
1.429149e+01	-3.279130e-05
1.437404e+01	-3.317119e-05
1.445706e+01	-3.355549e-05
1.454057e+01	-3.394424e-05
1.462455e+01	-3.433749e-05
1.470902e+01	-3.473530e-05
1.479398e+01	-3.513772e-05
1.487943e+01	-3.554479e-05
1.496537e+01	-3.595659e-05
1.505181e+01	-3.637315e-05
1.513875e+01	-3.679455e-05
1.522619e+01	-3.722082e-05
1.531414e+01	-3.765203e-05
1.540259e+01	-3.808824e-05
1.549156e+01	-3.852950e-05
1.558103e+01	-3.897587e-05
1.567103e+01	-3.942742e-05
1.576155e+01	-3.988419e-05
1.585258e+01	-4.034626e-05
1.594415e+01	-4.081368e-05
1.603624e+01	-4.128652e-05
1.612886e+01	-4.176483e-05
1.622202e+01	-4.224868e-05
1.631572e+01	-4.273814e-05
1.640996e+01	-4.323327e-05
1.650474e+01	-4.373414e-05
1.660008e+01	-4.424081e-05
1.669596e+01	-4.475335e-05
1.679239e+01	-4.527183e-05
1.688938e+01	-4.579631e-05
1.698694e+01	-4.632687e-05
1.708505e+01	-4.686358e-05
1.718373e+01	-4.740650e-05
1.728299e+01	-4.795572e-05
1.738281e+01	-4.851130e-05
1.748322e+01	-4.907331e-05
1.758420e+01	-4.964183e-05
1.768576e+01	-5.021695e-05
1.778792e+01	-5.079872e-05
1.789066e+01	-5.138723e-05
1.799399e+01	-5.198257e-05
1.809793e+01	-5.258479e-05
1.820246e+01	-5.319400e-05
1.830760e+01	-5.381026e-05
1.841334e+01	-5.443367e-05
1.851969e+01	-5.506429e-05
1.862666e+01	-5.570222e-05
1.873425e+01	-5.634755e-05
1.884246e+01	-5.700034e-05
1.895129e+01	-5.766070e-05
1.906075e+01	-5.832871e-05
1.917085e+01	-5.900446e-05
1.928158e+01	-5.968804e-05
1.939295e+01	-6.037954e-05
1.950496e+01	-6.107905e-05
1.961762e+01	-6.178666e-05
1.973093e+01	-6.250247e-05
1.984490e+01	-6.322658e-05
1.995952e+01	-6.395907e-05
2.007480e+01	-6.470005e-05
2.019076e+01	-6.544961e-05
2.030738e+01	-6.620786e-05
2.042467e+01	-6.697489e-05
2.054264e+01	-6.775080e-05
2.066130e+01	-6.853571e-05
2.078064e+01	-6.932971e-05
2.090066e+01	-7.013291e-05
2.102139e+01	-7.094541e-05
2.114280e+01	-7.176732e-05
2.126492e+01	-7.259876e-05
2.138775e+01	-7.343983e-05
2.151128e+01	-7.429064e-05
2.163553e+01	-7.515132e-05
2.176050e+01	-7.602196e-05
2.188619e+01	-7.690268e-05
2.201260e+01	-7.779362e-05
2.213974e+01	-7.869487e-05
2.226762e+01	-7.960656e-05
2.239624e+01	-8.052882e-05
2.252560e+01	-8.146176e-05
2.265571e+01	-8.240551e-05
2.278656e+01	-8.336019e-05
2.291818e+01	-8.432593e-05
2.305055e+01	-8.530286e-05
2.318369e+01	-8.629111e-05
2.331760e+01	-8.729080e-05
2.345228e+01	-8.830208e-05
2.358774e+01	-8.932508e-05
2.372398e+01	-9.035992e-05
2.386101e+01	-9.140675e-05
2.399883e+01	-9.246572e-05
2.413745e+01	-9.353695e-05
2.427686e+01	-9.462059e-05
2.441709e+01	-9.571678e-05
2.455812e+01	-9.682567e-05
2.469997e+01	-9.794741e-05
2.484263e+01	-9.908215e-05
2.498612e+01	-1.002300e-04
2.513044e+01	-1.013912e-04
2.527559e+01	-1.025658e-04
2.542158e+01	-1.037541e-04
2.556842e+01	-1.049561e-04
2.571610e+01	-1.061720e-04
2.586463e+01	-1.074020e-04
2.601403e+01	-1.086463e-04
2.616428e+01	-1.099050e-04
2.631541e+01	-1.111782e-04
2.646740e+01	-1.124663e-04
2.662028e+01	-1.137692e-04
2.677404e+01	-1.150872e-04
2.692868e+01	-1.164205e-04
2.708422e+01	-1.177693e-04
2.724066e+01	-1.191336e-04
2.739800e+01	-1.205138e-04
2.755625e+01	-1.219100e-04
2.771541e+01	-1.233223e-04
2.787550e+01	-1.247510e-04
2.803650e+01	-1.261963e-04
2.819844e+01	-1.276583e-04
2.836131e+01	-1.291372e-04
2.852513e+01	-1.306333e-04
2.868989e+01	-1.321467e-04
2.885560e+01	-1.336776e-04
2.902227e+01	-1.352263e-04
2.918990e+01	-1.367929e-04
2.935850e+01	-1.383777e-04
2.952807e+01	-1.399808e-04
2.969863e+01	-1.416025e-04
2.987016e+01	-1.432429e-04
3.004269e+01	-1.449024e-04
3.021622e+01	-1.465811e-04
3.039075e+01	-1.482793e-04
3.056628e+01	-1.499971e-04
3.074283e+01	-1.517348e-04
3.092040e+01	-1.534927e-04
3.109900e+01	-1.552709e-04
3.127862e+01	-1.570697e-04
3.145929e+01	-1.588894e-04
3.164099e+01	-1.607302e-04
3.182375e+01	-1.625922e-04
3.200756e+01	-1.644759e-04
3.219244e+01	-1.663813e-04
3.237838e+01	-1.683089e-04
3.256540e+01	-1.702587e-04
3.275349e+01	-1.722312e-04
3.294268e+01	-1.742265e-04
3.313295e+01	-1.762449e-04
3.332433e+01	-1.782867e-04
3.351681e+01	-1.803522e-04
3.371040e+01	-1.824416e-04
3.390511e+01	-1.845552e-04
3.410094e+01	-1.866932e-04
3.429791e+01	-1.888561e-04
3.449601e+01	-1.910440e-04
3.469526e+01	-1.932572e-04
3.489566e+01	-1.954961e-04
3.509721e+01	-1.977609e-04
3.529993e+01	-2.000520e-04
3.550382e+01	-2.023696e-04
3.570889e+01	-2.047141e-04
3.591515e+01	-2.070857e-04
3.612259e+01	-2.094848e-04
3.633123e+01	-2.119116e-04
3.654108e+01	-2.143666e-04
3.675214e+01	-2.168501e-04
3.696442e+01	-2.193623e-04
3.717792e+01	-2.219036e-04
3.739266e+01	-2.244743e-04
3.760864e+01	-2.270749e-04
3.782587e+01	-2.297055e-04
3.804435e+01	-2.323667e-04
3.826409e+01	-2.350586e-04
3.848510e+01	-2.377818e-04
3.870739e+01	-2.405364e-04
3.893096e+01	-2.433231e-04
3.915583e+01	-2.461419e-04
3.938199e+01	-2.489935e-04
3.960946e+01	-2.518781e-04
3.983824e+01	-2.547960e-04
4.006834e+01	-2.577478e-04
4.029978e+01	-2.607338e-04
4.053255e+01	-2.637544e-04
4.076666e+01	-2.668100e-04
4.100213e+01	-2.699010e-04
4.123896e+01	-2.730277e-04
4.147715e+01	-2.761907e-04
4.171672e+01	-2.793904e-04
4.195767e+01	-2.826271e-04
4.220002e+01	-2.859013e-04
4.244377e+01	-2.892134e-04
4.268892e+01	-2.925639e-04
4.293549e+01	-2.959533e-04
4.318348e+01	-2.993818e-04
4.343291e+01	-3.028501e-04
4.368377e+01	-3.063586e-04
4.393609e+01	-3.099077e-04
4.418986e+01	-3.134980e-04
4.444510e+01	-3.171298e-04
4.470182e+01	-3.208037e-04
4.496001e+01	-3.245202e-04
4.521970e+01	-3.282797e-04
4.548089e+01	-3.320828e-04
4.574358e+01	-3.359299e-04
4.600779e+01	-3.398216e-04
4.627353e+01	-3.437583e-04
4.654081e+01	-3.477407e-04
4.680963e+01	-3.517692e-04
4.708000e+01	-3.558444e-04
4.735193e+01	-3.599668e-04
4.762543e+01	-3.641369e-04
4.790051e+01	-3.683554e-04
4.817719e+01	-3.726227e-04
4.845545e+01	-3.769394e-04
4.873533e+01	-3.813062e-04
4.901682e+01	-3.857235e-04
4.929994e+01	-3.901921e-04
4.958470e+01	-3.947123e-04
4.987110e+01	-3.992850e-04
5.015915e+01	-4.039106e-04
5.044887e+01	-4.085898e-04
5.074026e+01	-4.133232e-04
5.103333e+01	-4.181114e-04
5.132810e+01	-4.229551e-04
5.162457e+01	-4.278549e-04
5.192275e+01	-4.328115e-04
5.222265e+01	-4.378255e-04
5.252429e+01	-4.428976e-04
5.282767e+01	-4.480284e-04
5.313280e+01	-4.532186e-04
5.343969e+01	-4.584690e-04
5.374836e+01	-4.637802e-04
5.405880e+01	-4.691530e-04
5.437105e+01	-4.745879e-04
5.468509e+01	-4.800859e-04
5.500095e+01	-4.856475e-04
5.531863e+01	-4.912735e-04
5.563815e+01	-4.969647e-04
5.595951e+01	-5.027219e-04
5.628273e+01	-5.085457e-04
5.660782e+01	-5.144370e-04
5.693479e+01	-5.203965e-04
5.726364e+01	-5.264251e-04
5.759439e+01	-5.325235e-04
5.792705e+01	-5.386926e-04
5.826164e+01	-5.449331e-04
5.859815e+01	-5.512459e-04
5.893662e+01	-5.576318e-04
5.927703e+01	-5.640917e-04
5.961941e+01	-5.706264e-04
5.996377e+01	-5.772369e-04
6.031012e+01	-5.839239e-04
6.065847e+01	-5.906883e-04
6.100883e+01	-5.975311e-04
6.136121e+01	-6.044532e-04
6.171563e+01	-6.114555e-04
6.207210e+01	-6.185388e-04
6.243063e+01	-6.257043e-04
6.279122e+01	-6.329527e-04
6.315390e+01	-6.402851e-04
6.351868e+01	-6.477024e-04
6.388556e+01	-6.552057e-04
6.425456e+01	-6.627958e-04
6.462569e+01	-6.704739e-04
6.499897e+01	-6.782409e-04
6.537440e+01	-6.860979e-04
6.575200e+01	-6.940459e-04
6.613178e+01	-7.020860e-04
6.651375e+01	-7.102192e-04
6.689793e+01	-7.184466e-04
6.728433e+01	-7.267693e-04
6.767297e+01	-7.351884e-04
6.806384e+01	-7.437050e-04
6.845698e+01	-7.523203e-04
6.885238e+01	-7.610354e-04
6.925007e+01	-7.698514e-04
6.965005e+01	-7.787695e-04
7.005235e+01	-7.877910e-04
7.045697e+01	-7.969169e-04
7.086393e+01	-8.061485e-04
7.127323e+01	-8.154871e-04
7.168490e+01	-8.249339e-04
7.209895e+01	-8.344900e-04
7.251539e+01	-8.441569e-04
7.293424e+01	-8.539357e-04
7.335551e+01	-8.638278e-04
7.377920e+01	-8.738345e-04
7.420535e+01	-8.839571e-04
7.463396e+01	-8.941969e-04
7.506504e+01	-9.045553e-04
7.549861e+01	-9.150337e-04
7.593469e+01	-9.256335e-04
7.637328e+01	-9.363561e-04
7.681441e+01	-9.472028e-04
7.725809e+01	-9.581752e-04
7.770433e+01	-9.692747e-04
7.815315e+01	-9.805028e-04
7.860456e+01	-9.918609e-04
7.905857e+01	-1.003351e-03
7.951521e+01	-1.014973e-03
7.997449e+01	-1.026731e-03
8.043642e+01	-1.038624e-03
8.090102e+01	-1.050655e-03
8.136830e+01	-1.062826e-03
8.183828e+01	-1.075138e-03
8.231097e+01	-1.087592e-03
8.278640e+01	-1.100190e-03
8.326457e+01	-1.112935e-03
8.374550e+01	-1.125827e-03
8.422921e+01	-1.138868e-03
8.471572e+01	-1.152060e-03
8.520503e+01	-1.165405e-03
8.569717e+01	-1.178905e-03
8.619215e+01	-1.192561e-03
8.669000e+01	-1.206375e-03
8.719071e+01	-1.220350e-03
8.769432e+01	-1.234486e-03
8.820084e+01	-1.248786e-03
8.871029e+01	-1.263251e-03
8.922267e+01	-1.277884e-03
8.973802e+01	-1.292686e-03
9.025634e+01	-1.307660e-03
9.077766e+01	-1.322807e-03
9.130199e+01	-1.338130e-03
9.182935e+01	-1.353630e-03
9.235975e+01	-1.369310e-03
9.289321e+01	-1.385171e-03
9.342976e+01	-1.401216e-03
9.396941e+01	-1.417447e-03
9.451217e+01	-1.433866e-03
9.505807e+01	-1.450475e-03
9.560712e+01	-1.467276e-03
9.615934e+01	-1.484272e-03
9.671476e+01	-1.501465e-03
9.727338e+01	-1.518857e-03
9.783522e+01	-1.536450e-03
9.840032e+01	-1.554247e-03
9.896867e+01	-1.572250e-03
9.954031e+01	-1.590462e-03
1.001153e+02	-1.608884e-03
1.006935e+02	-1.627520e-03
1.012751e+02	-1.646372e-03
1.018601e+02	-1.665442e-03
1.024484e+02	-1.684733e-03
1.030402e+02	-1.704247e-03
1.036353e+02	-1.723987e-03
1.042339e+02	-1.743956e-03
1.048360e+02	-1.764156e-03
1.054415e+02	-1.784590e-03
1.060505e+02	-1.805261e-03
1.066631e+02	-1.826171e-03
1.072791e+02	-1.847323e-03
1.078988e+02	-1.868720e-03
1.085220e+02	-1.890365e-03
1.091488e+02	-1.912260e-03
1.097793e+02	-1.934409e-03
1.104133e+02	-1.956815e-03
1.110511e+02	-1.979480e-03
1.116925e+02	-2.002408e-03
1.123376e+02	-2.025601e-03
1.129865e+02	-2.049062e-03
1.136391e+02	-2.072795e-03
1.142955e+02	-2.096804e-03
1.149556e+02	-2.121090e-03
1.156196e+02	-2.145657e-03
1.162874e+02	-2.170509e-03
1.169591e+02	-2.195648e-03
1.176347e+02	-2.221079e-03
1.183141e+02	-2.246804e-03
1.189975e+02	-2.272827e-03
1.196848e+02	-2.299151e-03
1.203761e+02	-2.325781e-03
1.210714e+02	-2.352718e-03
1.217707e+02	-2.379967e-03
1.224740e+02	-2.407532e-03
1.231814e+02	-2.435416e-03
1.238929e+02	-2.463623e-03
1.246085e+02	-2.492157e-03
1.253283e+02	-2.521021e-03
1.260522e+02	-2.550219e-03
1.267802e+02	-2.579755e-03
1.275125e+02	-2.609633e-03
1.282490e+02	-2.639857e-03
1.289898e+02	-2.670431e-03
1.297348e+02	-2.701359e-03
1.304842e+02	-2.732645e-03
1.312378e+02	-2.764294e-03
1.319959e+02	-2.796309e-03
1.327583e+02	-2.828694e-03
1.335251e+02	-2.861454e-03
1.342963e+02	-2.894594e-03
1.350720e+02	-2.928117e-03
1.358522e+02	-2.962029e-03
1.366368e+02	-2.996333e-03
1.374260e+02	-3.031034e-03
1.382198e+02	-3.066137e-03
1.390182e+02	-3.101646e-03
1.398211e+02	-3.137566e-03
1.406287e+02	-3.173903e-03
1.414410e+02	-3.210660e-03
1.422579e+02	-3.247842e-03
1.430796e+02	-3.285455e-03
1.439060e+02	-3.323503e-03
1.447372e+02	-3.361992e-03
1.455732e+02	-3.400926e-03
1.464141e+02	-3.440311e-03
1.472597e+02	-3.480152e-03
1.481103e+02	-3.520454e-03
1.489658e+02	-3.561223e-03
1.498262e+02	-3.602463e-03
1.506916e+02	-3.644181e-03
1.515620e+02	-3.686382e-03
1.524374e+02	-3.729071e-03
1.533179e+02	-3.772255e-03
1.542034e+02	-3.815938e-03
1.550941e+02	-3.860127e-03
1.559899e+02	-3.904828e-03
1.568909e+02	-3.950045e-03
1.577971e+02	-3.995787e-03
1.587085e+02	-4.042057e-03
1.596252e+02	-4.088863e-03
1.605472e+02	-4.136211e-03
1.614745e+02	-4.184107e-03
1.624072e+02	-4.232558e-03
1.633453e+02	-4.281569e-03
1.642887e+02	-4.331147e-03
1.652377e+02	-4.381299e-03
1.661921e+02	-4.432032e-03
1.671520e+02	-4.483351e-03
1.681175e+02	-4.535265e-03
1.690885e+02	-4.587779e-03
1.700651e+02	-4.640901e-03
1.710474e+02	-4.694638e-03
1.720354e+02	-4.748997e-03
1.730291e+02	-4.803985e-03
1.740285e+02	-4.859609e-03
1.750337e+02	-4.915877e-03
1.760446e+02	-4.972796e-03
1.770615e+02	-5.030374e-03
1.780842e+02	-5.088618e-03
1.791128e+02	-5.147536e-03
1.801473e+02	-5.207135e-03
1.811878e+02	-5.267425e-03
1.822344e+02	-5.328412e-03
1.832870e+02	-5.390104e-03
1.843456e+02	-5.452511e-03
1.854104e+02	-5.515639e-03
1.864813e+02	-5.579498e-03
1.875584e+02	-5.644096e-03
1.886418e+02	-5.709441e-03
1.897313e+02	-5.775542e-03
1.908272e+02	-5.842408e-03
1.919294e+02	-5.910048e-03
1.930380e+02	-5.978470e-03
1.941530e+02	-6.047684e-03
1.952744e+02	-6.117698e-03
1.964023e+02	-6.188523e-03
1.975367e+02	-6.260167e-03
1.986777e+02	-6.332639e-03
1.998252e+02	-6.405950e-03
2.009794e+02	-6.480109e-03
2.021403e+02	-6.555126e-03
2.033078e+02	-6.631011e-03
2.044821e+02	-6.707774e-03
2.056632e+02	-6.785424e-03
2.068511e+02	-6.863972e-03
2.080459e+02	-6.943430e-03
2.092475e+02	-7.023806e-03
2.104561e+02	-7.105112e-03
2.116717e+02	-7.187358e-03
2.128943e+02	-7.270555e-03
2.141240e+02	-7.354715e-03
2.153608e+02	-7.439848e-03
2.166047e+02	-7.525966e-03
2.178558e+02	-7.613079e-03
2.191141e+02	-7.701200e-03
2.203797e+02	-7.790340e-03
2.216526e+02	-7.880511e-03
2.229329e+02	-7.971725e-03
2.242205e+02	-8.063993e-03
2.255156e+02	-8.157329e-03
2.268182e+02	-8.251744e-03
2.281283e+02	-8.347250e-03
2.294459e+02	-8.443861e-03
2.307712e+02	-8.541588e-03
2.321041e+02	-8.640446e-03
2.334447e+02	-8.740447e-03
2.347931e+02	-8.841604e-03
2.361493e+02	-8.943930e-03
2.375133e+02	-9.047440e-03
2.388851e+02	-9.152146e-03
2.402649e+02	-9.258062e-03
2.416527e+02	-9.365203e-03
2.430484e+02	-9.473583e-03
2.444523e+02	-9.583215e-03
2.458642e+02	-9.694115e-03
2.472843e+02	-9.806296e-03
2.487126e+02	-9.919775e-03
2.501492e+02	-1.003456e-02
2.515940e+02	-1.015068e-02
2.530472e+02	-1.026814e-02
2.545088e+02	-1.038696e-02
2.559789e+02	-1.050715e-02
2.574574e+02	-1.062872e-02
2.589444e+02	-1.075171e-02
2.604401e+02	-1.087611e-02
2.619444e+02	-1.100195e-02
2.634574e+02	-1.112925e-02
2.649791e+02	-1.125802e-02
2.665096e+02	-1.138827e-02
2.680489e+02	-1.152003e-02
2.695972e+02	-1.165332e-02
2.711544e+02	-1.178814e-02
2.727205e+02	-1.192452e-02
2.742958e+02	-1.206248e-02
2.758801e+02	-1.220203e-02
2.774736e+02	-1.234319e-02
2.790762e+02	-1.248598e-02
2.806882e+02	-1.263042e-02
2.823094e+02	-1.277653e-02
2.839400e+02	-1.292433e-02
2.855800e+02	-1.307384e-02
2.872295e+02	-1.322507e-02
2.888886e+02	-1.337805e-02
2.905572e+02	-1.353280e-02
2.922354e+02	-1.368933e-02
2.939234e+02	-1.384767e-02
2.956211e+02	-1.400784e-02
2.973286e+02	-1.416986e-02
2.990459e+02	-1.433375e-02
3.007732e+02	-1.449953e-02
3.025104e+02	-1.466722e-02
3.042577e+02	-1.483686e-02
3.060151e+02	-1.500845e-02
3.077826e+02	-1.518202e-02
3.095604e+02	-1.535759e-02
3.113484e+02	-1.553520e-02
3.131467e+02	-1.571485e-02
3.149554e+02	-1.589657e-02
3.167746e+02	-1.608040e-02
3.186043e+02	-1.626634e-02
3.204445e+02	-1.645444e-02
3.222954e+02	-1.664470e-02
3.241570e+02	-1.683716e-02
3.260293e+02	-1.703183e-02
3.279124e+02	-1.722876e-02
3.298064e+02	-1.742796e-02
3.317114e+02	-1.762945e-02
3.336273e+02	-1.783327e-02
3.355544e+02	-1.803945e-02
3.374925e+02	-1.824800e-02
3.394418e+02	-1.845895e-02
3.414024e+02	-1.867234e-02
3.433744e+02	-1.888820e-02
3.453577e+02	-1.910654e-02
3.473525e+02	-1.932740e-02
3.493588e+02	-1.955080e-02
3.513766e+02	-1.977679e-02
3.534062e+02	-2.000538e-02
3.554474e+02	-2.023660e-02
3.575005e+02	-2.047049e-02
3.595654e+02	-2.070708e-02
3.616422e+02	-2.094640e-02
3.637311e+02	-2.118847e-02
3.658320e+02	-2.143334e-02
3.679450e+02	-2.168103e-02
3.700702e+02	-2.193157e-02
3.722077e+02	-2.218500e-02
3.743576e+02	-2.244136e-02
3.765199e+02	-2.270066e-02
3.786946e+02	-2.296296e-02
3.808820e+02	-2.322828e-02
3.830819e+02	-2.349665e-02
3.852946e+02	-2.376812e-02
3.875200e+02	-2.404271e-02
3.897583e+02	-2.432047e-02
3.920096e+02	-2.460143e-02
3.942738e+02	-2.488563e-02
3.965511e+02	-2.517309e-02
3.988416e+02	-2.546387e-02
4.011452e+02	-2.575800e-02
4.034622e+02	-2.605551e-02
4.057926e+02	-2.635646e-02
4.081365e+02	-2.666086e-02
4.104938e+02	-2.696877e-02
4.128648e+02	-2.728023e-02
4.152495e+02	-2.759527e-02
4.176480e+02	-2.791394e-02
4.200603e+02	-2.823627e-02
4.224866e+02	-2.856232e-02
4.249268e+02	-2.889211e-02
4.273812e+02	-2.922571e-02
4.298497e+02	-2.956314e-02
4.323325e+02	-2.990445e-02
4.348297e+02	-3.024969e-02
4.373412e+02	-3.059890e-02
4.398673e+02	-3.095213e-02
4.424079e+02	-3.130943e-02
4.449633e+02	-3.167083e-02
4.475334e+02	-3.203638e-02
4.501183e+02	-3.240614e-02
4.527182e+02	-3.278016e-02
4.553330e+02	-3.315847e-02
4.579630e+02	-3.354113e-02
4.606082e+02	-3.392819e-02
4.632687e+02	-3.431970e-02
4.659445e+02	-3.471571e-02
4.686358e+02	-3.511627e-02
4.713426e+02	-3.552143e-02
4.740650e+02	-3.593125e-02
4.768032e+02	-3.634577e-02
4.795572e+02	-3.676506e-02
4.823271e+02	-3.718917e-02
4.851130e+02	-3.761814e-02
4.879150e+02	-3.805204e-02
4.907332e+02	-3.849093e-02
4.935676e+02	-3.893485e-02
4.964185e+02	-3.938387e-02
4.992858e+02	-3.983804e-02
5.021696e+02	-4.029743e-02
5.050701e+02	-4.076209e-02
5.079874e+02	-4.123208e-02
5.109215e+02	-4.170747e-02
5.138726e+02	-4.218831e-02
5.168407e+02	-4.267466e-02
5.198259e+02	-4.316660e-02
5.228284e+02	-4.366417e-02
5.258482e+02	-4.416745e-02
5.288855e+02	-4.467651e-02
5.319403e+02	-4.519140e-02
5.350128e+02	-4.571219e-02
5.381030e+02	-4.623895e-02
5.412111e+02	-4.677175e-02
5.443371e+02	-4.731066e-02
5.474812e+02	-4.785574e-02
5.506434e+02	-4.840706e-02
5.538239e+02	-4.896470e-02
5.570228e+02	-4.952873e-02
5.602401e+02	-5.009922e-02
5.634760e+02	-5.067624e-02
5.667306e+02	-5.125986e-02
5.700040e+02	-5.185017e-02
5.732964e+02	-5.244723e-02
5.766077e+02	-5.305113e-02
5.799382e+02	-5.366194e-02
5.832879e+02	-5.427974e-02
5.866569e+02	-5.490460e-02
5.900454e+02	-5.553661e-02
5.934535e+02	-5.617585e-02
5.968813e+02	-5.682240e-02
6.003288e+02	-5.747634e-02
6.037963e+02	-5.813775e-02
6.072838e+02	-5.880673e-02
6.107914e+02	-5.948335e-02
6.143194e+02	-6.016770e-02
6.178676e+02	-6.085986e-02
6.214364e+02	-6.155994e-02
6.250258e+02	-6.226801e-02
6.286359e+02	-6.298416e-02
6.322669e+02	-6.370849e-02
6.359189e+02	-6.444109e-02
6.395919e+02	-6.518205e-02
6.432862e+02	-6.593147e-02
6.470017e+02	-6.668943e-02
6.507388e+02	-6.745604e-02
6.544974e+02	-6.823139e-02
6.582778e+02	-6.901559e-02
6.620800e+02	-6.980872e-02
6.659041e+02	-7.061090e-02
6.697504e+02	-7.142221e-02
6.736188e+02	-7.224277e-02
6.775096e+02	-7.307268e-02
6.814229e+02	-7.391204e-02
6.853587e+02	-7.476096e-02
6.893173e+02	-7.561954e-02
6.932988e+02	-7.648790e-02
6.973033e+02	-7.736614e-02
7.013309e+02	-7.825437e-02
