Frequency(Hz)	Magnitude(dB)
1.000000e+01	-1.748025e-05
1.005776e+01	-1.768276e-05
1.011585e+01	-1.788762e-05
1.017428e+01	-1.809485e-05
1.023305e+01	-1.830449e-05
1.029215e+01	-1.851655e-05
1.035160e+01	-1.873107e-05
1.041139e+01	-1.894807e-05
1.047153e+01	-1.916759e-05
1.053201e+01	-1.938965e-05
1.059284e+01	-1.961429e-05
1.065403e+01	-1.984152e-05
1.071556e+01	-2.007139e-05
1.077746e+01	-2.030392e-05
1.083971e+01	-2.053915e-05
1.090232e+01	-2.077710e-05
1.096529e+01	-2.101781e-05
1.102862e+01	-2.126131e-05
1.109232e+01	-2.150762e-05
1.115639e+01	-2.175679e-05
1.122083e+01	-2.200885e-05
1.128564e+01	-2.226383e-05
1.135083e+01	-2.252176e-05
1.141639e+01	-2.278268e-05
1.148233e+01	-2.304663e-05
1.154865e+01	-2.331363e-05
1.161536e+01	-2.358372e-05
1.168245e+01	-2.385694e-05
1.174992e+01	-2.413333e-05
1.181779e+01	-2.441292e-05
1.188605e+01	-2.469575e-05
1.195470e+01	-2.498186e-05
1.202375e+01	-2.527128e-05
1.209320e+01	-2.556405e-05
1.216305e+01	-2.586022e-05
1.223330e+01	-2.615982e-05
1.230396e+01	-2.646289e-05
1.237503e+01	-2.676946e-05
1.244651e+01	-2.707959e-05
1.251840e+01	-2.739332e-05
1.259070e+01	-2.771068e-05
1.266343e+01	-2.803171e-05
1.273657e+01	-2.835647e-05
1.281014e+01	-2.868498e-05
1.288413e+01	-2.901730e-05
1.295855e+01	-2.935348e-05
1.303339e+01	-2.969354e-05
1.310867e+01	-3.003755e-05
1.318439e+01	-3.038554e-05
1.326054e+01	-3.073757e-05
1.333713e+01	-3.109367e-05
1.341417e+01	-3.145390e-05
1.349165e+01	-3.181830e-05
1.356958e+01	-3.218692e-05
1.364795e+01	-3.255981e-05
1.372678e+01	-3.293703e-05
1.380607e+01	-3.331861e-05
1.388581e+01	-3.370461e-05
1.396602e+01	-3.409509e-05
1.404668e+01	-3.449009e-05
1.412782e+01	-3.488966e-05
1.420942e+01	-3.529387e-05
1.429149e+01	-3.570276e-05
1.437404e+01	-3.611638e-05
1.445706e+01	-3.653480e-05
1.454057e+01	-3.695806e-05
1.462455e+01	-3.738623e-05
1.470902e+01	-3.781936e-05
1.479398e+01	-3.825750e-05
1.487943e+01	-3.870073e-05
1.496537e+01	-3.914908e-05
1.505181e+01	-3.960263e-05
1.513875e+01	-4.006144e-05
1.522619e+01	-4.052556e-05
1.531414e+01	-4.099506e-05
1.540259e+01	-4.147000e-05
1.549156e+01	-4.195043e-05
1.558103e+01	-4.243644e-05
1.567103e+01	-4.292807e-05
1.576155e+01	-4.342541e-05
1.585258e+01	-4.392850e-05
1.594415e+01	-4.443742e-05
1.603624e+01	-4.495224e-05
1.612886e+01	-4.547302e-05
1.622202e+01	-4.599983e-05
1.631572e+01	-4.653275e-05
1.640996e+01	-4.707184e-05
1.650474e+01	-4.761718e-05
1.660008e+01	-4.816884e-05
1.669596e+01	-4.872688e-05
1.679239e+01	-4.929139e-05
1.688938e+01	-4.986245e-05
1.698694e+01	-5.044011e-05
1.708505e+01	-5.102447e-05
1.718373e+01	-5.161560e-05
1.728299e+01	-5.221358e-05
1.738281e+01	-5.281848e-05
1.748322e+01	-5.343040e-05
1.758420e+01	-5.404940e-05
1.768576e+01	-5.467557e-05
1.778792e+01	-5.530900e-05
1.789066e+01	-5.594977e-05
1.799399e+01	-5.659796e-05
1.809793e+01	-5.725366e-05
1.820246e+01	-5.791695e-05
1.830760e+01	-5.858793e-05
1.841334e+01	-5.926668e-05
1.851969e+01	-5.995330e-05
1.862666e+01	-6.064787e-05
1.873425e+01	-6.135049e-05
1.884246e+01	-6.206125e-05
1.895129e+01	-6.278024e-05
1.906075e+01	-6.350756e-05
1.917085e+01	-6.424331e-05
1.928158e+01	-6.498758e-05
1.939295e+01	-6.574047e-05
1.950496e+01	-6.650209e-05
1.961762e+01	-6.727253e-05
1.973093e+01	-6.805189e-05
1.984490e+01	-6.884029e-05
1.995952e+01	-6.963781e-05
2.007480e+01	-7.044458e-05
2.019076e+01	-7.126069e-05
2.030738e+01	-7.208626e-05
2.042467e+01	-7.292139e-05
2.054264e+01	-7.376620e-05
2.066130e+01	-7.462080e-05
2.078064e+01	-7.548529e-05
2.090066e+01	-7.635980e-05
2.102139e+01	-7.724444e-05
2.114280e+01	-7.813933e-05
2.126492e+01	-7.904459e-05
2.138775e+01	-7.996034e-05
2.151128e+01	-8.088669e-05
2.163553e+01	-8.182378e-05
2.176050e+01	-8.277172e-05
2.188619e+01	-8.373064e-05
2.201260e+01	-8.470068e-05
2.213974e+01	-8.568195e-05
2.226762e+01	-8.667459e-05
2.239624e+01	-8.767873e-05
2.252560e+01	-8.869450e-05
2.265571e+01	-8.972204e-05
2.278656e+01	-9.076148e-05
2.291818e+01	-9.181297e-05
2.305055e+01	-9.287664e-05
2.318369e+01	-9.395263e-05
2.331760e+01	-9.504108e-05
2.345228e+01	-9.614215e-05
2.358774e+01	-9.725597e-05
2.372398e+01	-9.838269e-05
2.386101e+01	-9.952247e-05
2.399883e+01	-1.006755e-04
2.413745e+01	-1.018418e-04
2.427686e+01	-1.030216e-04
2.441709e+01	-1.042152e-04
2.455812e+01	-1.054225e-04
2.469997e+01	-1.066438e-04
2.484263e+01	-1.078793e-04
2.498612e+01	-1.091291e-04
2.513044e+01	-1.103934e-04
2.527559e+01	-1.116723e-04
2.542158e+01	-1.129661e-04
2.556842e+01	-1.142748e-04
2.571610e+01	-1.155987e-04
2.586463e+01	-1.169379e-04
2.601403e+01	-1.182926e-04
2.616428e+01	-1.196631e-04
2.631541e+01	-1.210494e-04
2.646740e+01	-1.224518e-04
2.662028e+01	-1.238704e-04
2.677404e+01	-1.253054e-04
2.692868e+01	-1.267571e-04
2.708422e+01	-1.282256e-04
2.724066e+01	-1.297111e-04
2.739800e+01	-1.312138e-04
2.755625e+01	-1.327339e-04
2.771541e+01	-1.342717e-04
2.787550e+01	-1.358272e-04
2.803650e+01	-1.374008e-04
2.819844e+01	-1.389926e-04
2.836131e+01	-1.406029e-04
2.852513e+01	-1.422317e-04
2.868989e+01	-1.438795e-04
2.885560e+01	-1.455464e-04
2.902227e+01	-1.472325e-04
2.918990e+01	-1.489382e-04
2.935850e+01	-1.506637e-04
2.952807e+01	-1.524092e-04
2.969863e+01	-1.541748e-04
2.987016e+01	-1.559609e-04
3.004269e+01	-1.577678e-04
3.021622e+01	-1.595955e-04
3.039075e+01	-1.614444e-04
3.056628e+01	-1.633148e-04
3.074283e+01	-1.652068e-04
3.092040e+01	-1.671207e-04
3.109900e+01	-1.690568e-04
3.127862e+01	-1.710154e-04
3.145929e+01	-1.729966e-04
3.164099e+01	-1.750008e-04
3.182375e+01	-1.770281e-04
3.200756e+01	-1.790790e-04
3.219244e+01	-1.811537e-04
3.237838e+01	-1.832523e-04
3.256540e+01	-1.853753e-04
3.275349e+01	-1.875229e-04
3.294268e+01	-1.896954e-04
3.313295e+01	-1.918930e-04
3.332433e+01	-1.941161e-04
3.351681e+01	-1.963649e-04
3.371040e+01	-1.986398e-04
3.390511e+01	-2.009410e-04
3.410094e+01	-2.032689e-04
3.429791e+01	-2.056238e-04
3.449601e+01	-2.080060e-04
3.469526e+01	-2.104157e-04
3.489566e+01	-2.128534e-04
3.509721e+01	-2.153193e-04
3.529993e+01	-2.178138e-04
3.550382e+01	-2.203371e-04
3.570889e+01	-2.228897e-04
3.591515e+01	-2.254719e-04
3.612259e+01	-2.280840e-04
3.633123e+01	-2.307263e-04
3.654108e+01	-2.333993e-04
3.675214e+01	-2.361032e-04
3.696442e+01	-2.388385e-04
3.717792e+01	-2.416054e-04
3.739266e+01	-2.444044e-04
3.760864e+01	-2.472358e-04
3.782587e+01	-2.501000e-04
3.804435e+01	-2.529974e-04
3.826409e+01	-2.559283e-04
3.848510e+01	-2.588933e-04
3.870739e+01	-2.618925e-04
3.893096e+01	-2.649265e-04
3.915583e+01	-2.679957e-04
3.938199e+01	-2.711004e-04
3.960946e+01	-2.742411e-04
3.983824e+01	-2.774181e-04
4.006834e+01	-2.806320e-04
4.029978e+01	-2.838831e-04
4.053255e+01	-2.871718e-04
4.076666e+01	-2.904987e-04
4.100213e+01	-2.938641e-04
4.123896e+01	-2.972685e-04
4.147715e+01	-3.007123e-04
4.171672e+01	-3.041960e-04
4.195767e+01	-3.077201e-04
4.220002e+01	-3.112850e-04
4.244377e+01	-3.148911e-04
4.268892e+01	-3.185391e-04
4.293549e+01	-3.222293e-04
4.318348e+01	-3.259623e-04
4.343291e+01	-3.297385e-04
4.368377e+01	-3.335585e-04
4.393609e+01	-3.374227e-04
4.418986e+01	-3.413317e-04
4.444510e+01	-3.452860e-04
4.470182e+01	-3.492860e-04
4.496001e+01	-3.533325e-04
4.521970e+01	-3.574257e-04
4.548089e+01	-3.615664e-04
4.574358e+01	-3.657551e-04
4.600779e+01	-3.699923e-04
4.627353e+01	-3.742786e-04
4.654081e+01	-3.786145e-04
4.680963e+01	-3.830007e-04
4.708000e+01	-3.874377e-04
4.735193e+01	-3.919260e-04
4.762543e+01	-3.964664e-04
4.790051e+01	-4.010593e-04
4.817719e+01	-4.057055e-04
4.845545e+01	-4.104055e-04
4.873533e+01	-4.151599e-04
4.901682e+01	-4.199694e-04
4.929994e+01	-4.248347e-04
4.958470e+01	-4.297563e-04
4.987110e+01	-4.347348e-04
5.015915e+01	-4.397711e-04
5.044887e+01	-4.448657e-04
5.074026e+01	-4.500194e-04
5.103333e+01	-4.552327e-04
5.132810e+01	-4.605064e-04
5.162457e+01	-4.658412e-04
5.192275e+01	-4.712378e-04
5.222265e+01	-4.766969e-04
5.252429e+01	-4.822193e-04
5.282767e+01	-4.878056e-04
5.313280e+01	-4.934567e-04
5.343969e+01	-4.991732e-04
5.374836e+01	-5.049559e-04
5.405880e+01	-5.108056e-04
5.437105e+01	-5.167231e-04
5.468509e+01	-5.227091e-04
5.500095e+01	-5.287644e-04
5.531863e+01	-5.348900e-04
5.563815e+01	-5.410864e-04
5.595951e+01	-5.473547e-04
5.628273e+01	-5.536955e-04
5.660782e+01	-5.601098e-04
5.693479e+01	-5.665984e-04
5.726364e+01	-5.731622e-04
5.759439e+01	-5.798020e-04
5.792705e+01	-5.865187e-04
5.826164e+01	-5.933132e-04
5.859815e+01	-6.001864e-04
5.893662e+01	-6.071393e-04
5.927703e+01	-6.141726e-04
5.961941e+01	-6.212875e-04
5.996377e+01	-6.284848e-04
6.031012e+01	-6.357654e-04
6.065847e+01	-6.431304e-04
6.100883e+01	-6.505806e-04
6.136121e+01	-6.581172e-04
6.171563e+01	-6.657411e-04
6.207210e+01	-6.734533e-04
6.243063e+01	-6.812548e-04
6.279122e+01	-6.891467e-04
6.315390e+01	-6.971301e-04
6.351868e+01	-7.052058e-04
6.388556e+01	-7.133752e-04
6.425456e+01	-7.216391e-04
6.462569e+01	-7.299988e-04
6.499897e+01	-7.384553e-04
6.537440e+01	-7.470098e-04
6.575200e+01	-7.556634e-04
6.613178e+01	-7.644172e-04
6.651375e+01	-7.732724e-04
6.689793e+01	-7.822301e-04
6.728433e+01	-7.912917e-04
6.767297e+01	-8.004581e-04
6.806384e+01	-8.097308e-04
6.845698e+01	-8.191109e-04
6.885238e+01	-8.285996e-04
6.925007e+01	-8.381982e-04
6.965005e+01	-8.479080e-04
7.005235e+01	-8.577303e-04
7.045697e+01	-8.676663e-04
7.086393e+01	-8.777175e-04
7.127323e+01	-8.878850e-04
7.168490e+01	-8.981704e-04
7.209895e+01	-9.085748e-04
7.251539e+01	-9.190998e-04
7.293424e+01	-9.297467e-04
7.335551e+01	-9.405169e-04
7.377920e+01	-9.514118e-04
7.420535e+01	-9.624330e-04
7.463396e+01	-9.735818e-04
7.506504e+01	-9.848597e-04
7.549861e+01	-9.962683e-04
7.593469e+01	-1.007809e-03
7.637328e+01	-1.019483e-03
7.681441e+01	-1.031293e-03
7.725809e+01	-1.043239e-03
7.770433e+01	-1.055324e-03
7.815315e+01	-1.067549e-03
7.860456e+01	-1.079915e-03
7.905857e+01	-1.092425e-03
7.951521e+01	-1.105079e-03
7.997449e+01	-1.117880e-03
8.043642e+01	-1.130829e-03
8.090102e+01	-1.143929e-03
8.136830e+01	-1.157179e-03
8.183828e+01	-1.170584e-03
8.231097e+01	-1.184144e-03
8.278640e+01	-1.197860e-03
8.326457e+01	-1.211736e-03
8.374550e+01	-1.225772e-03
8.422921e+01	-1.239971e-03
8.471572e+01	-1.254334e-03
8.520503e+01	-1.268864e-03
8.569717e+01	-1.283562e-03
8.619215e+01	-1.298430e-03
8.669000e+01	-1.313471e-03
8.719071e+01	-1.328685e-03
8.769432e+01	-1.344076e-03
8.820084e+01	-1.359645e-03
8.871029e+01	-1.375394e-03
8.922267e+01	-1.391326e-03
8.973802e+01	-1.407442e-03
9.025634e+01	-1.423745e-03
9.077766e+01	-1.440237e-03
9.130199e+01	-1.456920e-03
9.182935e+01	-1.473796e-03
9.235975e+01	-1.490867e-03
9.289321e+01	-1.508136e-03
9.342976e+01	-1.525605e-03
9.396941e+01	-1.543277e-03
9.451217e+01	-1.561153e-03
9.505807e+01	-1.579236e-03
9.560712e+01	-1.597528e-03
9.615934e+01	-1.616033e-03
9.671476e+01	-1.634751e-03
9.727338e+01	-1.653687e-03
9.783522e+01	-1.672842e-03
9.840032e+01	-1.692218e-03
9.896867e+01	-1.711819e-03
9.954031e+01	-1.731647e-03
1.001153e+02	-1.751705e-03
1.006935e+02	-1.771994e-03
1.012751e+02	-1.792519e-03
1.018601e+02	-1.813282e-03
1.024484e+02	-1.834285e-03
1.030402e+02	-1.855531e-03
1.036353e+02	-1.877023e-03
1.042339e+02	-1.898764e-03
1.048360e+02	-1.920757e-03
1.054415e+02	-1.943004e-03
1.060505e+02	-1.965509e-03
1.066631e+02	-1.988275e-03
1.072791e+02	-2.011304e-03
1.078988e+02	-2.034600e-03
1.085220e+02	-2.058166e-03
1.091488e+02	-2.082005e-03
1.097793e+02	-2.106120e-03
1.104133e+02	-2.130514e-03
1.110511e+02	-2.155190e-03
1.116925e+02	-2.180152e-03
1.123376e+02	-2.205403e-03
1.129865e+02	-2.230947e-03
1.136391e+02	-2.256787e-03
1.142955e+02	-2.282925e-03
1.149556e+02	-2.309366e-03
1.156196e+02	-2.336114e-03
1.162874e+02	-2.363171e-03
1.169591e+02	-2.390541e-03
1.176347e+02	-2.418229e-03
1.183141e+02	-2.446237e-03
1.189975e+02	-2.474569e-03
1.196848e+02	-2.503229e-03
1.203761e+02	-2.532221e-03
1.210714e+02	-2.561549e-03
1.217707e+02	-2.591216e-03
1.224740e+02	-2.621227e-03
1.231814e+02	-2.651585e-03
1.238929e+02	-2.682295e-03
1.246085e+02	-2.713361e-03
1.253283e+02	-2.744786e-03
1.260522e+02	-2.776575e-03
1.267802e+02	-2.808732e-03
1.275125e+02	-2.841261e-03
1.282490e+02	-2.874167e-03
1.289898e+02	-2.907453e-03
1.297348e+02	-2.941126e-03
1.304842e+02	-2.975188e-03
1.312378e+02	-3.009644e-03
1.319959e+02	-3.044499e-03
1.327583e+02	-3.079758e-03
1.335251e+02	-3.115425e-03
1.342963e+02	-3.151505e-03
1.350720e+02	-3.188003e-03
1.358522e+02	-3.224923e-03
1.366368e+02	-3.262270e-03
1.374260e+02	-3.300050e-03
1.382198e+02	-3.338267e-03
1.390182e+02	-3.376927e-03
1.398211e+02	-3.416034e-03
1.406287e+02	-3.455594e-03
1.414410e+02	-3.495612e-03
1.422579e+02	-3.536093e-03
1.430796e+02	-3.577043e-03
1.439060e+02	-3.618466e-03
1.447372e+02	-3.660369e-03
1.455732e+02	-3.702758e-03
1.464141e+02	-3.745637e-03
1.472597e+02	-3.789012e-03
1.481103e+02	-3.832889e-03
1.489658e+02	-3.877274e-03
1.498262e+02	-3.922173e-03
1.506916e+02	-3.967592e-03
1.515620e+02	-4.013536e-03
1.524374e+02	-4.060012e-03
1.533179e+02	-4.107026e-03
1.542034e+02	-4.154584e-03
1.550941e+02	-4.202693e-03
1.559899e+02	-4.251358e-03
1.568909e+02	-4.300587e-03
1.577971e+02	-4.350385e-03
1.587085e+02	-4.400760e-03
1.596252e+02	-4.451718e-03
1.605472e+02	-4.503265e-03
1.614745e+02	-4.555409e-03
1.624072e+02	-4.608157e-03
1.633453e+02	-4.661515e-03
1.642887e+02	-4.715490e-03
1.652377e+02	-4.770090e-03
1.661921e+02	-4.825322e-03
1.671520e+02	-4.881194e-03
1.681175e+02	-4.937711e-03
1.690885e+02	-4.994883e-03
1.700651e+02	-5.052716e-03
1.710474e+02	-5.111219e-03
1.720354e+02	-5.170398e-03
1.730291e+02	-5.230262e-03
1.740285e+02	-5.290819e-03
1.750337e+02	-5.352077e-03
1.760446e+02	-5.414043e-03
1.770615e+02	-5.476727e-03
1.780842e+02	-5.540136e-03
1.791128e+02	-5.604278e-03
1.801473e+02	-5.669162e-03
1.811878e+02	-5.734798e-03
1.822344e+02	-5.801192e-03
1.832870e+02	-5.868355e-03
1.843456e+02	-5.936295e-03
1.854104e+02	-6.005021e-03
1.864813e+02	-6.074542e-03
1.875584e+02	-6.144867e-03
1.886418e+02	-6.216006e-03
1.897313e+02	-6.287967e-03
1.908272e+02	-6.360762e-03
1.919294e+02	-6.434398e-03
1.930380e+02	-6.508886e-03
1.941530e+02	-6.584236e-03
1.952744e+02	-6.660457e-03
1.964023e+02	-6.737560e-03
1.975367e+02	-6.815555e-03
1.986777e+02	-6.894452e-03
1.998252e+02	-6.974262e-03
2.009794e+02	-7.054995e-03
2.021403e+02	-7.136661e-03
2.033078e+02	-7.219272e-03
2.044821e+02	-7.302839e-03
2.056632e+02	-7.387372e-03
2.068511e+02	-7.472883e-03
2.080459e+02	-7.559383e-03
2.092475e+02	-7.646883e-03
2.104561e+02	-7.735395e-03
2.116717e+02	-7.824930e-03
2.128943e+02	-7.915501e-03
2.141240e+02	-8.007119e-03
2.153608e+02	-8.099797e-03
2.166047e+02	-8.193547e-03
2.178558e+02	-8.288380e-03
2.191141e+02	-8.384310e-03
2.203797e+02	-8.481349e-03
2.216526e+02	-8.579510e-03
2.229329e+02	-8.678807e-03
2.242205e+02	-8.779251e-03
2.255156e+02	-8.880856e-03
2.268182e+02	-8.983637e-03
2.281283e+02	-9.087605e-03
2.294459e+02	-9.192776e-03
2.307712e+02	-9.299162e-03
2.321041e+02	-9.406778e-03
2.334447e+02	-9.515638e-03
2.347931e+02	-9.625757e-03
2.361493e+02	-9.737148e-03
2.375133e+02	-9.849827e-03
2.388851e+02	-9.963808e-03
2.402649e+02	-1.007911e-02
2.416527e+02	-1.019574e-02
2.430484e+02	-1.031372e-02
2.444523e+02	-1.043306e-02
2.458642e+02	-1.055378e-02
2.472843e+02	-1.067590e-02
2.487126e+02	-1.079943e-02
2.501492e+02	-1.092439e-02
2.515940e+02	-1.105079e-02
2.530472e+02	-1.117865e-02
2.545088e+02	-1.130799e-02
2.559789e+02	-1.143882e-02
2.574574e+02	-1.157116e-02
2.589444e+02	-1.170504e-02
2.604401e+02	-1.184046e-02
2.619444e+02	-1.197744e-02
2.634574e+02	-1.211601e-02
2.649791e+02	-1.225618e-02
2.665096e+02	-1.239796e-02
2.680489e+02	-1.254139e-02
2.695972e+02	-1.268647e-02
2.711544e+02	-1.283323e-02
2.727205e+02	-1.298168e-02
2.742958e+02	-1.313185e-02
2.758801e+02	-1.328375e-02
2.774736e+02	-1.343741e-02
2.790762e+02	-1.359284e-02
2.806882e+02	-1.375007e-02
2.823094e+02	-1.390911e-02
2.839400e+02	-1.406999e-02
2.855800e+02	-1.423273e-02
2.872295e+02	-1.439734e-02
2.888886e+02	-1.456386e-02
2.905572e+02	-1.473230e-02
2.922354e+02	-1.490268e-02
2.939234e+02	-1.507503e-02
2.956211e+02	-1.524937e-02
2.973286e+02	-1.542572e-02
2.990459e+02	-1.560411e-02
3.007732e+02	-1.578456e-02
3.025104e+02	-1.596709e-02
3.042577e+02	-1.615173e-02
3.060151e+02	-1.633850e-02
3.077826e+02	-1.652742e-02
3.095604e+02	-1.671853e-02
3.113484e+02	-1.691184e-02
3.131467e+02	-1.710738e-02
3.149554e+02	-1.730517e-02
3.167746e+02	-1.750525e-02
3.186043e+02	-1.770764e-02
3.204445e+02	-1.791236e-02
3.222954e+02	-1.811945e-02
3.241570e+02	-1.832892e-02
3.260293e+02	-1.854081e-02
3.279124e+02	-1.875515e-02
3.298064e+02	-1.897195e-02
3.317114e+02	-1.919126e-02
3.336273e+02	-1.941310e-02
3.355544e+02	-1.963749e-02
3.374925e+02	-1.986448e-02
3.394418e+02	-2.009408e-02
3.414024e+02	-2.032633e-02
3.433744e+02	-2.056125e-02
3.453577e+02	-2.079889e-02
3.473525e+02	-2.103926e-02
3.493588e+02	-2.128241e-02
3.513766e+02	-2.152836e-02
3.534062e+02	-2.177714e-02
3.554474e+02	-2.202879e-02
3.575005e+02	-2.228334e-02
3.595654e+02	-2.254083e-02
3.616422e+02	-2.280128e-02
3.637311e+02	-2.306474e-02
3.658320e+02	-2.333123e-02
3.679450e+02	-2.360079e-02
3.700702e+02	-2.387346e-02
3.722077e+02	-2.414927e-02
3.743576e+02	-2.442825e-02
3.765199e+02	-2.471045e-02
3.786946e+02	-2.499590e-02
3.808820e+02	-2.528464e-02
3.830819e+02	-2.557670e-02
3.852946e+02	-2.587213e-02
3.875200e+02	-2.617096e-02
3.897583e+02	-2.647323e-02
3.920096e+02	-2.677898e-02
3.942738e+02	-2.708825e-02
3.965511e+02	-2.740108e-02
3.988416e+02	-2.771751e-02
4.011452e+02	-2.803759e-02
4.034622e+02	-2.836135e-02
4.057926e+02	-2.868883e-02
4.081365e+02	-2.902008e-02
4.104938e+02	-2.935515e-02
4.128648e+02	-2.969407e-02
4.152495e+02	-3.003689e-02
4.176480e+02	-3.038365e-02
4.200603e+02	-3.073441e-02
4.224866e+02	-3.108919e-02
4.249268e+02	-3.144806e-02
4.273812e+02	-3.181106e-02
4.298497e+02	-3.217823e-02
4.323325e+02	-3.254962e-02
4.348297e+02	-3.292528e-02
4.373412e+02	-3.330526e-02
4.398673e+02	-3.368961e-02
4.424079e+02	-3.407838e-02
4.449633e+02	-3.447161e-02
4.475334e+02	-3.486937e-02
4.501183e+02	-3.527169e-02
4.527182e+02	-3.567864e-02
4.553330e+02	-3.609027e-02
4.579630e+02	-3.650662e-02
4.606082e+02	-3.692775e-02
4.632687e+02	-3.735373e-02
4.659445e+02	-3.778459e-02
4.686358e+02	-3.822041e-02
4.713426e+02	-3.866122e-02
4.740650e+02	-3.910710e-02
4.768032e+02	-3.955810e-02
4.795572e+02	-4.001427e-02
4.823271e+02	-4.047568e-02
4.851130e+02	-4.094239e-02
4.879150e+02	-4.141445e-02
4.907332e+02	-4.189193e-02
4.935676e+02	-4.237488e-02
4.964185e+02	-4.286338e-02
4.992858e+02	-4.335747e-02
5.021696e+02	-4.385724e-02
5.050701e+02	-4.436274e-02
5.079874e+02	-4.487403e-02
5.109215e+02	-4.539118e-02
5.138726e+02	-4.591427e-02
5.168407e+02	-4.644334e-02
5.198259e+02	-4.697849e-02
5.228284e+02	-4.751976e-02
5.258482e+02	-4.806724e-02
5.288855e+02	-4.862098e-02
5.319403e+02	-4.918107e-02
5.350128e+02	-4.974758e-02
5.381030e+02	-5.032057e-02
5.412111e+02	-5.090013e-02
5.443371e+02	-5.148632e-02
5.474812e+02	-5.207922e-02
5.506434e+02	-5.267890e-02
5.538239e+02	-5.328545e-02
5.570228e+02	-5.389894e-02
5.602401e+02	-5.451945e-02
5.634760e+02	-5.514705e-02
5.667306e+02	-5.578184e-02
5.700040e+02	-5.642388e-02
5.732964e+02	-5.707326e-02
5.766077e+02	-5.773007e-02
5.799382e+02	-5.839439e-02
5.832879e+02	-5.906629e-02
5.866569e+02	-5.974588e-02
5.900454e+02	-6.043323e-02
5.934535e+02	-6.112843e-02
5.968813e+02	-6.183157e-02
6.003288e+02	-6.254274e-02
6.037963e+02	-6.326204e-02
6.072838e+02	-6.398954e-02
6.107914e+02	-6.472535e-02
6.143194e+02	-6.546955e-02
6.178676e+02	-6.622224e-02
6.214364e+02	-6.698352e-02
6.250258e+02	-6.775349e-02
6.286359e+02	-6.853223e-02
6.322669e+02	-6.931986e-02
6.359189e+02	-7.011646e-02
6.395919e+02	-7.092214e-02
6.432862e+02	-7.173700e-02
6.470017e+02	-7.256115e-02
6.507388e+02	-7.339468e-02
6.544974e+02	-7.423771e-02
6.582778e+02	-7.509034e-02
6.620800e+02	-7.595267e-02
6.659041e+02	-7.682482e-02
6.697504e+02	-7.770689e-02
6.736188e+02	-7.859900e-02
6.775096e+02	-7.950126e-02
6.814229e+02	-8.041378e-02
6.853587e+02	-8.133667e-02
6.893173e+02	-8.227006e-02
6.932988e+02	-8.321405e-02
6.973033e+02	-8.416877e-02
7.013309e+02	-8.513433e-02
