Frequency(Hz)	Magnitude(dB)
1.000000e+01	-2.159596e+00
1.005776e+01	-2.179278e+00
1.011585e+01	-2.198942e+00
1.017428e+01	-2.218713e+00
1.023305e+01	-2.239132e+00
1.029215e+01	-2.259183e+00
1.035160e+01	-2.279610e+00
1.041139e+01	-2.300021e+00
1.047153e+01	-2.320725e+00
1.053201e+01	-2.341412e+00
1.059284e+01	-2.362138e+00
1.065403e+01	-2.383391e+00
1.071556e+01	-2.404504e+00
1.077746e+01	-2.425878e+00
1.083971e+01	-2.447397e+00
1.090232e+01	-2.469324e+00
1.096529e+01	-2.490862e+00
1.102862e+01	-2.512683e+00
1.109232e+01	-2.534775e+00
1.115639e+01	-2.556955e+00
1.122083e+01	-2.579364e+00
1.128564e+01	-2.601641e+00
1.135083e+01	-2.624554e+00
1.141639e+01	-2.647076e+00
1.148233e+01	-2.669945e+00
1.154865e+01	-2.693022e+00
1.161536e+01	-2.716121e+00
1.168245e+01	-2.739432e+00
1.174992e+01	-2.763046e+00
1.181779e+01	-2.786691e+00
1.188605e+01	-2.810476e+00
1.195470e+01	-2.834330e+00
1.202375e+01	-2.858860e+00
1.209320e+01	-2.882582e+00
1.216305e+01	-2.906911e+00
1.223330e+01	-2.931808e+00
1.230396e+01	-2.956113e+00
1.237503e+01	-2.980899e+00
1.244651e+01	-3.005881e+00
1.251840e+01	-3.030572e+00
1.259070e+01	-3.055947e+00
1.266343e+01	-3.081473e+00
1.273657e+01	-3.106842e+00
1.281014e+01	-3.132423e+00
1.288413e+01	-3.158072e+00
1.295855e+01	-3.184037e+00
1.303339e+01	-3.210376e+00
1.310867e+01	-3.236520e+00
1.318439e+01	-3.262758e+00
1.326054e+01	-3.289301e+00
1.333713e+01	-3.315982e+00
1.341417e+01	-3.342686e+00
1.349165e+01	-3.369721e+00
1.356958e+01	-3.396771e+00
1.364795e+01	-3.423982e+00
1.372678e+01	-3.451180e+00
1.380607e+01	-3.478848e+00
1.388581e+01	-3.506473e+00
1.396602e+01	-3.534184e+00
1.404668e+01	-3.562208e+00
1.412782e+01	-3.590154e+00
1.420942e+01	-3.618481e+00
1.429149e+01	-3.646540e+00
1.437404e+01	-3.675081e+00
1.445706e+01	-3.704143e+00
1.454057e+01	-3.732638e+00
1.462455e+01	-3.761535e+00
1.470902e+01	-3.790946e+00
1.479398e+01	-3.819883e+00
1.487943e+01	-3.849178e+00
1.496537e+01	-3.878705e+00
1.505181e+01	-3.908404e+00
1.513875e+01	-3.937913e+00
1.522619e+01	-3.967943e+00
1.531414e+01	-3.997873e+00
1.540259e+01	-4.028322e+00
1.549156e+01	-4.058483e+00
1.558103e+01	-4.088929e+00
1.567103e+01	-4.119503e+00
1.576155e+01	-4.150228e+00
1.585258e+01	-4.180988e+00
1.594415e+01	-4.212022e+00
1.603624e+01	-4.242872e+00
1.612886e+01	-4.274346e+00
1.622202e+01	-4.305959e+00
1.631572e+01	-4.337358e+00
1.640996e+01	-4.369245e+00
1.650474e+01	-4.400645e+00
1.660008e+01	-4.433045e+00
1.669596e+01	-4.464969e+00
1.679239e+01	-4.496980e+00
1.688938e+01	-4.529302e+00
1.698694e+01	-4.561720e+00
1.708505e+01	-4.594343e+00
1.718373e+01	-4.626877e+00
1.728299e+01	-4.659998e+00
1.738281e+01	-4.692784e+00
1.748322e+01	-4.725891e+00
1.758420e+01	-4.759307e+00
1.768576e+01	-4.792802e+00
1.778792e+01	-4.826006e+00
1.789066e+01	-4.859609e+00
1.799399e+01	-4.893479e+00
1.809793e+01	-4.927285e+00
1.820246e+01	-4.961368e+00
1.830760e+01	-4.995495e+00
1.841334e+01	-5.029539e+00
1.851969e+01	-5.064298e+00
1.862666e+01	-5.098613e+00
1.873425e+01	-5.133183e+00
1.884246e+01	-5.168180e+00
1.895129e+01	-5.203017e+00
1.906075e+01	-5.237890e+00
1.917085e+01	-5.273122e+00
1.928158e+01	-5.307909e+00
1.939295e+01	-5.343469e+00
1.950496e+01	-5.379110e+00
1.961762e+01	-5.414571e+00
1.973093e+01	-5.450422e+00
1.984490e+01	-5.486118e+00
1.995952e+01	-5.522086e+00
2.007480e+01	-5.557871e+00
2.019076e+01	-5.594209e+00
2.030738e+01	-5.630341e+00
2.042467e+01	-5.667165e+00
2.054264e+01	-5.703385e+00
2.066130e+01	-5.740245e+00
2.078064e+01	-5.777282e+00
2.090066e+01	-5.813583e+00
2.102139e+01	-5.850708e+00
2.114280e+01	-5.887637e+00
2.126492e+01	-5.924935e+00
2.138775e+01	-5.962514e+00
2.151128e+01	-5.999801e+00
2.163553e+01	-6.037167e+00
2.176050e+01	-6.074670e+00
2.188619e+01	-6.112348e+00
2.201260e+01	-6.150208e+00
2.213974e+01	-6.188111e+00
2.226762e+01	-6.226184e+00
2.239624e+01	-6.264581e+00
2.252560e+01	-6.302913e+00
2.265571e+01	-6.340903e+00
2.278656e+01	-6.379834e+00
2.291818e+01	-6.418101e+00
2.305055e+01	-6.456776e+00
2.318369e+01	-6.495613e+00
2.331760e+01	-6.534625e+00
2.345228e+01	-6.573319e+00
2.358774e+01	-6.612433e+00
2.372398e+01	-6.651651e+00
2.386101e+01	-6.690851e+00
2.399883e+01	-6.730339e+00
2.413745e+01	-6.769923e+00
2.427686e+01	-6.809057e+00
2.441709e+01	-6.849033e+00
2.455812e+01	-6.889056e+00
2.469997e+01	-6.928641e+00
2.484263e+01	-6.968099e+00
2.498612e+01	-7.008577e+00
2.513044e+01	-7.048159e+00
2.527559e+01	-7.088783e+00
2.542158e+01	-7.128833e+00
2.556842e+01	-7.169120e+00
2.571610e+01	-7.209808e+00
2.586463e+01	-7.250052e+00
2.601403e+01	-7.291040e+00
2.616428e+01	-7.331644e+00
2.631541e+01	-7.372702e+00
2.646740e+01	-7.413363e+00
2.662028e+01	-7.454618e+00
2.677404e+01	-7.495968e+00
2.692868e+01	-7.536768e+00
2.708422e+01	-7.578061e+00
2.724066e+01	-7.619107e+00
2.739800e+01	-7.661180e+00
2.755625e+01	-7.702050e+00
2.771541e+01	-7.744178e+00
2.787550e+01	-7.785445e+00
2.803650e+01	-7.827149e+00
2.819844e+01	-7.868629e+00
2.836131e+01	-7.911297e+00
2.852513e+01	-7.952713e+00
2.868989e+01	-7.995098e+00
2.885560e+01	-8.037036e+00
2.902227e+01	-8.079309e+00
2.918990e+01	-8.121264e+00
2.935850e+01	-8.164276e+00
2.952807e+01	-8.206110e+00
2.969863e+01	-8.248851e+00
2.987016e+01	-8.291637e+00
3.004269e+01	-8.333656e+00
3.021622e+01	-8.377052e+00
3.039075e+01	-8.419654e+00
3.056628e+01	-8.462265e+00
3.074283e+01	-8.505005e+00
3.092040e+01	-8.548547e+00
3.109900e+01	-8.591434e+00
3.127862e+01	-8.634766e+00
3.145929e+01	-8.677900e+00
3.164099e+01	-8.721035e+00
3.182375e+01	-8.764065e+00
3.200756e+01	-8.807421e+00
3.219244e+01	-8.851201e+00
3.237838e+01	-8.894931e+00
3.256540e+01	-8.938352e+00
3.275349e+01	-8.982212e+00
3.294268e+01	-9.025568e+00
3.313295e+01	-9.069882e+00
3.332433e+01	-9.113554e+00
3.351681e+01	-9.157341e+00
3.371040e+01	-9.201521e+00
3.390511e+01	-9.245676e+00
3.410094e+01	-9.289640e+00
3.429791e+01	-9.333818e+00
3.449601e+01	-9.378012e+00
3.469526e+01	-9.422246e+00
3.489566e+01	-9.466267e+00
3.509721e+01	-9.510861e+00
3.529993e+01	-9.555551e+00
3.550382e+01	-9.600026e+00
3.570889e+01	-9.644637e+00
3.591515e+01	-9.689400e+00
3.612259e+01	-9.733870e+00
3.633123e+01	-9.778754e+00
3.654108e+01	-9.822774e+00
3.675214e+01	-9.868419e+00
3.696442e+01	-9.913054e+00
3.717792e+01	-9.957886e+00
3.739266e+01	-1.000278e+01
3.760864e+01	-1.004780e+01
3.782587e+01	-1.009281e+01
3.804435e+01	-1.013808e+01
3.826409e+01	-1.018357e+01
3.848510e+01	-1.022894e+01
3.870739e+01	-1.027413e+01
3.893096e+01	-1.031925e+01
3.915583e+01	-1.036482e+01
3.938199e+01	-1.041017e+01
3.960946e+01	-1.045603e+01
3.983824e+01	-1.050119e+01
4.006834e+01	-1.054641e+01
4.029978e+01	-1.059350e+01
4.053255e+01	-1.063816e+01
4.076666e+01	-1.068356e+01
4.100213e+01	-1.072917e+01
4.123896e+01	-1.077540e+01
4.147715e+01	-1.082117e+01
4.171672e+01	-1.086757e+01
4.195767e+01	-1.091329e+01
4.220002e+01	-1.095874e+01
4.244377e+01	-1.100525e+01
4.268892e+01	-1.105143e+01
4.293549e+01	-1.109800e+01
4.318348e+01	-1.114368e+01
4.343291e+01	-1.118985e+01
4.368377e+01	-1.123656e+01
4.393609e+01	-1.128232e+01
4.418986e+01	-1.132821e+01
4.444510e+01	-1.137524e+01
4.470182e+01	-1.142081e+01
4.496001e+01	-1.146746e+01
4.521970e+01	-1.151436e+01
4.548089e+01	-1.156121e+01
4.574358e+01	-1.160764e+01
4.600779e+01	-1.165372e+01
4.627353e+01	-1.170088e+01
4.654081e+01	-1.174747e+01
4.680963e+01	-1.179429e+01
4.708000e+01	-1.184020e+01
4.735193e+01	-1.188754e+01
4.762543e+01	-1.193492e+01
4.790051e+01	-1.198103e+01
4.817719e+01	-1.202827e+01
4.845545e+01	-1.207489e+01
4.873533e+01	-1.212195e+01
4.901682e+01	-1.216913e+01
4.929994e+01	-1.221530e+01
4.958470e+01	-1.226329e+01
4.987110e+01	-1.230993e+01
5.015915e+01	-1.235748e+01
5.044887e+01	-1.240431e+01
5.074026e+01	-1.245218e+01
5.103333e+01	-1.249819e+01
5.132810e+01	-1.254629e+01
5.162457e+01	-1.259270e+01
5.192275e+01	-1.264054e+01
5.222265e+01	-1.268819e+01
5.252429e+01	-1.273537e+01
5.282767e+01	-1.278202e+01
5.313280e+01	-1.283017e+01
5.343969e+01	-1.287664e+01
5.374836e+01	-1.292495e+01
5.405880e+01	-1.297215e+01
5.437105e+01	-1.301917e+01
5.468509e+01	-1.306746e+01
5.500095e+01	-1.311467e+01
5.531863e+01	-1.316227e+01
5.563815e+01	-1.320991e+01
5.595951e+01	-1.325789e+01
5.628273e+01	-1.330595e+01
5.660782e+01	-1.335259e+01
5.693479e+01	-1.340112e+01
5.726364e+01	-1.344913e+01
5.759439e+01	-1.349664e+01
5.792705e+01	-1.354384e+01
5.826164e+01	-1.359207e+01
5.859815e+01	-1.363974e+01
5.893662e+01	-1.368725e+01
5.927703e+01	-1.373603e+01
5.961941e+01	-1.378380e+01
5.996377e+01	-1.383083e+01
6.031012e+01	-1.387943e+01
6.065847e+01	-1.392774e+01
6.100883e+01	-1.397601e+01
6.136121e+01	-1.402396e+01
6.171563e+01	-1.407171e+01
6.207210e+01	-1.411970e+01
6.243063e+01	-1.416834e+01
6.279122e+01	-1.421540e+01
6.315390e+01	-1.426383e+01
6.351868e+01	-1.431184e+01
6.388556e+01	-1.436007e+01
6.425456e+01	-1.440899e+01
6.462569e+01	-1.445720e+01
6.499897e+01	-1.450519e+01
6.537440e+01	-1.455340e+01
6.575200e+01	-1.460075e+01
6.613178e+01	-1.465015e+01
6.651375e+01	-1.469792e+01
6.689793e+01	-1.474631e+01
6.728433e+01	-1.479582e+01
6.767297e+01	-1.484430e+01
6.806384e+01	-1.489166e+01
6.845698e+01	-1.494029e+01
6.885238e+01	-1.498863e+01
6.925007e+01	-1.503718e+01
6.965005e+01	-1.508534e+01
7.005235e+01	-1.513395e+01
7.045697e+01	-1.518255e+01
7.086393e+01	-1.523072e+01
7.127323e+01	-1.527936e+01
7.168490e+01	-1.532814e+01
7.209895e+01	-1.537566e+01
7.251539e+01	-1.542501e+01
7.293424e+01	-1.547402e+01
7.335551e+01	-1.552263e+01
7.377920e+01	-1.557106e+01
7.420535e+01	-1.561961e+01
7.463396e+01	-1.566770e+01
7.506504e+01	-1.571793e+01
7.549861e+01	-1.576578e+01
7.593469e+01	-1.581380e+01
7.637328e+01	-1.586265e+01
7.681441e+01	-1.591215e+01
7.725809e+01	-1.596002e+01
7.770433e+01	-1.600831e+01
7.815315e+01	-1.605844e+01
7.860456e+01	-1.610580e+01
7.905857e+01	-1.615699e+01
7.951521e+01	-1.620469e+01
7.997449e+01	-1.625452e+01
8.043642e+01	-1.630277e+01
8.090102e+01	-1.635044e+01
8.136830e+01	-1.639990e+01
8.183828e+01	-1.644949e+01
8.231097e+01	-1.649830e+01
8.278640e+01	-1.654716e+01
8.326457e+01	-1.659540e+01
8.374550e+01	-1.664453e+01
8.422921e+01	-1.669391e+01
8.471572e+01	-1.674267e+01
8.520503e+01	-1.679107e+01
8.569717e+01	-1.684080e+01
8.619215e+01	-1.688978e+01
8.669000e+01	-1.693815e+01
8.719071e+01	-1.698887e+01
8.769432e+01	-1.703657e+01
8.820084e+01	-1.708542e+01
8.871029e+01	-1.713523e+01
8.922267e+01	-1.718373e+01
8.973802e+01	-1.723170e+01
9.025634e+01	-1.728206e+01
9.077766e+01	-1.733077e+01
9.130199e+01	-1.737949e+01
9.182935e+01	-1.743066e+01
9.235975e+01	-1.747855e+01
9.289321e+01	-1.752935e+01
9.342976e+01	-1.757767e+01
9.396941e+01	-1.762673e+01
9.451217e+01	-1.767565e+01
9.505807e+01	-1.772296e+01
9.560712e+01	-1.777272e+01
9.615934e+01	-1.782255e+01
9.671476e+01	-1.787327e+01
9.727338e+01	-1.792209e+01
9.783522e+01	-1.797144e+01
9.840032e+01	-1.802017e+01
9.896867e+01	-1.806857e+01
9.954031e+01	-1.811856e+01
1.001153e+02	-1.816748e+01
1.006935e+02	-1.821683e+01
1.012751e+02	-1.826479e+01
1.018601e+02	-1.831441e+01
1.024484e+02	-1.836583e+01
1.030402e+02	-1.841305e+01
1.036353e+02	-1.846285e+01
1.042339e+02	-1.851335e+01
1.048360e+02	-1.856211e+01
1.054415e+02	-1.861239e+01
1.060505e+02	-1.866087e+01
1.066631e+02	-1.871027e+01
1.072791e+02	-1.875981e+01
1.078988e+02	-1.880900e+01
1.085220e+02	-1.885748e+01
1.091488e+02	-1.890732e+01
1.097793e+02	-1.895643e+01
1.104133e+02	-1.900435e+01
1.110511e+02	-1.905569e+01
1.116925e+02	-1.910483e+01
1.123376e+02	-1.915434e+01
1.129865e+02	-1.920377e+01
1.136391e+02	-1.925435e+01
1.142955e+02	-1.930250e+01
1.149556e+02	-1.935224e+01
1.156196e+02	-1.940196e+01
1.162874e+02	-1.945137e+01
1.169591e+02	-1.950195e+01
1.176347e+02	-1.954957e+01
1.183141e+02	-1.959864e+01
1.189975e+02	-1.964905e+01
1.196848e+02	-1.969854e+01
1.203761e+02	-1.974889e+01
1.210714e+02	-1.979590e+01
1.217707e+02	-1.984652e+01
1.224740e+02	-1.989660e+01
1.231814e+02	-1.994641e+01
1.238929e+02	-1.999471e+01
1.246085e+02	-2.004533e+01
1.253283e+02	-2.009529e+01
1.260522e+02	-2.014386e+01
1.267802e+02	-2.019391e+01
1.275125e+02	-2.024358e+01
1.282490e+02	-2.029238e+01
1.289898e+02	-2.034084e+01
1.297348e+02	-2.039046e+01
1.304842e+02	-2.044142e+01
1.312378e+02	-2.049092e+01
1.319959e+02	-2.054131e+01
1.327583e+02	-2.059212e+01
1.335251e+02	-2.064079e+01
1.342963e+02	-2.069088e+01
1.350720e+02	-2.073853e+01
1.358522e+02	-2.078902e+01
1.366368e+02	-2.083713e+01
1.374260e+02	-2.088923e+01
1.382198e+02	-2.093838e+01
1.390182e+02	-2.098841e+01
1.398211e+02	-2.103635e+01
1.406287e+02	-2.108539e+01
1.414410e+02	-2.113554e+01
1.422579e+02	-2.118564e+01
1.430796e+02	-2.123332e+01
1.439060e+02	-2.128527e+01
1.447372e+02	-2.133456e+01
1.455732e+02	-2.138550e+01
1.464141e+02	-2.143575e+01
1.472597e+02	-2.148407e+01
1.481103e+02	-2.153569e+01
1.489658e+02	-2.158343e+01
1.498262e+02	-2.163179e+01
1.506916e+02	-2.168379e+01
1.515620e+02	-2.173292e+01
1.524374e+02	-2.178431e+01
1.533179e+02	-2.183204e+01
1.542034e+02	-2.188086e+01
1.550941e+02	-2.193235e+01
1.559899e+02	-2.198192e+01
1.568909e+02	-2.203043e+01
1.577971e+02	-2.208219e+01
1.587085e+02	-2.213126e+01
1.596252e+02	-2.218024e+01
1.605472e+02	-2.223032e+01
1.614745e+02	-2.227871e+01
1.624072e+02	-2.232963e+01
1.633453e+02	-2.237967e+01
1.642887e+02	-2.242781e+01
1.652377e+02	-2.248007e+01
1.661921e+02	-2.252880e+01
1.671520e+02	-2.257738e+01
1.681175e+02	-2.262816e+01
1.690885e+02	-2.267778e+01
1.700651e+02	-2.272930e+01
1.710474e+02	-2.277538e+01
1.720354e+02	-2.282880e+01
1.730291e+02	-2.287603e+01
1.740285e+02	-2.292570e+01
1.750337e+02	-2.297509e+01
1.760446e+02	-2.302446e+01
1.770615e+02	-2.307627e+01
1.780842e+02	-2.312584e+01
1.791128e+02	-2.317479e+01
1.801473e+02	-2.322489e+01
1.811878e+02	-2.327336e+01
1.822344e+02	-2.332529e+01
1.832870e+02	-2.337518e+01
1.843456e+02	-2.342640e+01
1.854104e+02	-2.347462e+01
1.864813e+02	-2.352390e+01
1.875584e+02	-2.357291e+01
1.886418e+02	-2.362200e+01
1.897313e+02	-2.367436e+01
1.908272e+02	-2.372240e+01
1.919294e+02	-2.377643e+01
1.930380e+02	-2.382373e+01
1.941530e+02	-2.387305e+01
1.952744e+02	-2.392624e+01
1.964023e+02	-2.397325e+01
1.975367e+02	-2.402310e+01
1.986777e+02	-2.407084e+01
1.998252e+02	-2.412289e+01
2.009794e+02	-2.417062e+01
2.021403e+02	-2.422312e+01
2.033078e+02	-2.427295e+01
2.044821e+02	-2.432146e+01
2.056632e+02	-2.437149e+01
2.068511e+02	-2.442026e+01
2.080459e+02	-2.446938e+01
2.092475e+02	-2.452121e+01
2.104561e+02	-2.457100e+01
2.116717e+02	-2.462130e+01
2.128943e+02	-2.467291e+01
2.141240e+02	-2.471917e+01
2.153608e+02	-2.477158e+01
2.166047e+02	-2.482273e+01
2.178558e+02	-2.486944e+01
2.191141e+02	-2.491897e+01
2.203797e+02	-2.496804e+01
2.216526e+02	-2.501729e+01
2.229329e+02	-2.507165e+01
2.242205e+02	-2.511839e+01
2.255156e+02	-2.517242e+01
2.268182e+02	-2.522016e+01
2.281283e+02	-2.526942e+01
2.294459e+02	-2.531972e+01
2.307712e+02	-2.537172e+01
2.321041e+02	-2.541938e+01
2.334447e+02	-2.547456e+01
2.347931e+02	-2.552100e+01
2.361493e+02	-2.556860e+01
2.375133e+02	-2.561939e+01
2.388851e+02	-2.566879e+01
2.402649e+02	-2.571611e+01
2.416527e+02	-2.576811e+01
2.430484e+02	-2.581995e+01
2.444523e+02	-2.586936e+01
2.458642e+02	-2.591831e+01
2.472843e+02	-2.597232e+01
2.487126e+02	-2.602194e+01
2.501492e+02	-2.606943e+01
2.515940e+02	-2.611867e+01
2.530472e+02	-2.616904e+01
2.545088e+02	-2.622204e+01
2.559789e+02	-2.626979e+01
2.574574e+02	-2.631851e+01
2.589444e+02	-2.636605e+01
2.604401e+02	-2.641962e+01
2.619444e+02	-2.646565e+01
2.634574e+02	-2.651613e+01
2.649791e+02	-2.656597e+01
2.665096e+02	-2.661833e+01
2.680489e+02	-2.666919e+01
2.695972e+02	-2.671699e+01
2.711544e+02	-2.676697e+01
2.727205e+02	-2.681517e+01
2.742958e+02	-2.687140e+01
2.758801e+02	-2.691820e+01
2.774736e+02	-2.696809e+01
2.790762e+02	-2.701906e+01
2.806882e+02	-2.706975e+01
2.823094e+02	-2.711620e+01
2.839400e+02	-2.716974e+01
2.855800e+02	-2.721924e+01
2.872295e+02	-2.726927e+01
2.888886e+02	-2.731813e+01
2.905572e+02	-2.736521e+01
2.922354e+02	-2.742084e+01
2.939234e+02	-2.746969e+01
2.956211e+02	-2.751686e+01
2.973286e+02	-2.756583e+01
2.990459e+02	-2.761662e+01
3.007732e+02	-2.766887e+01
3.025104e+02	-2.771728e+01
3.042577e+02	-2.776795e+01
3.060151e+02	-2.781590e+01
3.077826e+02	-2.786858e+01
3.095604e+02	-2.791895e+01
3.113484e+02	-2.796766e+01
3.131467e+02	-2.801646e+01
3.149554e+02	-2.806818e+01
3.167746e+02	-2.811823e+01
3.186043e+02	-2.816843e+01
3.204445e+02	-2.821944e+01
3.222954e+02	-2.827017e+01
3.241570e+02	-2.831596e+01
3.260293e+02	-2.836922e+01
3.279124e+02	-2.841973e+01
3.298064e+02	-2.846701e+01
3.317114e+02	-2.851732e+01
3.336273e+02	-2.856910e+01
3.355544e+02	-2.861678e+01
3.374925e+02	-2.866976e+01
3.394418e+02	-2.871846e+01
3.414024e+02	-2.876783e+01
3.433744e+02	-2.881706e+01
3.453577e+02	-2.886872e+01
3.473525e+02	-2.891773e+01
3.493588e+02	-2.897007e+01
3.513766e+02	-2.902214e+01
3.534062e+02	-2.906469e+01
3.554474e+02	-2.912093e+01
3.575005e+02	-2.916869e+01
3.595654e+02	-2.921764e+01
3.616422e+02	-2.926840e+01
3.637311e+02	-2.931698e+01
3.658320e+02	-2.937047e+01
3.679450e+02	-2.942016e+01
3.700702e+02	-2.946881e+01
3.722077e+02	-2.951836e+01
3.743576e+02	-2.956851e+01
3.765199e+02	-2.962178e+01
3.786946e+02	-2.966979e+01
3.808820e+02	-2.972476e+01
3.830819e+02	-2.976645e+01
3.852946e+02	-2.982179e+01
3.875200e+02	-2.986973e+01
3.897583e+02	-2.992054e+01
3.920096e+02	-2.996787e+01
3.942738e+02	-3.001526e+01
3.965511e+02	-3.006801e+01
3.988416e+02	-3.011709e+01
4.011452e+02	-3.016358e+01
4.034622e+02	-3.022292e+01
4.057926e+02	-3.027172e+01
4.081365e+02	-3.031976e+01
4.104938e+02	-3.037247e+01
4.128648e+02	-3.042415e+01
4.152495e+02	-3.047204e+01
4.176480e+02	-3.052196e+01
4.200603e+02	-3.057003e+01
4.224866e+02	-3.062686e+01
4.249268e+02	-3.067014e+01
4.273812e+02	-3.072233e+01
4.298497e+02	-3.077879e+01
4.323325e+02	-3.082137e+01
4.348297e+02	-3.087485e+01
4.373412e+02	-3.092442e+01
4.398673e+02	-3.097419e+01
4.424079e+02	-3.102035e+01
4.449633e+02	-3.107271e+01
4.475334e+02	-3.112181e+01
4.501183e+02	-3.117114e+01
4.527182e+02	-3.122306e+01
4.553330e+02	-3.127253e+01
4.579630e+02	-3.132304e+01
4.606082e+02	-3.137528e+01
4.632687e+02	-3.141987e+01
4.659445e+02	-3.147589e+01
4.686358e+02	-3.151813e+01
4.713426e+02	-3.157050e+01
4.740650e+02	-3.162473e+01
4.768032e+02	-3.167056e+01
4.795572e+02	-3.172151e+01
4.823271e+02	-3.177084e+01
4.851130e+02	-3.182621e+01
4.879150e+02	-3.187977e+01
4.907332e+02	-3.192933e+01
4.935676e+02	-3.197408e+01
4.964185e+02	-3.202978e+01
4.992858e+02	-3.208066e+01
5.021696e+02	-3.212026e+01
5.050701e+02	-3.217721e+01
5.079874e+02	-3.223111e+01
5.109215e+02	-3.227791e+01
5.138726e+02	-3.233128e+01
5.168407e+02	-3.237487e+01
5.198259e+02	-3.242594e+01
5.228284e+02	-3.247932e+01
5.258482e+02	-3.252684e+01
5.288855e+02	-3.258035e+01
5.319403e+02	-3.262055e+01
5.350128e+02	-3.267589e+01
5.381030e+02	-3.273175e+01
5.412111e+02	-3.277647e+01
5.443371e+02	-3.282701e+01
5.474812e+02	-3.287796e+01
5.506434e+02	-3.293461e+01
5.538239e+02	-3.298153e+01
5.570228e+02	-3.303189e+01
5.602401e+02	-3.308308e+01
5.634760e+02	-3.313705e+01
5.667306e+02	-3.318291e+01
5.700040e+02	-3.323429e+01
5.732964e+02	-3.328917e+01
5.766077e+02	-3.334289e+01
5.799382e+02	-3.338586e+01
5.832879e+02	-3.343675e+01
5.866569e+02	-3.348141e+01
5.900454e+02	-3.353350e+01
5.934535e+02	-3.358208e+01
5.968813e+02	-3.363095e+01
6.003288e+02	-3.368961e+01
6.037963e+02	-3.372876e+01
6.072838e+02	-3.378605e+01
6.107914e+02	-3.382823e+01
6.143194e+02	-3.388486e+01
6.178676e+02	-3.393510e+01
6.214364e+02	-3.398625e+01
6.250258e+02	-3.403622e+01
6.286359e+02	-3.408768e+01
6.322669e+02	-3.413554e+01
6.359189e+02	-3.418693e+01
6.395919e+02	-3.424110e+01
6.432862e+02	-3.428524e+01
6.470017e+02	-3.433656e+01
6.507388e+02	-3.439274e+01
6.544974e+02	-3.444415e+01
6.582778e+02	-3.448638e+01
6.620800e+02	-3.454007e+01
6.659041e+02	-3.458941e+01
6.697504e+02	-3.464739e+01
6.736188e+02	-3.468184e+01
6.775096e+02	-3.474152e+01
6.814229e+02	-3.480073e+01
6.853587e+02	-3.484138e+01
6.893173e+02	-3.488861e+01
6.932988e+02	-3.494975e+01
6.973033e+02	-3.499412e+01
7.013309e+02	-3.505169e+01
