Frequency(Hz)	Magnitude(dB)
1.000000e+01	-2.157071e+00
1.005776e+01	-2.176505e+00
1.011585e+01	-2.196233e+00
1.017428e+01	-2.215991e+00
1.023305e+01	-2.236163e+00
1.029215e+01	-2.256306e+00
1.035160e+01	-2.276707e+00
1.041139e+01	-2.297360e+00
1.047153e+01	-2.318038e+00
1.053201e+01	-2.338616e+00
1.059284e+01	-2.359442e+00
1.065403e+01	-2.380707e+00
1.071556e+01	-2.401647e+00
1.077746e+01	-2.423101e+00
1.083971e+01	-2.444610e+00
1.090232e+01	-2.466048e+00
1.096529e+01	-2.487784e+00
1.102862e+01	-2.509849e+00
1.109232e+01	-2.531915e+00
1.115639e+01	-2.553913e+00
1.122083e+01	-2.576281e+00
1.128564e+01	-2.598757e+00
1.135083e+01	-2.621425e+00
1.141639e+01	-2.644154e+00
1.148233e+01	-2.667053e+00
1.154865e+01	-2.690031e+00
1.161536e+01	-2.713149e+00
1.168245e+01	-2.736517e+00
1.174992e+01	-2.760186e+00
1.181779e+01	-2.783562e+00
1.188605e+01	-2.807244e+00
1.195470e+01	-2.831075e+00
1.202375e+01	-2.855188e+00
1.209320e+01	-2.879323e+00
1.216305e+01	-2.903610e+00
1.223330e+01	-2.928011e+00
1.230396e+01	-2.952768e+00
1.237503e+01	-2.977508e+00
1.244651e+01	-3.002306e+00
1.251840e+01	-3.027558e+00
1.259070e+01	-3.052730e+00
1.266343e+01	-3.078137e+00
1.273657e+01	-3.103422e+00
1.281014e+01	-3.129195e+00
1.288413e+01	-3.154653e+00
1.295855e+01	-3.180618e+00
1.303339e+01	-3.206647e+00
1.310867e+01	-3.233141e+00
1.318439e+01	-3.259393e+00
1.326054e+01	-3.285684e+00
1.333713e+01	-3.312202e+00
1.341417e+01	-3.339215e+00
1.349165e+01	-3.366017e+00
1.356958e+01	-3.393034e+00
1.364795e+01	-3.420383e+00
1.372678e+01	-3.447551e+00
1.380607e+01	-3.475235e+00
1.388581e+01	-3.502663e+00
1.396602e+01	-3.530584e+00
1.404668e+01	-3.558655e+00
1.412782e+01	-3.586346e+00
1.420942e+01	-3.614746e+00
1.429149e+01	-3.643224e+00
1.437404e+01	-3.671281e+00
1.445706e+01	-3.700248e+00
1.454057e+01	-3.728728e+00
1.462455e+01	-3.757904e+00
1.470902e+01	-3.786638e+00
1.479398e+01	-3.815707e+00
1.487943e+01	-3.845369e+00
1.496537e+01	-3.874901e+00
1.505181e+01	-3.904487e+00
1.513875e+01	-3.934209e+00
1.522619e+01	-3.963949e+00
1.531414e+01	-3.993978e+00
1.540259e+01	-4.023837e+00
1.549156e+01	-4.054425e+00
1.558103e+01	-4.084659e+00
1.567103e+01	-4.115391e+00
1.576155e+01	-4.146144e+00
1.585258e+01	-4.176652e+00
1.594415e+01	-4.207772e+00
1.603624e+01	-4.239068e+00
1.612886e+01	-4.269931e+00
1.622202e+01	-4.301625e+00
1.631572e+01	-4.332892e+00
1.640996e+01	-4.364743e+00
1.650474e+01	-4.396463e+00
1.660008e+01	-4.428442e+00
1.669596e+01	-4.460412e+00
1.679239e+01	-4.492667e+00
1.688938e+01	-4.524923e+00
1.698694e+01	-4.557222e+00
1.708505e+01	-4.589977e+00
1.718373e+01	-4.622761e+00
1.728299e+01	-4.655457e+00
1.738281e+01	-4.688503e+00
1.748322e+01	-4.721430e+00
1.758420e+01	-4.754885e+00
1.768576e+01	-4.788210e+00
1.778792e+01	-4.821612e+00
1.789066e+01	-4.855148e+00
1.799399e+01	-4.888925e+00
1.809793e+01	-4.922865e+00
1.820246e+01	-4.956722e+00
1.830760e+01	-4.990606e+00
1.841334e+01	-5.025001e+00
1.851969e+01	-5.059448e+00
1.862666e+01	-5.094061e+00
1.873425e+01	-5.128658e+00
1.884246e+01	-5.163238e+00
1.895129e+01	-5.198343e+00
1.906075e+01	-5.233075e+00
1.917085e+01	-5.268166e+00
1.928158e+01	-5.303500e+00
1.939295e+01	-5.338879e+00
1.950496e+01	-5.374155e+00
1.961762e+01	-5.409925e+00
1.973093e+01	-5.445532e+00
1.984490e+01	-5.481223e+00
1.995952e+01	-5.517334e+00
2.007480e+01	-5.553452e+00
2.019076e+01	-5.589333e+00
2.030738e+01	-5.626179e+00
2.042467e+01	-5.662191e+00
2.054264e+01	-5.698317e+00
2.066130e+01	-5.735227e+00
2.078064e+01	-5.772120e+00
2.090066e+01	-5.808967e+00
2.102139e+01	-5.845710e+00
2.114280e+01	-5.882456e+00
2.126492e+01	-5.920003e+00
2.138775e+01	-5.957217e+00
2.151128e+01	-5.994745e+00
2.163553e+01	-6.031861e+00
2.176050e+01	-6.069606e+00
2.188619e+01	-6.107222e+00
2.201260e+01	-6.145667e+00
2.213974e+01	-6.183298e+00
2.226762e+01	-6.221520e+00
2.239624e+01	-6.259437e+00
2.252560e+01	-6.297652e+00
2.265571e+01	-6.335968e+00
2.278656e+01	-6.374249e+00
2.291818e+01	-6.412707e+00
2.305055e+01	-6.451722e+00
2.318369e+01	-6.490247e+00
2.331760e+01	-6.529079e+00
2.345228e+01	-6.567968e+00
2.358774e+01	-6.607164e+00
2.372398e+01	-6.646541e+00
2.386101e+01	-6.685924e+00
2.399883e+01	-6.725117e+00
2.413745e+01	-6.764762e+00
2.427686e+01	-6.804130e+00
2.441709e+01	-6.843434e+00
2.455812e+01	-6.883224e+00
2.469997e+01	-6.922899e+00
2.484263e+01	-6.963012e+00
2.498612e+01	-7.003124e+00
2.513044e+01	-7.043226e+00
2.527559e+01	-7.083082e+00
2.542158e+01	-7.123441e+00
2.556842e+01	-7.163822e+00
2.571610e+01	-7.204513e+00
2.586463e+01	-7.245141e+00
2.601403e+01	-7.285648e+00
2.616428e+01	-7.326402e+00
2.631541e+01	-7.367228e+00
2.646740e+01	-7.407978e+00
2.662028e+01	-7.448790e+00
2.677404e+01	-7.490122e+00
2.692868e+01	-7.531110e+00
2.708422e+01	-7.572186e+00
2.724066e+01	-7.613900e+00
2.739800e+01	-7.655113e+00
2.755625e+01	-7.696602e+00
2.771541e+01	-7.738297e+00
2.787550e+01	-7.779650e+00
2.803650e+01	-7.821173e+00
2.819844e+01	-7.863231e+00
2.836131e+01	-7.905109e+00
2.852513e+01	-7.947238e+00
2.868989e+01	-7.989283e+00
2.885560e+01	-8.031186e+00
2.902227e+01	-8.073527e+00
2.918990e+01	-8.116017e+00
2.935850e+01	-8.158191e+00
2.952807e+01	-8.200464e+00
2.969863e+01	-8.243160e+00
2.987016e+01	-8.285826e+00
3.004269e+01	-8.328736e+00
3.021622e+01	-8.371205e+00
3.039075e+01	-8.413784e+00
3.056628e+01	-8.456332e+00
3.074283e+01	-8.499484e+00
3.092040e+01	-8.542575e+00
3.109900e+01	-8.585628e+00
3.127862e+01	-8.628663e+00
3.145929e+01	-8.671982e+00
3.164099e+01	-8.715338e+00
3.182375e+01	-8.758524e+00
3.200756e+01	-8.801574e+00
3.219244e+01	-8.845708e+00
3.237838e+01	-8.889226e+00
3.256540e+01	-8.932380e+00
3.275349e+01	-8.976238e+00
3.294268e+01	-9.019937e+00
3.313295e+01	-9.063820e+00
3.332433e+01	-9.107577e+00
3.351681e+01	-9.151100e+00
3.371040e+01	-9.195671e+00
3.390511e+01	-9.239373e+00
3.410094e+01	-9.284109e+00
3.429791e+01	-9.327834e+00
3.449601e+01	-9.371855e+00
3.469526e+01	-9.416254e+00
3.489566e+01	-9.460054e+00
3.509721e+01	-9.504692e+00
3.529993e+01	-9.549456e+00
3.550382e+01	-9.594147e+00
3.570889e+01	-9.638307e+00
3.591515e+01	-9.682528e+00
3.612259e+01	-9.727576e+00
3.633123e+01	-9.772672e+00
3.654108e+01	-9.817128e+00
3.675214e+01	-9.861788e+00
3.696442e+01	-9.906959e+00
3.717792e+01	-9.952142e+00
3.739266e+01	-9.997031e+00
3.760864e+01	-1.004238e+01
3.782587e+01	-1.008704e+01
3.804435e+01	-1.013240e+01
3.826409e+01	-1.017746e+01
3.848510e+01	-1.022294e+01
3.870739e+01	-1.026790e+01
3.893096e+01	-1.031334e+01
3.915583e+01	-1.035881e+01
3.938199e+01	-1.040438e+01
3.960946e+01	-1.045001e+01
3.983824e+01	-1.049566e+01
4.006834e+01	-1.054076e+01
4.029978e+01	-1.058624e+01
4.053255e+01	-1.063210e+01
4.076666e+01	-1.067812e+01
4.100213e+01	-1.072362e+01
4.123896e+01	-1.076917e+01
4.147715e+01	-1.081526e+01
4.171672e+01	-1.086151e+01
4.195767e+01	-1.090725e+01
4.220002e+01	-1.095328e+01
4.244377e+01	-1.099939e+01
4.268892e+01	-1.104535e+01
4.293549e+01	-1.109093e+01
4.318348e+01	-1.113667e+01
4.343291e+01	-1.118403e+01
4.368377e+01	-1.122973e+01
4.393609e+01	-1.127645e+01
4.418986e+01	-1.132219e+01
4.444510e+01	-1.136889e+01
4.470182e+01	-1.141519e+01
4.496001e+01	-1.146221e+01
4.521970e+01	-1.150869e+01
4.548089e+01	-1.155424e+01
4.574358e+01	-1.160111e+01
4.600779e+01	-1.164797e+01
4.627353e+01	-1.169399e+01
4.654081e+01	-1.174079e+01
4.680963e+01	-1.178805e+01
4.708000e+01	-1.183456e+01
4.735193e+01	-1.188190e+01
4.762543e+01	-1.192828e+01
4.790051e+01	-1.197511e+01
4.817719e+01	-1.202112e+01
4.845545e+01	-1.206917e+01
4.873533e+01	-1.211610e+01
4.901682e+01	-1.216259e+01
4.929994e+01	-1.220974e+01
4.958470e+01	-1.225623e+01
4.987110e+01	-1.230412e+01
5.015915e+01	-1.235123e+01
5.044887e+01	-1.239801e+01
5.074026e+01	-1.244548e+01
5.103333e+01	-1.249229e+01
5.132810e+01	-1.253962e+01
5.162457e+01	-1.258676e+01
5.192275e+01	-1.263392e+01
5.222265e+01	-1.268171e+01
5.252429e+01	-1.272817e+01
5.282767e+01	-1.277643e+01
5.313280e+01	-1.282333e+01
5.343969e+01	-1.286982e+01
5.374836e+01	-1.291824e+01
5.405880e+01	-1.296519e+01
5.437105e+01	-1.301305e+01
5.468509e+01	-1.306115e+01
5.500095e+01	-1.310804e+01
5.531863e+01	-1.315589e+01
5.563815e+01	-1.320366e+01
5.595951e+01	-1.325054e+01
5.628273e+01	-1.329871e+01
5.660782e+01	-1.334713e+01
5.693479e+01	-1.339375e+01
5.726364e+01	-1.344226e+01
5.759439e+01	-1.348998e+01
5.792705e+01	-1.353758e+01
5.826164e+01	-1.358524e+01
5.859815e+01	-1.363376e+01
5.893662e+01	-1.368072e+01
5.927703e+01	-1.372952e+01
5.961941e+01	-1.377688e+01
5.996377e+01	-1.382475e+01
6.031012e+01	-1.387319e+01
6.065847e+01	-1.392051e+01
6.100883e+01	-1.396920e+01
6.136121e+01	-1.401717e+01
6.171563e+01	-1.406475e+01
6.207210e+01	-1.411325e+01
6.243063e+01	-1.416122e+01
6.279122e+01	-1.420869e+01
6.315390e+01	-1.425807e+01
6.351868e+01	-1.430613e+01
6.388556e+01	-1.435368e+01
6.425456e+01	-1.440264e+01
6.462569e+01	-1.444910e+01
6.499897e+01	-1.449793e+01
6.537440e+01	-1.454712e+01
6.575200e+01	-1.459529e+01
6.613178e+01	-1.464346e+01
6.651375e+01	-1.469102e+01
6.689793e+01	-1.473988e+01
6.728433e+01	-1.478862e+01
6.767297e+01	-1.483712e+01
6.806384e+01	-1.488531e+01
6.845698e+01	-1.493288e+01
6.885238e+01	-1.498257e+01
6.925007e+01	-1.503016e+01
6.965005e+01	-1.507925e+01
7.005235e+01	-1.512676e+01
7.045697e+01	-1.517670e+01
7.086393e+01	-1.522389e+01
7.127323e+01	-1.527278e+01
7.168490e+01	-1.532086e+01
7.209895e+01	-1.537065e+01
7.251539e+01	-1.541834e+01
7.293424e+01	-1.546751e+01
7.335551e+01	-1.551575e+01
7.377920e+01	-1.556466e+01
7.420535e+01	-1.561482e+01
7.463396e+01	-1.566126e+01
7.506504e+01	-1.571030e+01
7.549861e+01	-1.575890e+01
7.593469e+01	-1.580833e+01
7.637328e+01	-1.585562e+01
7.681441e+01	-1.590630e+01
7.725809e+01	-1.595444e+01
7.770433e+01	-1.600309e+01
7.815315e+01	-1.605185e+01
7.860456e+01	-1.610210e+01
7.905857e+01	-1.614996e+01
7.951521e+01	-1.619898e+01
7.997449e+01	-1.624723e+01
8.043642e+01	-1.629586e+01
8.090102e+01	-1.634611e+01
8.136830e+01	-1.639399e+01
8.183828e+01	-1.644229e+01
8.231097e+01	-1.648995e+01
8.278640e+01	-1.653994e+01
8.326457e+01	-1.658954e+01
8.374550e+01	-1.663802e+01
8.422921e+01	-1.668732e+01
8.471572e+01	-1.673680e+01
8.520503e+01	-1.678451e+01
8.569717e+01	-1.683449e+01
8.619215e+01	-1.688364e+01
8.669000e+01	-1.693221e+01
8.719071e+01	-1.698110e+01
8.769432e+01	-1.702958e+01
8.820084e+01	-1.707866e+01
8.871029e+01	-1.712757e+01
8.922267e+01	-1.717710e+01
8.973802e+01	-1.722659e+01
9.025634e+01	-1.727472e+01
9.077766e+01	-1.732403e+01
9.130199e+01	-1.737330e+01
9.182935e+01	-1.742282e+01
9.235975e+01	-1.747077e+01
9.289321e+01	-1.752214e+01
9.342976e+01	-1.757136e+01
9.396941e+01	-1.761925e+01
9.451217e+01	-1.766950e+01
9.505807e+01	-1.771749e+01
9.560712e+01	-1.776637e+01
9.615934e+01	-1.781580e+01
9.671476e+01	-1.786567e+01
9.727338e+01	-1.791543e+01
9.783522e+01	-1.796371e+01
9.840032e+01	-1.801260e+01
9.896867e+01	-1.806157e+01
9.954031e+01	-1.811171e+01
1.001153e+02	-1.816106e+01
1.006935e+02	-1.820946e+01
1.012751e+02	-1.825964e+01
1.018601e+02	-1.830896e+01
1.024484e+02	-1.835718e+01
1.030402e+02	-1.840676e+01
1.036353e+02	-1.845730e+01
1.042339e+02	-1.850656e+01
1.048360e+02	-1.855486e+01
1.054415e+02	-1.860420e+01
1.060505e+02	-1.865344e+01
1.066631e+02	-1.870414e+01
1.072791e+02	-1.875309e+01
1.078988e+02	-1.880213e+01
1.085220e+02	-1.885078e+01
1.091488e+02	-1.889967e+01
1.097793e+02	-1.894851e+01
1.104133e+02	-1.899993e+01
1.110511e+02	-1.905006e+01
1.116925e+02	-1.909915e+01
1.123376e+02	-1.914720e+01
1.129865e+02	-1.919795e+01
1.136391e+02	-1.924797e+01
1.142955e+02	-1.929667e+01
1.149556e+02	-1.934553e+01
1.156196e+02	-1.939563e+01
1.162874e+02	-1.944586e+01
1.169591e+02	-1.949345e+01
1.176347e+02	-1.954438e+01
1.183141e+02	-1.959197e+01
1.189975e+02	-1.964165e+01
1.196848e+02	-1.969174e+01
1.203761e+02	-1.974170e+01
1.210714e+02	-1.979097e+01
1.217707e+02	-1.984064e+01
1.224740e+02	-1.989039e+01
1.231814e+02	-1.993957e+01
1.238929e+02	-1.998918e+01
1.246085e+02	-2.003918e+01
1.253283e+02	-2.008774e+01
1.260522e+02	-2.013905e+01
1.267802e+02	-2.018823e+01
1.275125e+02	-2.023476e+01
1.282490e+02	-2.028761e+01
1.289898e+02	-2.033568e+01
1.297348e+02	-2.038591e+01
1.304842e+02	-2.043399e+01
1.312378e+02	-2.048515e+01
1.319959e+02	-2.053482e+01
1.327583e+02	-2.058408e+01
1.335251e+02	-2.063257e+01
1.342963e+02	-2.068262e+01
1.350720e+02	-2.073022e+01
1.358522e+02	-2.078327e+01
1.366368e+02	-2.083074e+01
1.374260e+02	-2.088336e+01
1.382198e+02	-2.093179e+01
1.390182e+02	-2.098010e+01
1.398211e+02	-2.103175e+01
1.406287e+02	-2.108069e+01
1.414410e+02	-2.113027e+01
1.422579e+02	-2.117818e+01
1.430796e+02	-2.122857e+01
1.439060e+02	-2.127910e+01
1.447372e+02	-2.132873e+01
1.455732e+02	-2.137879e+01
1.464141e+02	-2.142811e+01
1.472597e+02	-2.147711e+01
1.481103e+02	-2.152766e+01
1.489658e+02	-2.157812e+01
1.498262e+02	-2.162676e+01
1.506916e+02	-2.167616e+01
1.515620e+02	-2.172557e+01
1.524374e+02	-2.177525e+01
1.533179e+02	-2.182429e+01
1.542034e+02	-2.187487e+01
1.550941e+02	-2.192525e+01
1.559899e+02	-2.197562e+01
1.568909e+02	-2.202560e+01
1.577971e+02	-2.207233e+01
1.587085e+02	-2.212334e+01
1.596252e+02	-2.217329e+01
1.605472e+02	-2.222359e+01
1.614745e+02	-2.227258e+01
1.624072e+02	-2.232118e+01
1.633453e+02	-2.237188e+01
1.642887e+02	-2.242447e+01
1.652377e+02	-2.246917e+01
1.661921e+02	-2.252217e+01
1.671520e+02	-2.257044e+01
1.681175e+02	-2.262362e+01
1.690885e+02	-2.267215e+01
1.700651e+02	-2.272050e+01
1.710474e+02	-2.277075e+01
1.720354e+02	-2.281799e+01
1.730291e+02	-2.286959e+01
1.740285e+02	-2.291927e+01
1.750337e+02	-2.296824e+01
1.760446e+02	-2.302025e+01
1.770615e+02	-2.307011e+01
1.780842e+02	-2.311901e+01
1.791128e+02	-2.316884e+01
1.801473e+02	-2.321855e+01
1.811878e+02	-2.326989e+01
1.822344e+02	-2.331869e+01
1.832870e+02	-2.336871e+01
1.843456e+02	-2.341684e+01
1.854104e+02	-2.346567e+01
1.864813e+02	-2.351887e+01
1.875584e+02	-2.356718e+01
1.886418e+02	-2.361774e+01
1.897313e+02	-2.366567e+01
1.908272e+02	-2.371603e+01
1.919294e+02	-2.376788e+01
1.930380e+02	-2.381853e+01
1.941530e+02	-2.386610e+01
1.952744e+02	-2.391655e+01
1.964023e+02	-2.396665e+01
1.975367e+02	-2.401767e+01
1.986777e+02	-2.406575e+01
1.998252e+02	-2.411599e+01
2.009794e+02	-2.416668e+01
2.021403e+02	-2.421814e+01
2.033078e+02	-2.426535e+01
2.044821e+02	-2.431556e+01
2.056632e+02	-2.436549e+01
2.068511e+02	-2.441402e+01
2.080459e+02	-2.446419e+01
2.092475e+02	-2.451497e+01
2.104561e+02	-2.456501e+01
2.116717e+02	-2.461828e+01
2.128943e+02	-2.466523e+01
2.141240e+02	-2.471509e+01
2.153608e+02	-2.476532e+01
2.166047e+02	-2.481556e+01
2.178558e+02	-2.486520e+01
2.191141e+02	-2.491444e+01
2.203797e+02	-2.496500e+01
2.216526e+02	-2.501328e+01
2.229329e+02	-2.506268e+01
2.242205e+02	-2.511618e+01
2.255156e+02	-2.516151e+01
2.268182e+02	-2.521492e+01
2.281283e+02	-2.526446e+01
2.294459e+02	-2.531355e+01
2.307712e+02	-2.536332e+01
2.321041e+02	-2.541296e+01
2.334447e+02	-2.546203e+01
2.347931e+02	-2.551310e+01
2.361493e+02	-2.556222e+01
2.375133e+02	-2.561189e+01
2.388851e+02	-2.566012e+01
2.402649e+02	-2.571249e+01
2.416527e+02	-2.576336e+01
2.430484e+02	-2.581186e+01
2.444523e+02	-2.586027e+01
2.458642e+02	-2.591257e+01
2.472843e+02	-2.596112e+01
2.487126e+02	-2.601025e+01
2.501492e+02	-2.606156e+01
2.515940e+02	-2.611313e+01
2.530472e+02	-2.616499e+01
2.545088e+02	-2.621210e+01
2.559789e+02	-2.626094e+01
2.574574e+02	-2.630962e+01
2.589444e+02	-2.636346e+01
2.604401e+02	-2.641329e+01
2.619444e+02	-2.646281e+01
2.634574e+02	-2.651293e+01
2.649791e+02	-2.656240e+01
2.665096e+02	-2.661295e+01
2.680489e+02	-2.666141e+01
2.695972e+02	-2.671112e+01
2.711544e+02	-2.676233e+01
2.727205e+02	-2.681154e+01
2.742958e+02	-2.686134e+01
2.758801e+02	-2.691003e+01
2.774736e+02	-2.696456e+01
2.790762e+02	-2.701042e+01
2.806882e+02	-2.706344e+01
2.823094e+02	-2.711407e+01
2.839400e+02	-2.716182e+01
2.855800e+02	-2.721401e+01
2.872295e+02	-2.726335e+01
2.888886e+02	-2.731372e+01
2.905572e+02	-2.735884e+01
2.922354e+02	-2.741352e+01
2.939234e+02	-2.746138e+01
2.956211e+02	-2.751383e+01
2.973286e+02	-2.755925e+01
2.990459e+02	-2.761582e+01
3.007732e+02	-2.766424e+01
3.025104e+02	-2.771129e+01
3.042577e+02	-2.775974e+01
3.060151e+02	-2.781134e+01
3.077826e+02	-2.786530e+01
3.095604e+02	-2.790998e+01
3.113484e+02	-2.796573e+01
3.131467e+02	-2.801285e+01
3.149554e+02	-2.805645e+01
3.167746e+02	-2.811281e+01
3.186043e+02	-2.816413e+01
3.204445e+02	-2.821157e+01
3.222954e+02	-2.826195e+01
3.241570e+02	-2.831039e+01
3.260293e+02	-2.836337e+01
3.279124e+02	-2.841361e+01
3.298064e+02	-2.846220e+01
3.317114e+02	-2.851104e+01
3.336273e+02	-2.856508e+01
3.355544e+02	-2.860802e+01
3.374925e+02	-2.866280e+01
3.394418e+02	-2.871317e+01
3.414024e+02	-2.876576e+01
3.433744e+02	-2.881080e+01
3.453577e+02	-2.885895e+01
3.473525e+02	-2.891422e+01
3.493588e+02	-2.896020e+01
3.513766e+02	-2.901651e+01
3.534062e+02	-2.906579e+01
3.554474e+02	-2.911335e+01
3.575005e+02	-2.916701e+01
3.595654e+02	-2.921468e+01
3.616422e+02	-2.926125e+01
3.637311e+02	-2.931473e+01
3.658320e+02	-2.936118e+01
3.679450e+02	-2.941491e+01
3.700702e+02	-2.946356e+01
3.722077e+02	-2.951586e+01
3.743576e+02	-2.956360e+01
3.765199e+02	-2.961799e+01
3.786946e+02	-2.966556e+01
3.808820e+02	-2.971460e+01
3.830819e+02	-2.976888e+01
3.852946e+02	-2.981341e+01
3.875200e+02	-2.986123e+01
3.897583e+02	-2.991521e+01
3.920096e+02	-2.996465e+01
3.942738e+02	-3.001489e+01
3.965511e+02	-3.006279e+01
3.988416e+02	-3.011721e+01
4.011452e+02	-3.016581e+01
4.034622e+02	-3.021692e+01
4.057926e+02	-3.026558e+01
4.081365e+02	-3.031499e+01
4.104938e+02	-3.036707e+01
4.128648e+02	-3.041777e+01
4.152495e+02	-3.046888e+01
4.176480e+02	-3.051284e+01
4.200603e+02	-3.056723e+01
4.224866e+02	-3.061864e+01
4.249268e+02	-3.066729e+01
4.273812e+02	-3.071307e+01
4.298497e+02	-3.076463e+01
4.323325e+02	-3.081589e+01
4.348297e+02	-3.086573e+01
4.373412e+02	-3.091314e+01
4.398673e+02	-3.097047e+01
4.424079e+02	-3.101540e+01
4.449633e+02	-3.106439e+01
4.475334e+02	-3.111965e+01
4.501183e+02	-3.116673e+01
4.527182e+02	-3.121554e+01
4.553330e+02	-3.126834e+01
4.579630e+02	-3.131735e+01
4.606082e+02	-3.136032e+01
4.632687e+02	-3.142355e+01
4.659445e+02	-3.146745e+01
4.686358e+02	-3.152025e+01
4.713426e+02	-3.157082e+01
4.740650e+02	-3.161579e+01
4.768032e+02	-3.166892e+01
4.795572e+02	-3.171863e+01
4.823271e+02	-3.177151e+01
4.851130e+02	-3.181627e+01
4.879150e+02	-3.186541e+01
4.907332e+02	-3.192190e+01
4.935676e+02	-3.196361e+01
4.964185e+02	-3.201818e+01
4.992858e+02	-3.207507e+01
5.021696e+02	-3.211836e+01
5.050701e+02	-3.217412e+01
5.079874e+02	-3.222172e+01
5.109215e+02	-3.227442e+01
5.138726e+02	-3.232740e+01
5.168407e+02	-3.237267e+01
5.198259e+02	-3.242231e+01
5.228284e+02	-3.246681e+01
5.258482e+02	-3.252330e+01
5.288855e+02	-3.257092e+01
5.319403e+02	-3.261850e+01
5.350128e+02	-3.266854e+01
5.381030e+02	-3.272143e+01
5.412111e+02	-3.276941e+01
5.443371e+02	-3.282566e+01
5.474812e+02	-3.287713e+01
5.506434e+02	-3.291918e+01
5.538239e+02	-3.296906e+01
5.570228e+02	-3.302110e+01
5.602401e+02	-3.307214e+01
5.634760e+02	-3.312862e+01
5.667306e+02	-3.317410e+01
5.700040e+02	-3.322727e+01
5.732964e+02	-3.328294e+01
5.766077e+02	-3.332443e+01
5.799382e+02	-3.337386e+01
5.832879e+02	-3.342163e+01
5.866569e+02	-3.346996e+01
5.900454e+02	-3.352804e+01
5.934535e+02	-3.357713e+01
5.968813e+02	-3.362040e+01
6.003288e+02	-3.367349e+01
6.037963e+02	-3.372630e+01
6.072838e+02	-3.377352e+01
6.107914e+02	-3.382947e+01
6.143194e+02	-3.388048e+01
6.178676e+02	-3.392697e+01
6.214364e+02	-3.397369e+01
6.250258e+02	-3.403201e+01
6.286359e+02	-3.408077e+01
6.322669e+02	-3.412008e+01
6.359189e+02	-3.418005e+01
6.395919e+02	-3.423478e+01
6.432862e+02	-3.428011e+01
6.470017e+02	-3.433526e+01
6.507388e+02	-3.438697e+01
6.544974e+02	-3.443099e+01
6.582778e+02	-3.447989e+01
6.620800e+02	-3.453089e+01
6.659041e+02	-3.458452e+01
6.697504e+02	-3.463021e+01
6.736188e+02	-3.468613e+01
6.775096e+02	-3.473341e+01
6.814229e+02	-3.478843e+01
6.853587e+02	-3.483717e+01
6.893173e+02	-3.488817e+01
6.932988e+02	-3.493229e+01
6.973033e+02	-3.499149e+01
7.013309e+02	-3.504699e+01
