Frequency(Hz)	Magnitude(dB)
1.000000e+01	-2.138474e+00
1.005776e+01	-2.158192e+00
1.011585e+01	-2.177804e+00
1.017428e+01	-2.197718e+00
1.023305e+01	-2.217686e+00
1.029215e+01	-2.237608e+00
1.035160e+01	-2.257753e+00
1.041139e+01	-2.278392e+00
1.047153e+01	-2.298672e+00
1.053201e+01	-2.319284e+00
1.059284e+01	-2.340091e+00
1.065403e+01	-2.361263e+00
1.071556e+01	-2.381996e+00
1.077746e+01	-2.403175e+00
1.083971e+01	-2.424589e+00
1.090232e+01	-2.446103e+00
1.096529e+01	-2.467626e+00
1.102862e+01	-2.489202e+00
1.109232e+01	-2.511064e+00
1.115639e+01	-2.533592e+00
1.122083e+01	-2.555436e+00
1.128564e+01	-2.577963e+00
1.135083e+01	-2.600443e+00
1.141639e+01	-2.622865e+00
1.148233e+01	-2.645840e+00
1.154865e+01	-2.668556e+00
1.161536e+01	-2.691639e+00
1.168245e+01	-2.715006e+00
1.174992e+01	-2.737994e+00
1.181779e+01	-2.761351e+00
1.188605e+01	-2.785339e+00
1.195470e+01	-2.809030e+00
1.202375e+01	-2.832583e+00
1.209320e+01	-2.856737e+00
1.216305e+01	-2.881086e+00
1.223330e+01	-2.905355e+00
1.230396e+01	-2.929875e+00
1.237503e+01	-2.954678e+00
1.244651e+01	-2.979079e+00
1.251840e+01	-3.003990e+00
1.259070e+01	-3.029102e+00
1.266343e+01	-3.054383e+00
1.273657e+01	-3.079764e+00
1.281014e+01	-3.105266e+00
1.288413e+01	-3.130934e+00
1.295855e+01	-3.156898e+00
1.303339e+01	-3.182636e+00
1.310867e+01	-3.208533e+00
1.318439e+01	-3.234785e+00
1.326054e+01	-3.261237e+00
1.333713e+01	-3.287852e+00
1.341417e+01	-3.314393e+00
1.349165e+01	-3.341144e+00
1.356958e+01	-3.367993e+00
1.364795e+01	-3.395123e+00
1.372678e+01	-3.422409e+00
1.380607e+01	-3.449623e+00
1.388581e+01	-3.477151e+00
1.396602e+01	-3.504685e+00
1.404668e+01	-3.532581e+00
1.412782e+01	-3.560542e+00
1.420942e+01	-3.588555e+00
1.429149e+01	-3.616605e+00
1.437404e+01	-3.644995e+00
1.445706e+01	-3.673476e+00
1.454057e+01	-3.701978e+00
1.462455e+01	-3.731110e+00
1.470902e+01	-3.759655e+00
1.479398e+01	-3.789032e+00
1.487943e+01	-3.817991e+00
1.496537e+01	-3.847373e+00
1.505181e+01	-3.876743e+00
1.513875e+01	-3.906414e+00
1.522619e+01	-3.935889e+00
1.531414e+01	-3.966005e+00
1.540259e+01	-3.996096e+00
1.549156e+01	-4.026113e+00
1.558103e+01	-4.056751e+00
1.567103e+01	-4.087097e+00
1.576155e+01	-4.117647e+00
1.585258e+01	-4.148128e+00
1.594415e+01	-4.179131e+00
1.603624e+01	-4.210063e+00
1.612886e+01	-4.241122e+00
1.622202e+01	-4.272540e+00
1.631572e+01	-4.303905e+00
1.640996e+01	-4.335334e+00
1.650474e+01	-4.367102e+00
1.660008e+01	-4.398820e+00
1.669596e+01	-4.430595e+00
1.679239e+01	-4.462791e+00
1.688938e+01	-4.495050e+00
1.698694e+01	-4.527393e+00
1.708505e+01	-4.559603e+00
1.718373e+01	-4.592055e+00
1.728299e+01	-4.625182e+00
1.738281e+01	-4.657509e+00
1.748322e+01	-4.690595e+00
1.758420e+01	-4.723925e+00
1.768576e+01	-4.757193e+00
1.778792e+01	-4.790560e+00
1.789066e+01	-4.824044e+00
1.799399e+01	-4.857899e+00
1.809793e+01	-4.891454e+00
1.820246e+01	-4.925327e+00
1.830760e+01	-4.959196e+00
1.841334e+01	-4.993193e+00
1.851969e+01	-5.027905e+00
1.862666e+01	-5.061920e+00
1.873425e+01	-5.096287e+00
1.884246e+01	-5.131203e+00
1.895129e+01	-5.166045e+00
1.906075e+01	-5.200517e+00
1.917085e+01	-5.235447e+00
1.928158e+01	-5.270856e+00
1.939295e+01	-5.305733e+00
1.950496e+01	-5.341340e+00
1.961762e+01	-5.376608e+00
1.973093e+01	-5.412637e+00
1.984490e+01	-5.448359e+00
1.995952e+01	-5.483800e+00
2.007480e+01	-5.519756e+00
2.019076e+01	-5.555679e+00
2.030738e+01	-5.592050e+00
2.042467e+01	-5.628454e+00
2.054264e+01	-5.664827e+00
2.066130e+01	-5.700999e+00
2.078064e+01	-5.737766e+00
2.090066e+01	-5.774516e+00
2.102139e+01	-5.811611e+00
2.114280e+01	-5.848275e+00
2.126492e+01	-5.885957e+00
2.138775e+01	-5.922569e+00
2.151128e+01	-5.960202e+00
2.163553e+01	-5.997285e+00
2.176050e+01	-6.034675e+00
2.188619e+01	-6.072347e+00
2.201260e+01	-6.109993e+00
2.213974e+01	-6.148256e+00
2.226762e+01	-6.185853e+00
2.239624e+01	-6.223538e+00
2.252560e+01	-6.262127e+00
2.265571e+01	-6.300489e+00
2.278656e+01	-6.338619e+00
2.291818e+01	-6.377239e+00
2.305055e+01	-6.415759e+00
2.318369e+01	-6.454288e+00
2.331760e+01	-6.493080e+00
2.345228e+01	-6.532216e+00
2.358774e+01	-6.571051e+00
2.372398e+01	-6.610074e+00
2.386101e+01	-6.649168e+00
2.399883e+01	-6.688298e+00
2.413745e+01	-6.728004e+00
2.427686e+01	-6.766855e+00
2.441709e+01	-6.806839e+00
2.455812e+01	-6.845935e+00
2.469997e+01	-6.886103e+00
2.484263e+01	-6.926221e+00
2.498612e+01	-6.965645e+00
2.513044e+01	-7.005978e+00
2.527559e+01	-7.045640e+00
2.542158e+01	-7.086649e+00
2.556842e+01	-7.126108e+00
2.571610e+01	-7.166746e+00
2.586463e+01	-7.207482e+00
2.601403e+01	-7.247858e+00
2.616428e+01	-7.288724e+00
2.631541e+01	-7.329132e+00
2.646740e+01	-7.369852e+00
2.662028e+01	-7.410782e+00
2.677404e+01	-7.452140e+00
2.692868e+01	-7.492757e+00
2.708422e+01	-7.534370e+00
2.724066e+01	-7.575399e+00
2.739800e+01	-7.616958e+00
2.755625e+01	-7.658216e+00
2.771541e+01	-7.699816e+00
2.787550e+01	-7.741107e+00
2.803650e+01	-7.783070e+00
2.819844e+01	-7.824314e+00
2.836131e+01	-7.866353e+00
2.852513e+01	-7.908050e+00
2.868989e+01	-7.950117e+00
2.885560e+01	-7.992511e+00
2.902227e+01	-8.034563e+00
2.918990e+01	-8.076672e+00
2.935850e+01	-8.119285e+00
2.952807e+01	-8.160970e+00
2.969863e+01	-8.203532e+00
2.987016e+01	-8.246218e+00
3.004269e+01	-8.288496e+00
3.021622e+01	-8.331564e+00
3.039075e+01	-8.374163e+00
3.056628e+01	-8.417026e+00
3.074283e+01	-8.459333e+00
3.092040e+01	-8.502623e+00
3.109900e+01	-8.545777e+00
3.127862e+01	-8.588590e+00
3.145929e+01	-8.632106e+00
3.164099e+01	-8.675157e+00
3.182375e+01	-8.718262e+00
3.200756e+01	-8.761857e+00
3.219244e+01	-8.805150e+00
3.237838e+01	-8.848255e+00
3.256540e+01	-8.892186e+00
3.275349e+01	-8.935687e+00
3.294268e+01	-8.979346e+00
3.313295e+01	-9.023545e+00
3.332433e+01	-9.067136e+00
3.351681e+01	-9.110501e+00
3.371040e+01	-9.154362e+00
3.390511e+01	-9.198879e+00
3.410094e+01	-9.242503e+00
3.429791e+01	-9.286700e+00
3.449601e+01	-9.330657e+00
3.469526e+01	-9.375223e+00
3.489566e+01	-9.419333e+00
3.509721e+01	-9.463468e+00
3.529993e+01	-9.508127e+00
3.550382e+01	-9.552484e+00
3.570889e+01	-9.597093e+00
3.591515e+01	-9.641935e+00
3.612259e+01	-9.686059e+00
3.633123e+01	-9.731245e+00
3.654108e+01	-9.775551e+00
3.675214e+01	-9.820623e+00
3.696442e+01	-9.865593e+00
3.717792e+01	-9.910010e+00
3.739266e+01	-9.955105e+00
3.760864e+01	-1.000003e+01
3.782587e+01	-1.004567e+01
3.804435e+01	-1.009035e+01
3.826409e+01	-1.013518e+01
3.848510e+01	-1.018083e+01
3.870739e+01	-1.022601e+01
3.893096e+01	-1.027094e+01
3.915583e+01	-1.031660e+01
3.938199e+01	-1.036185e+01
3.960946e+01	-1.040732e+01
3.983824e+01	-1.045264e+01
4.006834e+01	-1.049806e+01
4.029978e+01	-1.054379e+01
4.053255e+01	-1.058997e+01
4.076666e+01	-1.063533e+01
4.100213e+01	-1.068104e+01
4.123896e+01	-1.072650e+01
4.147715e+01	-1.077298e+01
4.171672e+01	-1.081882e+01
4.195767e+01	-1.086438e+01
4.220002e+01	-1.091122e+01
4.244377e+01	-1.095648e+01
4.268892e+01	-1.100275e+01
4.293549e+01	-1.104848e+01
4.318348e+01	-1.109521e+01
4.343291e+01	-1.114147e+01
4.368377e+01	-1.118721e+01
4.393609e+01	-1.123287e+01
4.418986e+01	-1.127932e+01
4.444510e+01	-1.132545e+01
4.470182e+01	-1.137208e+01
4.496001e+01	-1.141907e+01
4.521970e+01	-1.146465e+01
4.548089e+01	-1.151122e+01
4.574358e+01	-1.155807e+01
4.600779e+01	-1.160473e+01
4.627353e+01	-1.165163e+01
4.654081e+01	-1.169803e+01
4.680963e+01	-1.174522e+01
4.708000e+01	-1.179115e+01
4.735193e+01	-1.183788e+01
4.762543e+01	-1.188471e+01
4.790051e+01	-1.193176e+01
4.817719e+01	-1.197875e+01
4.845545e+01	-1.202545e+01
4.873533e+01	-1.207193e+01
4.901682e+01	-1.211914e+01
4.929994e+01	-1.216592e+01
4.958470e+01	-1.221388e+01
4.987110e+01	-1.225975e+01
5.015915e+01	-1.230721e+01
5.044887e+01	-1.235421e+01
5.074026e+01	-1.240130e+01
5.103333e+01	-1.244822e+01
5.132810e+01	-1.249621e+01
5.162457e+01	-1.254282e+01
5.192275e+01	-1.258989e+01
5.222265e+01	-1.263732e+01
5.252429e+01	-1.268366e+01
5.282767e+01	-1.273217e+01
5.313280e+01	-1.277991e+01
5.343969e+01	-1.282693e+01
5.374836e+01	-1.287494e+01
5.405880e+01	-1.292243e+01
5.437105e+01	-1.296856e+01
5.468509e+01	-1.301744e+01
5.500095e+01	-1.306491e+01
5.531863e+01	-1.311183e+01
5.563815e+01	-1.315985e+01
5.595951e+01	-1.320757e+01
5.628273e+01	-1.325427e+01
5.660782e+01	-1.330135e+01
5.693479e+01	-1.334967e+01
5.726364e+01	-1.339822e+01
5.759439e+01	-1.344580e+01
5.792705e+01	-1.349321e+01
5.826164e+01	-1.354084e+01
5.859815e+01	-1.358910e+01
5.893662e+01	-1.363722e+01
5.927703e+01	-1.368478e+01
5.961941e+01	-1.373276e+01
5.996377e+01	-1.378149e+01
6.031012e+01	-1.382809e+01
6.065847e+01	-1.387717e+01
6.100883e+01	-1.392459e+01
6.136121e+01	-1.397183e+01
6.171563e+01	-1.402042e+01
6.207210e+01	-1.406821e+01
6.243063e+01	-1.411706e+01
6.279122e+01	-1.416513e+01
6.315390e+01	-1.421319e+01
6.351868e+01	-1.426101e+01
6.388556e+01	-1.430975e+01
6.425456e+01	-1.435723e+01
6.462569e+01	-1.440558e+01
6.499897e+01	-1.445365e+01
6.537440e+01	-1.450184e+01
6.575200e+01	-1.454969e+01
6.613178e+01	-1.459847e+01
6.651375e+01	-1.464677e+01
6.689793e+01	-1.469633e+01
6.728433e+01	-1.474357e+01
6.767297e+01	-1.479191e+01
6.806384e+01	-1.484112e+01
6.845698e+01	-1.488794e+01
6.885238e+01	-1.493672e+01
6.925007e+01	-1.498549e+01
6.965005e+01	-1.503447e+01
7.005235e+01	-1.508305e+01
7.045697e+01	-1.513155e+01
7.086393e+01	-1.517942e+01
7.127323e+01	-1.522756e+01
7.168490e+01	-1.527646e+01
7.209895e+01	-1.532504e+01
7.251539e+01	-1.537442e+01
7.293424e+01	-1.542103e+01
7.335551e+01	-1.547032e+01
7.377920e+01	-1.551877e+01
7.420535e+01	-1.556768e+01
7.463396e+01	-1.561759e+01
7.506504e+01	-1.566578e+01
7.549861e+01	-1.571352e+01
7.593469e+01	-1.576218e+01
7.637328e+01	-1.581138e+01
7.681441e+01	-1.585957e+01
7.725809e+01	-1.591051e+01
7.770433e+01	-1.595810e+01
7.815315e+01	-1.600614e+01
7.860456e+01	-1.605526e+01
7.905857e+01	-1.610450e+01
7.951521e+01	-1.615268e+01
7.997449e+01	-1.620175e+01
8.043642e+01	-1.625035e+01
8.090102e+01	-1.629867e+01
8.136830e+01	-1.634874e+01
8.183828e+01	-1.639685e+01
8.231097e+01	-1.644548e+01
8.278640e+01	-1.649514e+01
8.326457e+01	-1.654382e+01
8.374550e+01	-1.659208e+01
8.422921e+01	-1.664123e+01
8.471572e+01	-1.669004e+01
8.520503e+01	-1.673921e+01
8.569717e+01	-1.678848e+01
8.619215e+01	-1.683739e+01
8.669000e+01	-1.688613e+01
8.719071e+01	-1.693605e+01
8.769432e+01	-1.698442e+01
8.820084e+01	-1.703324e+01
8.871029e+01	-1.708294e+01
8.922267e+01	-1.713249e+01
8.973802e+01	-1.717929e+01
9.025634e+01	-1.722964e+01
9.077766e+01	-1.727834e+01
9.130199e+01	-1.732720e+01
9.182935e+01	-1.737619e+01
9.235975e+01	-1.742703e+01
9.289321e+01	-1.747410e+01
9.342976e+01	-1.752464e+01
9.396941e+01	-1.757319e+01
9.451217e+01	-1.762290e+01
9.505807e+01	-1.767209e+01
9.560712e+01	-1.772156e+01
9.615934e+01	-1.777113e+01
9.671476e+01	-1.781888e+01
9.727338e+01	-1.786880e+01
9.783522e+01	-1.791681e+01
9.840032e+01	-1.796666e+01
9.896867e+01	-1.801493e+01
9.954031e+01	-1.806670e+01
1.001153e+02	-1.811530e+01
1.006935e+02	-1.816488e+01
1.012751e+02	-1.821296e+01
1.018601e+02	-1.826339e+01
1.024484e+02	-1.831246e+01
1.030402e+02	-1.836100e+01
1.036353e+02	-1.841029e+01
1.042339e+02	-1.846034e+01
1.048360e+02	-1.851106e+01
1.054415e+02	-1.855926e+01
1.060505e+02	-1.860883e+01
1.066631e+02	-1.865716e+01
1.072791e+02	-1.870687e+01
1.078988e+02	-1.875523e+01
1.085220e+02	-1.880529e+01
1.091488e+02	-1.885411e+01
1.097793e+02	-1.890302e+01
1.104133e+02	-1.895386e+01
1.110511e+02	-1.900174e+01
1.116925e+02	-1.905270e+01
1.123376e+02	-1.910133e+01
1.129865e+02	-1.915046e+01
1.136391e+02	-1.919982e+01
1.142955e+02	-1.925045e+01
1.149556e+02	-1.930103e+01
1.156196e+02	-1.934933e+01
1.162874e+02	-1.939857e+01
1.169591e+02	-1.944938e+01
1.176347e+02	-1.949805e+01
1.183141e+02	-1.954909e+01
1.189975e+02	-1.959642e+01
1.196848e+02	-1.964511e+01
1.203761e+02	-1.969627e+01
1.210714e+02	-1.974517e+01
1.217707e+02	-1.979463e+01
1.224740e+02	-1.984267e+01
1.231814e+02	-1.989314e+01
1.238929e+02	-1.994224e+01
1.246085e+02	-1.999178e+01
1.253283e+02	-2.004290e+01
1.260522e+02	-2.009099e+01
1.267802e+02	-2.014140e+01
1.275125e+02	-2.019292e+01
1.282490e+02	-2.024166e+01
1.289898e+02	-2.028934e+01
1.297348e+02	-2.033808e+01
1.304842e+02	-2.038811e+01
1.312378e+02	-2.043753e+01
1.319959e+02	-2.048790e+01
1.327583e+02	-2.053780e+01
1.335251e+02	-2.058706e+01
1.342963e+02	-2.063758e+01
1.350720e+02	-2.068611e+01
1.358522e+02	-2.073647e+01
1.366368e+02	-2.078492e+01
1.374260e+02	-2.083469e+01
1.382198e+02	-2.088596e+01
1.390182e+02	-2.093311e+01
1.398211e+02	-2.098513e+01
1.406287e+02	-2.103565e+01
1.414410e+02	-2.108536e+01
1.422579e+02	-2.113378e+01
1.430796e+02	-2.118227e+01
1.439060e+02	-2.123308e+01
1.447372e+02	-2.128213e+01
1.455732e+02	-2.132989e+01
1.464141e+02	-2.138078e+01
1.472597e+02	-2.143094e+01
1.481103e+02	-2.147964e+01
1.489658e+02	-2.153002e+01
1.498262e+02	-2.158107e+01
1.506916e+02	-2.163016e+01
1.515620e+02	-2.168016e+01
1.524374e+02	-2.173065e+01
1.533179e+02	-2.177963e+01
1.542034e+02	-2.182820e+01
1.550941e+02	-2.187818e+01
1.559899e+02	-2.192833e+01
1.568909e+02	-2.197807e+01
1.577971e+02	-2.202847e+01
1.587085e+02	-2.207682e+01
1.596252e+02	-2.212564e+01
1.605472e+02	-2.217574e+01
1.614745e+02	-2.222767e+01
1.624072e+02	-2.227645e+01
1.633453e+02	-2.232629e+01
1.642887e+02	-2.237471e+01
1.652377e+02	-2.242501e+01
1.661921e+02	-2.247727e+01
1.671520e+02	-2.252788e+01
1.681175e+02	-2.257516e+01
1.690885e+02	-2.262566e+01
1.700651e+02	-2.267515e+01
1.710474e+02	-2.272267e+01
1.720354e+02	-2.277518e+01
1.730291e+02	-2.282449e+01
1.740285e+02	-2.287636e+01
1.750337e+02	-2.292336e+01
1.760446e+02	-2.297546e+01
1.770615e+02	-2.302334e+01
1.780842e+02	-2.307144e+01
1.791128e+02	-2.312224e+01
1.801473e+02	-2.317020e+01
1.811878e+02	-2.322132e+01
1.822344e+02	-2.327217e+01
1.832870e+02	-2.332314e+01
1.843456e+02	-2.337200e+01
1.854104e+02	-2.342092e+01
1.864813e+02	-2.347023e+01
1.875584e+02	-2.352328e+01
1.886418e+02	-2.357007e+01
1.897313e+02	-2.361993e+01
1.908272e+02	-2.367019e+01
1.919294e+02	-2.372153e+01
1.930380e+02	-2.376851e+01
1.941530e+02	-2.381781e+01
1.952744e+02	-2.386931e+01
1.964023e+02	-2.391795e+01
1.975367e+02	-2.397194e+01
1.986777e+02	-2.401800e+01
1.998252e+02	-2.407033e+01
2.009794e+02	-2.411890e+01
2.021403e+02	-2.416881e+01
2.033078e+02	-2.421869e+01
2.044821e+02	-2.426733e+01
2.056632e+02	-2.431929e+01
2.068511e+02	-2.437298e+01
2.080459e+02	-2.441906e+01
2.092475e+02	-2.446884e+01
2.104561e+02	-2.451920e+01
2.116717e+02	-2.456911e+01
2.128943e+02	-2.461706e+01
2.141240e+02	-2.466831e+01
2.153608e+02	-2.471809e+01
2.166047e+02	-2.476779e+01
2.178558e+02	-2.481808e+01
2.191141e+02	-2.486916e+01
2.203797e+02	-2.491798e+01
2.216526e+02	-2.496725e+01
2.229329e+02	-2.501908e+01
2.242205e+02	-2.506653e+01
2.255156e+02	-2.511758e+01
2.268182e+02	-2.516927e+01
2.281283e+02	-2.521670e+01
2.294459e+02	-2.526576e+01
2.307712e+02	-2.531665e+01
2.321041e+02	-2.536572e+01
2.334447e+02	-2.542001e+01
2.347931e+02	-2.546385e+01
2.361493e+02	-2.551509e+01
2.375133e+02	-2.556463e+01
2.388851e+02	-2.561430e+01
2.402649e+02	-2.566451e+01
2.416527e+02	-2.571389e+01
2.430484e+02	-2.576662e+01
2.444523e+02	-2.581583e+01
2.458642e+02	-2.586526e+01
2.472843e+02	-2.591549e+01
2.487126e+02	-2.596747e+01
2.501492e+02	-2.601855e+01
2.515940e+02	-2.606629e+01
2.530472e+02	-2.611140e+01
2.545088e+02	-2.616993e+01
2.559789e+02	-2.621264e+01
2.574574e+02	-2.626576e+01
2.589444e+02	-2.631188e+01
2.604401e+02	-2.636633e+01
2.619444e+02	-2.641442e+01
2.634574e+02	-2.646481e+01
2.649791e+02	-2.651412e+01
2.665096e+02	-2.656485e+01
2.680489e+02	-2.661656e+01
2.695972e+02	-2.666650e+01
2.711544e+02	-2.671566e+01
2.727205e+02	-2.676274e+01
2.742958e+02	-2.681352e+01
2.758801e+02	-2.686674e+01
2.774736e+02	-2.691529e+01
2.790762e+02	-2.696512e+01
2.806882e+02	-2.701281e+01
2.823094e+02	-2.706546e+01
2.839400e+02	-2.711413e+01
2.855800e+02	-2.716484e+01
2.872295e+02	-2.721621e+01
2.888886e+02	-2.726488e+01
2.905572e+02	-2.731155e+01
2.922354e+02	-2.736478e+01
2.939234e+02	-2.741085e+01
2.956211e+02	-2.746349e+01
2.973286e+02	-2.751570e+01
2.990459e+02	-2.756243e+01
3.007732e+02	-2.761425e+01
3.025104e+02	-2.766345e+01
3.042577e+02	-2.771347e+01
3.060151e+02	-2.776600e+01
3.077826e+02	-2.781482e+01
3.095604e+02	-2.786151e+01
3.113484e+02	-2.791869e+01
3.131467e+02	-2.796629e+01
3.149554e+02	-2.801572e+01
3.167746e+02	-2.807081e+01
3.186043e+02	-2.811418e+01
3.204445e+02	-2.816676e+01
3.222954e+02	-2.821448e+01
3.241570e+02	-2.826641e+01
3.260293e+02	-2.831707e+01
3.279124e+02	-2.836526e+01
3.298064e+02	-2.841764e+01
3.317114e+02	-2.846810e+01
3.336273e+02	-2.851521e+01
3.355544e+02	-2.857063e+01
3.374925e+02	-2.861181e+01
3.394418e+02	-2.866703e+01
3.414024e+02	-2.871349e+01
3.433744e+02	-2.876854e+01
3.453577e+02	-2.882010e+01
3.473525e+02	-2.886508e+01
3.493588e+02	-2.891784e+01
3.513766e+02	-2.896631e+01
3.534062e+02	-2.901583e+01
3.554474e+02	-2.906694e+01
3.575005e+02	-2.911828e+01
3.595654e+02	-2.916721e+01
3.616422e+02	-2.921249e+01
3.637311e+02	-2.926565e+01
3.658320e+02	-2.931450e+01
3.679450e+02	-2.936493e+01
3.700702e+02	-2.942011e+01
3.722077e+02	-2.947029e+01
3.743576e+02	-2.951304e+01
3.765199e+02	-2.956030e+01
3.786946e+02	-2.961716e+01
3.808820e+02	-2.967069e+01
3.830819e+02	-2.971784e+01
3.852946e+02	-2.976848e+01
3.875200e+02	-2.982150e+01
3.897583e+02	-2.986807e+01
3.920096e+02	-2.991556e+01
3.942738e+02	-2.996863e+01
3.965511e+02	-3.002076e+01
3.988416e+02	-3.006365e+01
4.011452e+02	-3.011560e+01
4.034622e+02	-3.016346e+01
4.057926e+02	-3.022173e+01
4.081365e+02	-3.026817e+01
4.104938e+02	-3.031832e+01
4.128648e+02	-3.036625e+01
4.152495e+02	-3.041331e+01
4.176480e+02	-3.046778e+01
4.200603e+02	-3.051799e+01
4.224866e+02	-3.056565e+01
4.249268e+02	-3.061780e+01
4.273812e+02	-3.067090e+01
4.298497e+02	-3.071491e+01
4.323325e+02	-3.076750e+01
4.348297e+02	-3.082061e+01
4.373412e+02	-3.087125e+01
4.398673e+02	-3.092002e+01
4.424079e+02	-3.097033e+01
4.449633e+02	-3.102149e+01
4.475334e+02	-3.106919e+01
4.501183e+02	-3.111956e+01
4.527182e+02	-3.117261e+01
4.553330e+02	-3.122232e+01
4.579630e+02	-3.127421e+01
4.606082e+02	-3.131408e+01
4.632687e+02	-3.137040e+01
4.659445e+02	-3.141932e+01
4.686358e+02	-3.147563e+01
4.713426e+02	-3.152393e+01
4.740650e+02	-3.156838e+01
4.768032e+02	-3.162395e+01
4.795572e+02	-3.167411e+01
4.823271e+02	-3.172052e+01
4.851130e+02	-3.177675e+01
4.879150e+02	-3.182732e+01
4.907332e+02	-3.186923e+01
4.935676e+02	-3.192261e+01
4.964185e+02	-3.198003e+01
4.992858e+02	-3.202511e+01
5.021696e+02	-3.207340e+01
5.050701e+02	-3.211825e+01
5.079874e+02	-3.217427e+01
5.109215e+02	-3.222222e+01
5.138726e+02	-3.228034e+01
5.168407e+02	-3.232227e+01
5.198259e+02	-3.237706e+01
5.228284e+02	-3.242553e+01
5.258482e+02	-3.248127e+01
5.288855e+02	-3.252793e+01
5.319403e+02	-3.257793e+01
5.350128e+02	-3.262124e+01
5.381030e+02	-3.267643e+01
5.412111e+02	-3.272485e+01
5.443371e+02	-3.278628e+01
5.474812e+02	-3.283303e+01
5.506434e+02	-3.288451e+01
5.538239e+02	-3.292218e+01
5.570228e+02	-3.297313e+01
5.602401e+02	-3.302561e+01
5.634760e+02	-3.307569e+01
5.667306e+02	-3.312810e+01
5.700040e+02	-3.317738e+01
5.732964e+02	-3.323219e+01
5.766077e+02	-3.328462e+01
5.799382e+02	-3.333107e+01
5.832879e+02	-3.338067e+01
5.866569e+02	-3.342995e+01
5.900454e+02	-3.347820e+01
5.934535e+02	-3.353053e+01
5.968813e+02	-3.357569e+01
6.003288e+02	-3.363835e+01
6.037963e+02	-3.368281e+01
6.072838e+02	-3.372929e+01
6.107914e+02	-3.378583e+01
6.143194e+02	-3.383266e+01
6.178676e+02	-3.388297e+01
6.214364e+02	-3.394288e+01
6.250258e+02	-3.398018e+01
6.286359e+02	-3.403872e+01
6.322669e+02	-3.408482e+01
6.359189e+02	-3.413389e+01
6.395919e+02	-3.418704e+01
6.432862e+02	-3.423648e+01
6.470017e+02	-3.428601e+01
6.507388e+02	-3.433597e+01
6.544974e+02	-3.439504e+01
6.582778e+02	-3.443940e+01
6.620800e+02	-3.448671e+01
6.659041e+02	-3.453185e+01
6.697504e+02	-3.459469e+01
6.736188e+02	-3.464417e+01
6.775096e+02	-3.469358e+01
6.814229e+02	-3.473486e+01
6.853587e+02	-3.479998e+01
6.893173e+02	-3.483817e+01
6.932988e+02	-3.489381e+01
6.973033e+02	-3.494585e+01
7.013309e+02	-3.499277e+01
