Frequency(Hz)	Magnitude(dB)
1.000000e+01	-2.308070e+00
1.005776e+01	-2.328836e+00
1.011585e+01	-2.349783e+00
1.017428e+01	-2.370612e+00
1.023305e+01	-2.392116e+00
1.029215e+01	-2.413164e+00
1.035160e+01	-2.434684e+00
1.041139e+01	-2.456052e+00
1.047153e+01	-2.477725e+00
1.053201e+01	-2.499504e+00
1.059284e+01	-2.521398e+00
1.065403e+01	-2.543467e+00
1.071556e+01	-2.565982e+00
1.077746e+01	-2.588110e+00
1.083971e+01	-2.610901e+00
1.090232e+01	-2.633306e+00
1.096529e+01	-2.656337e+00
1.102862e+01	-2.679207e+00
1.109232e+01	-2.702514e+00
1.115639e+01	-2.725570e+00
1.122083e+01	-2.748989e+00
1.128564e+01	-2.772664e+00
1.135083e+01	-2.796283e+00
1.141639e+01	-2.820037e+00
1.148233e+01	-2.844169e+00
1.154865e+01	-2.868018e+00
1.161536e+01	-2.892410e+00
1.168245e+01	-2.916585e+00
1.174992e+01	-2.941239e+00
1.181779e+01	-2.965904e+00
1.188605e+01	-2.990683e+00
1.195470e+01	-3.015608e+00
1.202375e+01	-3.040724e+00
1.209320e+01	-3.066180e+00
1.216305e+01	-3.091650e+00
1.223330e+01	-3.117092e+00
1.230396e+01	-3.142875e+00
1.237503e+01	-3.168427e+00
1.244651e+01	-3.194658e+00
1.251840e+01	-3.220600e+00
1.259070e+01	-3.246845e+00
1.266343e+01	-3.273247e+00
1.273657e+01	-3.299807e+00
1.281014e+01	-3.326621e+00
1.288413e+01	-3.353529e+00
1.295855e+01	-3.380230e+00
1.303339e+01	-3.407737e+00
1.310867e+01	-3.434875e+00
1.318439e+01	-3.462152e+00
1.326054e+01	-3.490034e+00
1.333713e+01	-3.517766e+00
1.341417e+01	-3.545344e+00
1.349165e+01	-3.573330e+00
1.356958e+01	-3.601378e+00
1.364795e+01	-3.629716e+00
1.372678e+01	-3.658308e+00
1.380607e+01	-3.686633e+00
1.388581e+01	-3.715426e+00
1.396602e+01	-3.744170e+00
1.404668e+01	-3.773248e+00
1.412782e+01	-3.802319e+00
1.420942e+01	-3.831534e+00
1.429149e+01	-3.860916e+00
1.437404e+01	-3.890548e+00
1.445706e+01	-3.920237e+00
1.454057e+01	-3.949898e+00
1.462455e+01	-3.980183e+00
1.470902e+01	-4.010003e+00
1.479398e+01	-4.040234e+00
1.487943e+01	-4.070345e+00
1.496537e+01	-4.100856e+00
1.505181e+01	-4.131605e+00
1.513875e+01	-4.162267e+00
1.522619e+01	-4.193182e+00
1.531414e+01	-4.224384e+00
1.540259e+01	-4.255563e+00
1.549156e+01	-4.287177e+00
1.558103e+01	-4.318034e+00
1.567103e+01	-4.349980e+00
1.576155e+01	-4.381702e+00
1.585258e+01	-4.413812e+00
1.594415e+01	-4.445480e+00
1.603624e+01	-4.477615e+00
1.612886e+01	-4.510006e+00
1.622202e+01	-4.542249e+00
1.631572e+01	-4.574680e+00
1.640996e+01	-4.607366e+00
1.650474e+01	-4.639996e+00
1.660008e+01	-4.673012e+00
1.669596e+01	-4.706123e+00
1.679239e+01	-4.739585e+00
1.688938e+01	-4.772738e+00
1.698694e+01	-4.805628e+00
1.708505e+01	-4.839663e+00
1.718373e+01	-4.873202e+00
1.728299e+01	-4.907252e+00
1.738281e+01	-4.940981e+00
1.748322e+01	-4.974997e+00
1.758420e+01	-5.009205e+00
1.768576e+01	-5.043193e+00
1.778792e+01	-5.078003e+00
1.789066e+01	-5.112683e+00
1.799399e+01	-5.147074e+00
1.809793e+01	-5.181732e+00
1.820246e+01	-5.216573e+00
1.830760e+01	-5.251987e+00
1.841334e+01	-5.287213e+00
1.851969e+01	-5.322469e+00
1.862666e+01	-5.357462e+00
1.873425e+01	-5.393314e+00
1.884246e+01	-5.428830e+00
1.895129e+01	-5.464752e+00
1.906075e+01	-5.500593e+00
1.917085e+01	-5.536278e+00
1.928158e+01	-5.572705e+00
1.939295e+01	-5.609144e+00
1.950496e+01	-5.645307e+00
1.961762e+01	-5.681587e+00
1.973093e+01	-5.717956e+00
1.984490e+01	-5.754646e+00
1.995952e+01	-5.791663e+00
2.007480e+01	-5.828458e+00
2.019076e+01	-5.865585e+00
2.030738e+01	-5.902928e+00
2.042467e+01	-5.939856e+00
2.054264e+01	-5.976967e+00
2.066130e+01	-6.014505e+00
2.078064e+01	-6.052206e+00
2.090066e+01	-6.090085e+00
2.102139e+01	-6.127724e+00
2.114280e+01	-6.165713e+00
2.126492e+01	-6.203183e+00
2.138775e+01	-6.241665e+00
2.151128e+01	-6.279909e+00
2.163553e+01	-6.317806e+00
2.176050e+01	-6.356617e+00
2.188619e+01	-6.394975e+00
2.201260e+01	-6.433600e+00
2.213974e+01	-6.472030e+00
2.226762e+01	-6.511188e+00
2.239624e+01	-6.550236e+00
2.252560e+01	-6.589188e+00
2.265571e+01	-6.627636e+00
2.278656e+01	-6.667118e+00
2.291818e+01	-6.706680e+00
2.305055e+01	-6.746106e+00
2.318369e+01	-6.785486e+00
2.331760e+01	-6.824757e+00
2.345228e+01	-6.864649e+00
2.358774e+01	-6.904458e+00
2.372398e+01	-6.944294e+00
2.386101e+01	-6.984490e+00
2.399883e+01	-7.024570e+00
2.413745e+01	-7.064046e+00
2.427686e+01	-7.104906e+00
2.441709e+01	-7.145204e+00
2.455812e+01	-7.185254e+00
2.469997e+01	-7.226055e+00
2.484263e+01	-7.266429e+00
2.498612e+01	-7.307186e+00
2.513044e+01	-7.347895e+00
2.527559e+01	-7.388810e+00
2.542158e+01	-7.429687e+00
2.556842e+01	-7.470894e+00
2.571610e+01	-7.512210e+00
2.586463e+01	-7.553150e+00
2.601403e+01	-7.594699e+00
2.616428e+01	-7.636100e+00
2.631541e+01	-7.677424e+00
2.646740e+01	-7.718898e+00
2.662028e+01	-7.760293e+00
2.677404e+01	-7.802256e+00
2.692868e+01	-7.843783e+00
2.708422e+01	-7.885666e+00
2.724066e+01	-7.927898e+00
2.739800e+01	-7.969493e+00
2.755625e+01	-8.011945e+00
2.771541e+01	-8.053722e+00
2.787550e+01	-8.096006e+00
2.803650e+01	-8.137900e+00
2.819844e+01	-8.180777e+00
2.836131e+01	-8.223029e+00
2.852513e+01	-8.265621e+00
2.868989e+01	-8.308348e+00
2.885560e+01	-8.351039e+00
2.902227e+01	-8.393988e+00
2.918990e+01	-8.436711e+00
2.935850e+01	-8.479710e+00
2.952807e+01	-8.522132e+00
2.969863e+01	-8.565707e+00
2.987016e+01	-8.608226e+00
3.004269e+01	-8.651733e+00
3.021622e+01	-8.694822e+00
3.039075e+01	-8.738555e+00
3.056628e+01	-8.781533e+00
3.074283e+01	-8.825132e+00
3.092040e+01	-8.868841e+00
3.109900e+01	-8.912407e+00
3.127862e+01	-8.955905e+00
3.145929e+01	-8.999585e+00
3.164099e+01	-9.042914e+00
3.182375e+01	-9.087221e+00
3.200756e+01	-9.131039e+00
3.219244e+01	-9.175106e+00
3.237838e+01	-9.219189e+00
3.256540e+01	-9.263031e+00
3.275349e+01	-9.307215e+00
3.294268e+01	-9.351377e+00
3.313295e+01	-9.395440e+00
3.332433e+01	-9.439232e+00
3.351681e+01	-9.483959e+00
3.371040e+01	-9.528548e+00
3.390511e+01	-9.573214e+00
3.410094e+01	-9.617792e+00
3.429791e+01	-9.662771e+00
3.449601e+01	-9.707101e+00
3.469526e+01	-9.751403e+00
3.489566e+01	-9.796683e+00
3.509721e+01	-9.841084e+00
3.529993e+01	-9.885774e+00
3.550382e+01	-9.930529e+00
3.570889e+01	-9.975774e+00
3.591515e+01	-1.002102e+01
3.612259e+01	-1.006570e+01
3.633123e+01	-1.011101e+01
3.654108e+01	-1.015614e+01
3.675214e+01	-1.020177e+01
3.696442e+01	-1.024726e+01
3.717792e+01	-1.029213e+01
3.739266e+01	-1.033758e+01
3.760864e+01	-1.038295e+01
3.782587e+01	-1.042830e+01
3.804435e+01	-1.047368e+01
3.826409e+01	-1.051935e+01
3.848510e+01	-1.056555e+01
3.870739e+01	-1.061120e+01
3.893096e+01	-1.065581e+01
3.915583e+01	-1.070255e+01
3.938199e+01	-1.074805e+01
3.960946e+01	-1.079374e+01
3.983824e+01	-1.083968e+01
4.006834e+01	-1.088596e+01
4.029978e+01	-1.093106e+01
4.053255e+01	-1.097702e+01
4.076666e+01	-1.102394e+01
4.100213e+01	-1.106995e+01
4.123896e+01	-1.111581e+01
4.147715e+01	-1.116176e+01
4.171672e+01	-1.120866e+01
4.195767e+01	-1.125437e+01
4.220002e+01	-1.130091e+01
4.244377e+01	-1.134673e+01
4.268892e+01	-1.139364e+01
4.293549e+01	-1.144018e+01
4.318348e+01	-1.148592e+01
4.343291e+01	-1.153290e+01
4.368377e+01	-1.157967e+01
4.393609e+01	-1.162624e+01
4.418986e+01	-1.167300e+01
4.444510e+01	-1.171902e+01
4.470182e+01	-1.176594e+01
4.496001e+01	-1.181243e+01
4.521970e+01	-1.185992e+01
4.548089e+01	-1.190591e+01
4.574358e+01	-1.195278e+01
4.600779e+01	-1.199987e+01
4.627353e+01	-1.204707e+01
4.654081e+01	-1.209402e+01
4.680963e+01	-1.214061e+01
4.708000e+01	-1.218829e+01
4.735193e+01	-1.223420e+01
4.762543e+01	-1.228200e+01
4.790051e+01	-1.232872e+01
4.817719e+01	-1.237542e+01
4.845545e+01	-1.242353e+01
4.873533e+01	-1.247003e+01
4.901682e+01	-1.251708e+01
4.929994e+01	-1.256442e+01
4.958470e+01	-1.261230e+01
4.987110e+01	-1.265930e+01
5.015915e+01	-1.270626e+01
5.044887e+01	-1.275376e+01
5.074026e+01	-1.280123e+01
5.103333e+01	-1.284832e+01
5.132810e+01	-1.289640e+01
5.162457e+01	-1.294348e+01
5.192275e+01	-1.299097e+01
5.222265e+01	-1.303917e+01
5.252429e+01	-1.308626e+01
5.282767e+01	-1.313447e+01
5.313280e+01	-1.318166e+01
5.343969e+01	-1.322886e+01
5.374836e+01	-1.327744e+01
5.405880e+01	-1.332340e+01
5.437105e+01	-1.337252e+01
5.468509e+01	-1.341980e+01
5.500095e+01	-1.346777e+01
5.531863e+01	-1.351556e+01
5.563815e+01	-1.356428e+01
5.595951e+01	-1.361133e+01
5.628273e+01	-1.365954e+01
5.660782e+01	-1.370646e+01
5.693479e+01	-1.375424e+01
5.726364e+01	-1.380333e+01
5.759439e+01	-1.385048e+01
5.792705e+01	-1.389829e+01
5.826164e+01	-1.394584e+01
5.859815e+01	-1.399430e+01
5.893662e+01	-1.404267e+01
5.927703e+01	-1.409056e+01
5.961941e+01	-1.413931e+01
5.996377e+01	-1.418791e+01
6.031012e+01	-1.423606e+01
6.065847e+01	-1.428308e+01
6.100883e+01	-1.433129e+01
6.136121e+01	-1.437978e+01
6.171563e+01	-1.442755e+01
6.207210e+01	-1.447647e+01
6.243063e+01	-1.452374e+01
6.279122e+01	-1.457186e+01
6.315390e+01	-1.462186e+01
6.351868e+01	-1.466960e+01
6.388556e+01	-1.471791e+01
6.425456e+01	-1.476641e+01
6.462569e+01	-1.481436e+01
6.499897e+01	-1.486262e+01
6.537440e+01	-1.491079e+01
6.575200e+01	-1.495840e+01
6.613178e+01	-1.500750e+01
6.651375e+01	-1.505660e+01
6.689793e+01	-1.510523e+01
6.728433e+01	-1.515282e+01
6.767297e+01	-1.520174e+01
6.806384e+01	-1.524962e+01
6.845698e+01	-1.529832e+01
6.885238e+01	-1.534856e+01
6.925007e+01	-1.539518e+01
6.965005e+01	-1.544517e+01
7.005235e+01	-1.549305e+01
7.045697e+01	-1.554186e+01
7.086393e+01	-1.558984e+01
7.127323e+01	-1.563889e+01
7.168490e+01	-1.568742e+01
7.209895e+01	-1.573653e+01
7.251539e+01	-1.578497e+01
7.293424e+01	-1.583413e+01
7.335551e+01	-1.588137e+01
7.377920e+01	-1.593257e+01
7.420535e+01	-1.597993e+01
7.463396e+01	-1.602876e+01
7.506504e+01	-1.607682e+01
7.549861e+01	-1.612608e+01
7.593469e+01	-1.617482e+01
7.637328e+01	-1.622451e+01
7.681441e+01	-1.627297e+01
7.725809e+01	-1.632169e+01
7.770433e+01	-1.637001e+01
7.815315e+01	-1.641961e+01
7.860456e+01	-1.646857e+01
7.905857e+01	-1.651622e+01
7.951521e+01	-1.656677e+01
7.997449e+01	-1.661492e+01
8.043642e+01	-1.666364e+01
8.090102e+01	-1.671304e+01
8.136830e+01	-1.676090e+01
8.183828e+01	-1.681068e+01
8.231097e+01	-1.685995e+01
8.278640e+01	-1.690846e+01
8.326457e+01	-1.695866e+01
8.374550e+01	-1.700764e+01
8.422921e+01	-1.705615e+01
8.471572e+01	-1.710485e+01
8.520503e+01	-1.715382e+01
8.569717e+01	-1.720375e+01
8.619215e+01	-1.725098e+01
8.669000e+01	-1.730201e+01
8.719071e+01	-1.735106e+01
8.769432e+01	-1.739899e+01
8.820084e+01	-1.744876e+01
8.871029e+01	-1.749740e+01
8.922267e+01	-1.754670e+01
8.973802e+01	-1.759691e+01
9.025634e+01	-1.764533e+01
9.077766e+01	-1.769506e+01
9.130199e+01	-1.774305e+01
9.182935e+01	-1.779203e+01
9.235975e+01	-1.784339e+01
9.289321e+01	-1.789157e+01
9.342976e+01	-1.793888e+01
9.396941e+01	-1.799000e+01
9.451217e+01	-1.804012e+01
9.505807e+01	-1.808877e+01
9.560712e+01	-1.813672e+01
9.615934e+01	-1.818741e+01
9.671476e+01	-1.823661e+01
9.727338e+01	-1.828578e+01
9.783522e+01	-1.833472e+01
9.840032e+01	-1.838465e+01
9.896867e+01	-1.843385e+01
9.954031e+01	-1.848299e+01
1.001153e+02	-1.853170e+01
1.006935e+02	-1.858156e+01
1.012751e+02	-1.863004e+01
1.018601e+02	-1.868007e+01
1.024484e+02	-1.872981e+01
1.030402e+02	-1.878004e+01
1.036353e+02	-1.882893e+01
1.042339e+02	-1.887814e+01
1.048360e+02	-1.892838e+01
1.054415e+02	-1.897714e+01
1.060505e+02	-1.902559e+01
1.066631e+02	-1.907528e+01
1.072791e+02	-1.912465e+01
1.078988e+02	-1.917326e+01
1.085220e+02	-1.922448e+01
1.091488e+02	-1.927363e+01
1.097793e+02	-1.932188e+01
1.104133e+02	-1.937133e+01
1.110511e+02	-1.942086e+01
1.116925e+02	-1.947135e+01
1.123376e+02	-1.951990e+01
1.129865e+02	-1.957145e+01
1.136391e+02	-1.961958e+01
1.142955e+02	-1.966844e+01
1.149556e+02	-1.971688e+01
1.156196e+02	-1.976771e+01
1.162874e+02	-1.981721e+01
1.169591e+02	-1.986732e+01
1.176347e+02	-1.991662e+01
1.183141e+02	-1.996530e+01
1.189975e+02	-2.001606e+01
1.196848e+02	-2.006418e+01
1.203761e+02	-2.011291e+01
1.210714e+02	-2.016303e+01
1.217707e+02	-2.021386e+01
1.224740e+02	-2.026533e+01
1.231814e+02	-2.031142e+01
1.238929e+02	-2.036149e+01
1.246085e+02	-2.041148e+01
1.253283e+02	-2.045992e+01
1.260522e+02	-2.051078e+01
1.267802e+02	-2.056068e+01
1.275125e+02	-2.061006e+01
1.282490e+02	-2.065868e+01
1.289898e+02	-2.070897e+01
1.297348e+02	-2.075899e+01
1.304842e+02	-2.081040e+01
1.312378e+02	-2.085669e+01
1.319959e+02	-2.090804e+01
1.327583e+02	-2.095688e+01
1.335251e+02	-2.100557e+01
1.342963e+02	-2.105621e+01
1.350720e+02	-2.110432e+01
1.358522e+02	-2.115649e+01
1.366368e+02	-2.120514e+01
1.374260e+02	-2.125440e+01
1.382198e+02	-2.130550e+01
1.390182e+02	-2.135397e+01
1.398211e+02	-2.140355e+01
1.406287e+02	-2.145221e+01
1.414410e+02	-2.150215e+01
1.422579e+02	-2.155502e+01
1.430796e+02	-2.160283e+01
1.439060e+02	-2.165091e+01
1.447372e+02	-2.170214e+01
1.455732e+02	-2.175143e+01
1.464141e+02	-2.180268e+01
1.472597e+02	-2.185105e+01
1.481103e+02	-2.190125e+01
1.489658e+02	-2.194900e+01
1.498262e+02	-2.199921e+01
1.506916e+02	-2.204995e+01
1.515620e+02	-2.210094e+01
1.524374e+02	-2.215037e+01
1.533179e+02	-2.220003e+01
1.542034e+02	-2.225018e+01
1.550941e+02	-2.229894e+01
1.559899e+02	-2.234892e+01
1.568909e+02	-2.239980e+01
1.577971e+02	-2.244832e+01
1.587085e+02	-2.249798e+01
1.596252e+02	-2.254778e+01
1.605472e+02	-2.259762e+01
1.614745e+02	-2.264861e+01
1.624072e+02	-2.269974e+01
1.633453e+02	-2.274929e+01
1.642887e+02	-2.279758e+01
1.652377e+02	-2.284561e+01
1.661921e+02	-2.289679e+01
1.671520e+02	-2.294564e+01
1.681175e+02	-2.299613e+01
1.690885e+02	-2.304559e+01
1.700651e+02	-2.309690e+01
1.710474e+02	-2.314648e+01
1.720354e+02	-2.319670e+01
1.730291e+02	-2.324648e+01
1.740285e+02	-2.329784e+01
1.750337e+02	-2.334657e+01
1.760446e+02	-2.339383e+01
1.770615e+02	-2.344241e+01
1.780842e+02	-2.349460e+01
1.791128e+02	-2.354431e+01
1.801473e+02	-2.359632e+01
1.811878e+02	-2.364493e+01
1.822344e+02	-2.369097e+01
1.832870e+02	-2.374266e+01
1.843456e+02	-2.379634e+01
1.854104e+02	-2.384144e+01
1.864813e+02	-2.389184e+01
1.875584e+02	-2.394302e+01
1.886418e+02	-2.399100e+01
1.897313e+02	-2.404424e+01
1.908272e+02	-2.409058e+01
1.919294e+02	-2.414210e+01
1.930380e+02	-2.419409e+01
1.941530e+02	-2.424244e+01
1.952744e+02	-2.429218e+01
1.964023e+02	-2.434157e+01
1.975367e+02	-2.438941e+01
1.986777e+02	-2.444051e+01
1.998252e+02	-2.449416e+01
2.009794e+02	-2.454239e+01
2.021403e+02	-2.459401e+01
2.033078e+02	-2.464066e+01
2.044821e+02	-2.469077e+01
2.056632e+02	-2.474153e+01
2.068511e+02	-2.479218e+01
2.080459e+02	-2.483981e+01
2.092475e+02	-2.488993e+01
2.104561e+02	-2.494149e+01
2.116717e+02	-2.499023e+01
2.128943e+02	-2.504070e+01
2.141240e+02	-2.508915e+01
2.153608e+02	-2.513828e+01
2.166047e+02	-2.518891e+01
2.178558e+02	-2.523796e+01
2.191141e+02	-2.529090e+01
2.203797e+02	-2.534265e+01
2.216526e+02	-2.538852e+01
2.229329e+02	-2.543961e+01
2.242205e+02	-2.548769e+01
2.255156e+02	-2.553900e+01
2.268182e+02	-2.559267e+01
2.281283e+02	-2.563967e+01
2.294459e+02	-2.568923e+01
2.307712e+02	-2.573794e+01
2.321041e+02	-2.578842e+01
2.334447e+02	-2.584014e+01
2.347931e+02	-2.588646e+01
2.361493e+02	-2.593796e+01
2.375133e+02	-2.598790e+01
2.388851e+02	-2.604072e+01
2.402649e+02	-2.608838e+01
2.416527e+02	-2.613970e+01
2.430484e+02	-2.619029e+01
2.444523e+02	-2.623604e+01
2.458642e+02	-2.629048e+01
2.472843e+02	-2.633920e+01
2.487126e+02	-2.638933e+01
2.501492e+02	-2.643907e+01
2.515940e+02	-2.648839e+01
2.530472e+02	-2.654103e+01
2.545088e+02	-2.658968e+01
2.559789e+02	-2.663924e+01
2.574574e+02	-2.668995e+01
2.589444e+02	-2.673770e+01
2.604401e+02	-2.679019e+01
2.619444e+02	-2.683715e+01
2.634574e+02	-2.688847e+01
2.649791e+02	-2.693791e+01
2.665096e+02	-2.698922e+01
2.680489e+02	-2.703833e+01
2.695972e+02	-2.708538e+01
2.711544e+02	-2.713682e+01
2.727205e+02	-2.718567e+01
2.742958e+02	-2.723870e+01
2.758801e+02	-2.728965e+01
2.774736e+02	-2.733696e+01
2.790762e+02	-2.738991e+01
2.806882e+02	-2.743561e+01
2.823094e+02	-2.748542e+01
2.839400e+02	-2.753871e+01
2.855800e+02	-2.759112e+01
2.872295e+02	-2.763777e+01
2.888886e+02	-2.768899e+01
2.905572e+02	-2.773945e+01
2.922354e+02	-2.779039e+01
2.939234e+02	-2.783599e+01
2.956211e+02	-2.788746e+01
2.973286e+02	-2.793507e+01
2.990459e+02	-2.798988e+01
3.007732e+02	-2.803795e+01
3.025104e+02	-2.808666e+01
3.042577e+02	-2.813886e+01
3.060151e+02	-2.818794e+01
3.077826e+02	-2.823901e+01
3.095604e+02	-2.828603e+01
3.113484e+02	-2.834149e+01
3.131467e+02	-2.838654e+01
3.149554e+02	-2.843925e+01
3.167746e+02	-2.849124e+01
3.186043e+02	-2.854167e+01
3.204445e+02	-2.858799e+01
3.222954e+02	-2.864114e+01
3.241570e+02	-2.868997e+01
3.260293e+02	-2.873610e+01
3.279124e+02	-2.879014e+01
3.298064e+02	-2.883031e+01
3.317114e+02	-2.888922e+01
3.336273e+02	-2.893824e+01
3.355544e+02	-2.898982e+01
3.374925e+02	-2.903991e+01
3.394418e+02	-2.908978e+01
3.414024e+02	-2.913330e+01
3.433744e+02	-2.919017e+01
3.453577e+02	-2.924063e+01
3.473525e+02	-2.928737e+01
3.493588e+02	-2.934053e+01
3.513766e+02	-2.939258e+01
3.534062e+02	-2.943905e+01
3.554474e+02	-2.948735e+01
3.575005e+02	-2.953981e+01
3.595654e+02	-2.958870e+01
3.616422e+02	-2.964042e+01
3.637311e+02	-2.969016e+01
3.658320e+02	-2.974613e+01
3.679450e+02	-2.978588e+01
3.700702e+02	-2.983834e+01
3.722077e+02	-2.989196e+01
3.743576e+02	-2.993660e+01
3.765199e+02	-2.998696e+01
3.786946e+02	-3.004100e+01
3.808820e+02	-3.009014e+01
3.830819e+02	-3.013812e+01
3.852946e+02	-3.018698e+01
3.875200e+02	-3.023615e+01
3.897583e+02	-3.029038e+01
3.920096e+02	-3.034200e+01
3.942738e+02	-3.039019e+01
3.965511e+02	-3.044398e+01
3.988416e+02	-3.049034e+01
4.011452e+02	-3.053985e+01
4.034622e+02	-3.059568e+01
4.057926e+02	-3.064343e+01
4.081365e+02	-3.069210e+01
4.104938e+02	-3.074887e+01
4.128648e+02	-3.079219e+01
4.152495e+02	-3.084408e+01
4.176480e+02	-3.088882e+01
4.200603e+02	-3.093966e+01
4.224866e+02	-3.099432e+01
4.249268e+02	-3.104068e+01
4.273812e+02	-3.109725e+01
4.298497e+02	-3.114601e+01
4.323325e+02	-3.118953e+01
4.348297e+02	-3.124669e+01
4.373412e+02	-3.129855e+01
4.398673e+02	-3.134303e+01
4.424079e+02	-3.139101e+01
4.449633e+02	-3.144207e+01
4.475334e+02	-3.148937e+01
4.501183e+02	-3.154704e+01
4.527182e+02	-3.160037e+01
4.553330e+02	-3.164571e+01
4.579630e+02	-3.169490e+01
4.606082e+02	-3.174245e+01
4.632687e+02	-3.179696e+01
4.659445e+02	-3.184084e+01
4.686358e+02	-3.189191e+01
4.713426e+02	-3.194735e+01
4.740650e+02	-3.199560e+01
4.768032e+02	-3.204345e+01
4.795572e+02	-3.209568e+01
4.823271e+02	-3.215139e+01
4.851130e+02	-3.219450e+01
4.879150e+02	-3.224707e+01
4.907332e+02	-3.230153e+01
4.935676e+02	-3.234442e+01
4.964185e+02	-3.240542e+01
4.992858e+02	-3.244779e+01
5.021696e+02	-3.249376e+01
5.050701e+02	-3.254931e+01
5.079874e+02	-3.259455e+01
5.109215e+02	-3.265232e+01
5.138726e+02	-3.269833e+01
5.168407e+02	-3.274884e+01
5.198259e+02	-3.279646e+01
5.228284e+02	-3.283912e+01
5.258482e+02	-3.289808e+01
5.288855e+02	-3.295005e+01
5.319403e+02	-3.300255e+01
5.350128e+02	-3.304859e+01
5.381030e+02	-3.310280e+01
5.412111e+02	-3.315129e+01
5.443371e+02	-3.319679e+01
5.474812e+02	-3.325105e+01
5.506434e+02	-3.330141e+01
5.538239e+02	-3.335382e+01
5.570228e+02	-3.340293e+01
5.602401e+02	-3.345147e+01
5.634760e+02	-3.350059e+01
5.667306e+02	-3.355289e+01
5.700040e+02	-3.359915e+01
5.732964e+02	-3.364344e+01
5.766077e+02	-3.371215e+01
5.799382e+02	-3.376075e+01
5.832879e+02	-3.380650e+01
5.866569e+02	-3.385095e+01
5.900454e+02	-3.391036e+01
5.934535e+02	-3.395412e+01
5.968813e+02	-3.400248e+01
6.003288e+02	-3.405004e+01
6.037963e+02	-3.411145e+01
6.072838e+02	-3.415504e+01
6.107914e+02	-3.420689e+01
6.143194e+02	-3.426300e+01
6.178676e+02	-3.430683e+01
6.214364e+02	-3.435566e+01
6.250258e+02	-3.441139e+01
6.286359e+02	-3.445557e+01
6.322669e+02	-3.451076e+01
6.359189e+02	-3.455650e+01
6.395919e+02	-3.461305e+01
6.432862e+02	-3.465763e+01
6.470017e+02	-3.470799e+01
6.507388e+02	-3.475370e+01
6.544974e+02	-3.480454e+01
6.582778e+02	-3.486586e+01
6.620800e+02	-3.490643e+01
6.659041e+02	-3.496570e+01
6.697504e+02	-3.501398e+01
6.736188e+02	-3.506649e+01
6.775096e+02	-3.512600e+01
6.814229e+02	-3.516692e+01
6.853587e+02	-3.521410e+01
6.893173e+02	-3.526054e+01
6.932988e+02	-3.531699e+01
6.973033e+02	-3.536604e+01
7.013309e+02	-3.542315e+01
