Frequency(Hz)	Magnitude(dB)
1.000000e+01	-2.229754e+00
1.005776e+01	-2.249909e+00
1.011585e+01	-2.270321e+00
1.017428e+01	-2.290834e+00
1.023305e+01	-2.311425e+00
1.029215e+01	-2.331966e+00
1.035160e+01	-2.353025e+00
1.041139e+01	-2.373863e+00
1.047153e+01	-2.395035e+00
1.053201e+01	-2.416312e+00
1.059284e+01	-2.438041e+00
1.065403e+01	-2.459292e+00
1.071556e+01	-2.480930e+00
1.077746e+01	-2.502935e+00
1.083971e+01	-2.524993e+00
1.090232e+01	-2.546827e+00
1.096529e+01	-2.569143e+00
1.102862e+01	-2.591775e+00
1.109232e+01	-2.614022e+00
1.115639e+01	-2.636920e+00
1.122083e+01	-2.659774e+00
1.128564e+01	-2.682607e+00
1.135083e+01	-2.705796e+00
1.141639e+01	-2.729028e+00
1.148233e+01	-2.752257e+00
1.154865e+01	-2.775969e+00
1.161536e+01	-2.799659e+00
1.168245e+01	-2.823551e+00
1.174992e+01	-2.847407e+00
1.181779e+01	-2.871389e+00
1.188605e+01	-2.895999e+00
1.195470e+01	-2.920433e+00
1.202375e+01	-2.945026e+00
1.209320e+01	-2.969490e+00
1.216305e+01	-2.994596e+00
1.223330e+01	-3.019613e+00
1.230396e+01	-3.044358e+00
1.237503e+01	-3.070015e+00
1.244651e+01	-3.095314e+00
1.251840e+01	-3.120932e+00
1.259070e+01	-3.146588e+00
1.266343e+01	-3.172569e+00
1.273657e+01	-3.198190e+00
1.281014e+01	-3.224367e+00
1.288413e+01	-3.250764e+00
1.295855e+01	-3.277248e+00
1.303339e+01	-3.303840e+00
1.310867e+01	-3.330759e+00
1.318439e+01	-3.357527e+00
1.326054e+01	-3.384401e+00
1.333713e+01	-3.411657e+00
1.341417e+01	-3.439073e+00
1.349165e+01	-3.466468e+00
1.356958e+01	-3.493743e+00
1.364795e+01	-3.521635e+00
1.372678e+01	-3.549561e+00
1.380607e+01	-3.577447e+00
1.388581e+01	-3.605668e+00
1.396602e+01	-3.634067e+00
1.404668e+01	-3.662477e+00
1.412782e+01	-3.691098e+00
1.420942e+01	-3.719732e+00
1.429149e+01	-3.748434e+00
1.437404e+01	-3.777381e+00
1.445706e+01	-3.806404e+00
1.454057e+01	-3.835991e+00
1.462455e+01	-3.865130e+00
1.470902e+01	-3.894930e+00
1.479398e+01	-3.924274e+00
1.487943e+01	-3.954275e+00
1.496537e+01	-3.984341e+00
1.505181e+01	-4.014370e+00
1.513875e+01	-4.044853e+00
1.522619e+01	-4.074865e+00
1.531414e+01	-4.105591e+00
1.540259e+01	-4.136415e+00
1.549156e+01	-4.167132e+00
1.558103e+01	-4.198031e+00
1.567103e+01	-4.229071e+00
1.576155e+01	-4.260029e+00
1.585258e+01	-4.291507e+00
1.594415e+01	-4.323049e+00
1.603624e+01	-4.354502e+00
1.612886e+01	-4.386395e+00
1.622202e+01	-4.418300e+00
1.631572e+01	-4.449989e+00
1.640996e+01	-4.482347e+00
1.650474e+01	-4.514426e+00
1.660008e+01	-4.547125e+00
1.669596e+01	-4.579477e+00
1.679239e+01	-4.612098e+00
1.688938e+01	-4.644941e+00
1.698694e+01	-4.678135e+00
1.708505e+01	-4.711255e+00
1.718373e+01	-4.744307e+00
1.728299e+01	-4.777791e+00
1.738281e+01	-4.810674e+00
1.748322e+01	-4.844626e+00
1.758420e+01	-4.878243e+00
1.768576e+01	-4.911913e+00
1.778792e+01	-4.945957e+00
1.789066e+01	-4.980151e+00
1.799399e+01	-5.014380e+00
1.809793e+01	-5.048603e+00
1.820246e+01	-5.083177e+00
1.830760e+01	-5.117672e+00
1.841334e+01	-5.152012e+00
1.851969e+01	-5.186956e+00
1.862666e+01	-5.222170e+00
1.873425e+01	-5.256840e+00
1.884246e+01	-5.292083e+00
1.895129e+01	-5.327550e+00
1.906075e+01	-5.363079e+00
1.917085e+01	-5.398526e+00
1.928158e+01	-5.434060e+00
1.939295e+01	-5.469763e+00
1.950496e+01	-5.506061e+00
1.961762e+01	-5.541832e+00
1.973093e+01	-5.577647e+00
1.984490e+01	-5.614104e+00
1.995952e+01	-5.650758e+00
2.007480e+01	-5.686711e+00
2.019076e+01	-5.723612e+00
2.030738e+01	-5.760377e+00
2.042467e+01	-5.796924e+00
2.054264e+01	-5.833654e+00
2.066130e+01	-5.870671e+00
2.078064e+01	-5.908054e+00
2.090066e+01	-5.945472e+00
2.102139e+01	-5.982609e+00
2.114280e+01	-6.020375e+00
2.126492e+01	-6.057818e+00
2.138775e+01	-6.095410e+00
2.151128e+01	-6.133341e+00
2.163553e+01	-6.171050e+00
2.176050e+01	-6.209191e+00
2.188619e+01	-6.247307e+00
2.201260e+01	-6.285606e+00
2.213974e+01	-6.323690e+00
2.226762e+01	-6.362243e+00
2.239624e+01	-6.400742e+00
2.252560e+01	-6.439275e+00
2.265571e+01	-6.478193e+00
2.278656e+01	-6.517054e+00
2.291818e+01	-6.555550e+00
2.305055e+01	-6.594614e+00
2.318369e+01	-6.633310e+00
2.331760e+01	-6.673285e+00
2.345228e+01	-6.712501e+00
2.358774e+01	-6.751998e+00
2.372398e+01	-6.791465e+00
2.386101e+01	-6.830897e+00
2.399883e+01	-6.870778e+00
2.413745e+01	-6.910690e+00
2.427686e+01	-6.950051e+00
2.441709e+01	-6.990056e+00
2.455812e+01	-7.030485e+00
2.469997e+01	-7.070463e+00
2.484263e+01	-7.110854e+00
2.498612e+01	-7.151369e+00
2.513044e+01	-7.191749e+00
2.527559e+01	-7.232185e+00
2.542158e+01	-7.272705e+00
2.556842e+01	-7.313383e+00
2.571610e+01	-7.354029e+00
2.586463e+01	-7.394778e+00
2.601403e+01	-7.435887e+00
2.616428e+01	-7.477072e+00
2.631541e+01	-7.518287e+00
2.646740e+01	-7.559171e+00
2.662028e+01	-7.600450e+00
2.677404e+01	-7.641983e+00
2.692868e+01	-7.683236e+00
2.708422e+01	-7.725314e+00
2.724066e+01	-7.766903e+00
2.739800e+01	-7.808115e+00
2.755625e+01	-7.850115e+00
2.771541e+01	-7.891817e+00
2.787550e+01	-7.934311e+00
2.803650e+01	-7.975939e+00
2.819844e+01	-8.018028e+00
2.836131e+01	-8.060076e+00
2.852513e+01	-8.102249e+00
2.868989e+01	-8.144706e+00
2.885560e+01	-8.187326e+00
2.902227e+01	-8.229290e+00
2.918990e+01	-8.272219e+00
2.935850e+01	-8.314975e+00
2.952807e+01	-8.357706e+00
2.969863e+01	-8.400084e+00
2.987016e+01	-8.443146e+00
3.004269e+01	-8.485935e+00
3.021622e+01	-8.528942e+00
3.039075e+01	-8.571398e+00
3.056628e+01	-8.614764e+00
3.074283e+01	-8.658060e+00
3.092040e+01	-8.701448e+00
3.109900e+01	-8.744927e+00
3.127862e+01	-8.787976e+00
3.145929e+01	-8.831857e+00
3.164099e+01	-8.874967e+00
3.182375e+01	-8.918730e+00
3.200756e+01	-8.962409e+00
3.219244e+01	-9.005970e+00
3.237838e+01	-9.049559e+00
3.256540e+01	-9.093331e+00
3.275349e+01	-9.137686e+00
3.294268e+01	-9.181498e+00
3.313295e+01	-9.225623e+00
3.332433e+01	-9.269505e+00
3.351681e+01	-9.313356e+00
3.371040e+01	-9.357755e+00
3.390511e+01	-9.401792e+00
3.410094e+01	-9.446091e+00
3.429791e+01	-9.490637e+00
3.449601e+01	-9.534882e+00
3.469526e+01	-9.579769e+00
3.489566e+01	-9.624489e+00
3.509721e+01	-9.668950e+00
3.529993e+01	-9.713602e+00
3.550382e+01	-9.758520e+00
3.570889e+01	-9.803325e+00
3.591515e+01	-9.847364e+00
3.612259e+01	-9.892387e+00
3.633123e+01	-9.937016e+00
3.654108e+01	-9.982269e+00
3.675214e+01	-1.002761e+01
3.696442e+01	-1.007288e+01
3.717792e+01	-1.011790e+01
3.739266e+01	-1.016282e+01
3.760864e+01	-1.020822e+01
3.782587e+01	-1.025334e+01
3.804435e+01	-1.029912e+01
3.826409e+01	-1.034450e+01
3.848510e+01	-1.038901e+01
3.870739e+01	-1.043529e+01
3.893096e+01	-1.048073e+01
3.915583e+01	-1.052626e+01
3.938199e+01	-1.057153e+01
3.960946e+01	-1.061767e+01
3.983824e+01	-1.066308e+01
4.006834e+01	-1.070965e+01
4.029978e+01	-1.075462e+01
4.053255e+01	-1.080050e+01
4.076666e+01	-1.084664e+01
4.100213e+01	-1.089299e+01
4.123896e+01	-1.093807e+01
4.147715e+01	-1.098443e+01
4.171672e+01	-1.103091e+01
4.195767e+01	-1.107650e+01
4.220002e+01	-1.112272e+01
4.244377e+01	-1.116871e+01
4.268892e+01	-1.121520e+01
4.293549e+01	-1.126079e+01
4.318348e+01	-1.130780e+01
4.343291e+01	-1.135436e+01
4.368377e+01	-1.140067e+01
4.393609e+01	-1.144709e+01
4.418986e+01	-1.149360e+01
4.444510e+01	-1.153945e+01
4.470182e+01	-1.158643e+01
4.496001e+01	-1.163342e+01
4.521970e+01	-1.167975e+01
4.548089e+01	-1.172596e+01
4.574358e+01	-1.177284e+01
4.600779e+01	-1.181966e+01
4.627353e+01	-1.186639e+01
4.654081e+01	-1.191275e+01
4.680963e+01	-1.195992e+01
4.708000e+01	-1.200675e+01
4.735193e+01	-1.205325e+01
4.762543e+01	-1.210078e+01
4.790051e+01	-1.214779e+01
4.817719e+01	-1.219432e+01
4.845545e+01	-1.224133e+01
4.873533e+01	-1.228907e+01
4.901682e+01	-1.233535e+01
4.929994e+01	-1.238253e+01
4.958470e+01	-1.243023e+01
4.987110e+01	-1.247724e+01
5.015915e+01	-1.252446e+01
5.044887e+01	-1.257227e+01
5.074026e+01	-1.261922e+01
5.103333e+01	-1.266648e+01
5.132810e+01	-1.271381e+01
5.162457e+01	-1.276101e+01
5.192275e+01	-1.280847e+01
5.222265e+01	-1.285573e+01
5.252429e+01	-1.290318e+01
5.282767e+01	-1.295074e+01
5.313280e+01	-1.299834e+01
5.343969e+01	-1.304583e+01
5.374836e+01	-1.309308e+01
5.405880e+01	-1.314085e+01
5.437105e+01	-1.318880e+01
5.468509e+01	-1.323584e+01
5.500095e+01	-1.328294e+01
5.531863e+01	-1.333149e+01
5.563815e+01	-1.337866e+01
5.595951e+01	-1.342684e+01
5.628273e+01	-1.347431e+01
5.660782e+01	-1.352266e+01
5.693479e+01	-1.357007e+01
5.726364e+01	-1.361806e+01
5.759439e+01	-1.366571e+01
5.792705e+01	-1.371327e+01
5.826164e+01	-1.376114e+01
5.859815e+01	-1.380954e+01
5.893662e+01	-1.385803e+01
5.927703e+01	-1.390530e+01
5.961941e+01	-1.395344e+01
5.996377e+01	-1.400209e+01
6.031012e+01	-1.404934e+01
6.065847e+01	-1.409769e+01
6.100883e+01	-1.414562e+01
6.136121e+01	-1.419371e+01
6.171563e+01	-1.424219e+01
6.207210e+01	-1.429090e+01
6.243063e+01	-1.433922e+01
6.279122e+01	-1.438614e+01
6.315390e+01	-1.443521e+01
6.351868e+01	-1.448277e+01
6.388556e+01	-1.453130e+01
6.425456e+01	-1.457907e+01
6.462569e+01	-1.462812e+01
6.499897e+01	-1.467626e+01
6.537440e+01	-1.472506e+01
6.575200e+01	-1.477195e+01
6.613178e+01	-1.482101e+01
6.651375e+01	-1.487029e+01
6.689793e+01	-1.491780e+01
6.728433e+01	-1.496697e+01
6.767297e+01	-1.501571e+01
6.806384e+01	-1.506300e+01
6.845698e+01	-1.511169e+01
6.885238e+01	-1.516051e+01
6.925007e+01	-1.520891e+01
6.965005e+01	-1.525806e+01
7.005235e+01	-1.530566e+01
7.045697e+01	-1.535478e+01
7.086393e+01	-1.540333e+01
7.127323e+01	-1.545199e+01
7.168490e+01	-1.549958e+01
7.209895e+01	-1.554873e+01
7.251539e+01	-1.559791e+01
7.293424e+01	-1.564556e+01
7.335551e+01	-1.569506e+01
7.377920e+01	-1.574360e+01
7.420535e+01	-1.579257e+01
7.463396e+01	-1.584166e+01
7.506504e+01	-1.588898e+01
7.549861e+01	-1.593819e+01
7.593469e+01	-1.598660e+01
7.637328e+01	-1.603726e+01
7.681441e+01	-1.608497e+01
7.725809e+01	-1.613484e+01
7.770433e+01	-1.618306e+01
7.815315e+01	-1.623155e+01
7.860456e+01	-1.628002e+01
7.905857e+01	-1.632885e+01
7.951521e+01	-1.637841e+01
7.997449e+01	-1.642587e+01
8.043642e+01	-1.647581e+01
8.090102e+01	-1.652457e+01
8.136830e+01	-1.657384e+01
8.183828e+01	-1.662198e+01
8.231097e+01	-1.667156e+01
8.278640e+01	-1.672106e+01
8.326457e+01	-1.676937e+01
8.374550e+01	-1.681829e+01
8.422921e+01	-1.686699e+01
8.471572e+01	-1.691722e+01
8.520503e+01	-1.696575e+01
8.569717e+01	-1.701509e+01
8.619215e+01	-1.706322e+01
8.669000e+01	-1.711287e+01
8.719071e+01	-1.716184e+01
8.769432e+01	-1.721108e+01
8.820084e+01	-1.725979e+01
8.871029e+01	-1.730798e+01
8.922267e+01	-1.735739e+01
8.973802e+01	-1.740746e+01
9.025634e+01	-1.745637e+01
9.077766e+01	-1.750522e+01
9.130199e+01	-1.755354e+01
9.182935e+01	-1.760432e+01
9.235975e+01	-1.765238e+01
9.289321e+01	-1.770065e+01
9.342976e+01	-1.775093e+01
9.396941e+01	-1.780135e+01
9.451217e+01	-1.784995e+01
9.505807e+01	-1.789957e+01
9.560712e+01	-1.794762e+01
9.615934e+01	-1.799724e+01
9.671476e+01	-1.804570e+01
9.727338e+01	-1.809727e+01
9.783522e+01	-1.814527e+01
9.840032e+01	-1.819453e+01
9.896867e+01	-1.824479e+01
9.954031e+01	-1.829186e+01
1.001153e+02	-1.834238e+01
1.006935e+02	-1.839124e+01
1.012751e+02	-1.844011e+01
1.018601e+02	-1.849018e+01
1.024484e+02	-1.854074e+01
1.030402e+02	-1.858921e+01
1.036353e+02	-1.863757e+01
1.042339e+02	-1.868691e+01
1.048360e+02	-1.873591e+01
1.054415e+02	-1.878396e+01
1.060505e+02	-1.883549e+01
1.066631e+02	-1.888617e+01
1.072791e+02	-1.893401e+01
1.078988e+02	-1.898308e+01
1.085220e+02	-1.903205e+01
1.091488e+02	-1.908307e+01
1.097793e+02	-1.913080e+01
1.104133e+02	-1.918058e+01
1.110511e+02	-1.922999e+01
1.116925e+02	-1.928033e+01
1.123376e+02	-1.932950e+01
1.129865e+02	-1.937983e+01
1.136391e+02	-1.942933e+01
1.142955e+02	-1.947691e+01
1.149556e+02	-1.952785e+01
1.156196e+02	-1.957523e+01
1.162874e+02	-1.962650e+01
1.169591e+02	-1.967553e+01
1.176347e+02	-1.972432e+01
1.183141e+02	-1.977515e+01
1.189975e+02	-1.982392e+01
1.196848e+02	-1.987366e+01
1.203761e+02	-1.992176e+01
1.210714e+02	-1.997334e+01
1.217707e+02	-2.002299e+01
1.224740e+02	-2.007149e+01
1.231814e+02	-2.012239e+01
1.238929e+02	-2.017120e+01
1.246085e+02	-2.022105e+01
1.253283e+02	-2.027097e+01
1.260522e+02	-2.031836e+01
1.267802e+02	-2.036912e+01
1.275125e+02	-2.041884e+01
1.282490e+02	-2.046944e+01
1.289898e+02	-2.051812e+01
1.297348e+02	-2.056780e+01
1.304842e+02	-2.061639e+01
1.312378e+02	-2.066584e+01
1.319959e+02	-2.071540e+01
1.327583e+02	-2.076597e+01
1.335251e+02	-2.081579e+01
1.342963e+02	-2.086653e+01
1.350720e+02	-2.091484e+01
1.358522e+02	-2.096371e+01
1.366368e+02	-2.101428e+01
1.374260e+02	-2.106404e+01
1.382198e+02	-2.111278e+01
1.390182e+02	-2.116298e+01
1.398211e+02	-2.121457e+01
1.406287e+02	-2.126359e+01
1.414410e+02	-2.131219e+01
1.422579e+02	-2.136023e+01
1.430796e+02	-2.141196e+01
1.439060e+02	-2.145989e+01
1.447372e+02	-2.150993e+01
1.455732e+02	-2.156165e+01
1.464141e+02	-2.160966e+01
1.472597e+02	-2.166101e+01
1.481103e+02	-2.171039e+01
1.489658e+02	-2.176045e+01
1.498262e+02	-2.181002e+01
1.506916e+02	-2.186025e+01
1.515620e+02	-2.191073e+01
1.524374e+02	-2.195793e+01
1.533179e+02	-2.200916e+01
1.542034e+02	-2.205892e+01
1.550941e+02	-2.210787e+01
1.559899e+02	-2.215560e+01
1.568909e+02	-2.220541e+01
1.577971e+02	-2.225670e+01
1.587085e+02	-2.230633e+01
1.596252e+02	-2.235819e+01
1.605472e+02	-2.240598e+01
1.614745e+02	-2.245757e+01
1.624072e+02	-2.250516e+01
1.633453e+02	-2.255739e+01
1.642887e+02	-2.260388e+01
1.652377e+02	-2.265471e+01
1.661921e+02	-2.270656e+01
1.671520e+02	-2.275248e+01
1.681175e+02	-2.280450e+01
1.690885e+02	-2.285391e+01
1.700651e+02	-2.290307e+01
1.710474e+02	-2.295371e+01
1.720354e+02	-2.300381e+01
1.730291e+02	-2.305365e+01
1.740285e+02	-2.310185e+01
1.750337e+02	-2.315314e+01
1.760446e+02	-2.320068e+01
1.770615e+02	-2.325227e+01
1.780842e+02	-2.330324e+01
1.791128e+02	-2.335205e+01
1.801473e+02	-2.340087e+01
1.811878e+02	-2.345061e+01
1.822344e+02	-2.350274e+01
1.832870e+02	-2.354896e+01
1.843456e+02	-2.360337e+01
1.854104e+02	-2.365013e+01
1.864813e+02	-2.369997e+01
1.875584e+02	-2.375106e+01
1.886418e+02	-2.380305e+01
1.897313e+02	-2.385147e+01
1.908272e+02	-2.390031e+01
1.919294e+02	-2.395094e+01
1.930380e+02	-2.400099e+01
1.941530e+02	-2.404641e+01
1.952744e+02	-2.409844e+01
1.964023e+02	-2.414978e+01
1.975367e+02	-2.419992e+01
1.986777e+02	-2.424857e+01
1.998252e+02	-2.430171e+01
2.009794e+02	-2.435101e+01
2.021403e+02	-2.439591e+01
2.033078e+02	-2.445071e+01
2.044821e+02	-2.449751e+01
2.056632e+02	-2.454871e+01
2.068511e+02	-2.459953e+01
2.080459e+02	-2.464915e+01
2.092475e+02	-2.469945e+01
2.104561e+02	-2.474669e+01
2.116717e+02	-2.479893e+01
2.128943e+02	-2.484718e+01
2.141240e+02	-2.489755e+01
2.153608e+02	-2.494934e+01
2.166047e+02	-2.499962e+01
2.178558e+02	-2.504609e+01
2.191141e+02	-2.509781e+01
2.203797e+02	-2.514532e+01
2.216526e+02	-2.519825e+01
2.229329e+02	-2.524687e+01
2.242205e+02	-2.529312e+01
2.255156e+02	-2.534913e+01
2.268182e+02	-2.539779e+01
2.281283e+02	-2.544536e+01
2.294459e+02	-2.549521e+01
2.307712e+02	-2.554819e+01
2.321041e+02	-2.559654e+01
2.334447e+02	-2.564404e+01
2.347931e+02	-2.569706e+01
2.361493e+02	-2.574487e+01
2.375133e+02	-2.579668e+01
2.388851e+02	-2.584658e+01
2.402649e+02	-2.589680e+01
2.416527e+02	-2.594274e+01
2.430484e+02	-2.599557e+01
2.444523e+02	-2.604563e+01
2.458642e+02	-2.609422e+01
2.472843e+02	-2.614751e+01
2.487126e+02	-2.619727e+01
2.501492e+02	-2.624702e+01
2.515940e+02	-2.629736e+01
2.530472e+02	-2.634724e+01
2.545088e+02	-2.639396e+01
2.559789e+02	-2.644380e+01
2.574574e+02	-2.649327e+01
2.589444e+02	-2.654247e+01
2.604401e+02	-2.659335e+01
2.619444e+02	-2.664447e+01
2.634574e+02	-2.669355e+01
2.649791e+02	-2.674452e+01
2.665096e+02	-2.679656e+01
2.680489e+02	-2.684775e+01
2.695972e+02	-2.689561e+01
2.711544e+02	-2.694408e+01
2.727205e+02	-2.699561e+01
2.742958e+02	-2.704718e+01
2.758801e+02	-2.709256e+01
2.774736e+02	-2.714584e+01
2.790762e+02	-2.719866e+01
2.806882e+02	-2.724432e+01
2.823094e+02	-2.729342e+01
2.839400e+02	-2.734236e+01
2.855800e+02	-2.739425e+01
2.872295e+02	-2.744269e+01
2.888886e+02	-2.749444e+01
2.905572e+02	-2.754261e+01
2.922354e+02	-2.759783e+01
2.939234e+02	-2.764513e+01
2.956211e+02	-2.769452e+01
2.973286e+02	-2.774576e+01
2.990459e+02	-2.779606e+01
3.007732e+02	-2.784623e+01
3.025104e+02	-2.789725e+01
3.042577e+02	-2.794563e+01
3.060151e+02	-2.799566e+01
3.077826e+02	-2.804656e+01
3.095604e+02	-2.809484e+01
3.113484e+02	-2.814197e+01
3.131467e+02	-2.819172e+01
3.149554e+02	-2.824292e+01
3.167746e+02	-2.829499e+01
3.186043e+02	-2.834402e+01
3.204445e+02	-2.839272e+01
3.222954e+02	-2.844082e+01
3.241570e+02	-2.849963e+01
3.260293e+02	-2.854758e+01
3.279124e+02	-2.859643e+01
3.298064e+02	-2.864791e+01
3.317114e+02	-2.869353e+01
3.336273e+02	-2.874560e+01
3.355544e+02	-2.879605e+01
3.374925e+02	-2.884716e+01
3.394418e+02	-2.889942e+01
3.414024e+02	-2.894635e+01
3.433744e+02	-2.899430e+01
3.453577e+02	-2.904547e+01
3.473525e+02	-2.909710e+01
3.493588e+02	-2.914277e+01
3.513766e+02	-2.919762e+01
3.534062e+02	-2.924350e+01
3.554474e+02	-2.929592e+01
3.575005e+02	-2.934663e+01
3.595654e+02	-2.939387e+01
3.616422e+02	-2.944544e+01
3.637311e+02	-2.949435e+01
3.658320e+02	-2.954938e+01
3.679450e+02	-2.959482e+01
3.700702e+02	-2.964949e+01
3.722077e+02	-2.969979e+01
3.743576e+02	-2.974197e+01
3.765199e+02	-2.979959e+01
3.786946e+02	-2.984518e+01
3.808820e+02	-2.989774e+01
3.830819e+02	-2.994830e+01
3.852946e+02	-2.999874e+01
3.875200e+02	-3.004423e+01
3.897583e+02	-3.009986e+01
3.920096e+02	-3.014828e+01
3.942738e+02	-3.019355e+01
3.965511e+02	-3.024838e+01
3.988416e+02	-3.029570e+01
4.011452e+02	-3.034435e+01
4.034622e+02	-3.039000e+01
4.057926e+02	-3.044720e+01
4.081365e+02	-3.050146e+01
4.104938e+02	-3.054907e+01
4.128648e+02	-3.059507e+01
4.152495e+02	-3.064510e+01
4.176480e+02	-3.070152e+01
4.200603e+02	-3.075154e+01
4.224866e+02	-3.079217e+01
4.249268e+02	-3.085005e+01
4.273812e+02	-3.090091e+01
4.298497e+02	-3.095248e+01
4.323325e+02	-3.099562e+01
4.348297e+02	-3.104521e+01
4.373412e+02	-3.109832e+01
4.398673e+02	-3.114385e+01
4.424079e+02	-3.119342e+01
4.449633e+02	-3.124619e+01
4.475334e+02	-3.130157e+01
4.501183e+02	-3.135579e+01
4.527182e+02	-3.140314e+01
4.553330e+02	-3.145311e+01
4.579630e+02	-3.149631e+01
4.606082e+02	-3.154565e+01
4.632687e+02	-3.160168e+01
4.659445e+02	-3.165346e+01
4.686358e+02	-3.169566e+01
4.713426e+02	-3.175211e+01
4.740650e+02	-3.179559e+01
4.768032e+02	-3.184521e+01
4.795572e+02	-3.189946e+01
4.823271e+02	-3.195381e+01
4.851130e+02	-3.200109e+01
4.879150e+02	-3.204839e+01
4.907332e+02	-3.210356e+01
4.935676e+02	-3.215240e+01
4.964185e+02	-3.220193e+01
4.992858e+02	-3.225181e+01
5.021696e+02	-3.230434e+01
5.050701e+02	-3.234761e+01
5.079874e+02	-3.240329e+01
5.109215e+02	-3.245652e+01
5.138726e+02	-3.250298e+01
5.168407e+02	-3.254994e+01
5.198259e+02	-3.260393e+01
5.228284e+02	-3.265632e+01
5.258482e+02	-3.270673e+01
5.288855e+02	-3.274754e+01
5.319403e+02	-3.280531e+01
5.350128e+02	-3.285812e+01
5.381030e+02	-3.290154e+01
5.412111e+02	-3.295678e+01
5.443371e+02	-3.300761e+01
5.474812e+02	-3.305373e+01
5.506434e+02	-3.310272e+01
5.538239e+02	-3.315532e+01
5.570228e+02	-3.320153e+01
5.602401e+02	-3.324809e+01
5.634760e+02	-3.330845e+01
5.667306e+02	-3.336073e+01
5.700040e+02	-3.339685e+01
5.732964e+02	-3.346291e+01
5.766077e+02	-3.351211e+01
5.799382e+02	-3.355923e+01
5.832879e+02	-3.360566e+01
5.866569e+02	-3.365335e+01
5.900454e+02	-3.371109e+01
5.934535e+02	-3.376408e+01
5.968813e+02	-3.381242e+01
6.003288e+02	-3.386094e+01
6.037963e+02	-3.390701e+01
6.072838e+02	-3.396631e+01
6.107914e+02	-3.401042e+01
6.143194e+02	-3.406315e+01
6.178676e+02	-3.411673e+01
6.214364e+02	-3.416419e+01
6.250258e+02	-3.420865e+01
6.286359e+02	-3.426150e+01
6.322669e+02	-3.431874e+01
6.359189e+02	-3.436628e+01
6.395919e+02	-3.441015e+01
6.432862e+02	-3.446314e+01
6.470017e+02	-3.450647e+01
6.507388e+02	-3.456124e+01
6.544974e+02	-3.461221e+01
6.582778e+02	-3.466675e+01
6.620800e+02	-3.472078e+01
6.659041e+02	-3.476427e+01
6.697504e+02	-3.482296e+01
6.736188e+02	-3.486271e+01
6.775096e+02	-3.491677e+01
6.814229e+02	-3.497141e+01
6.853587e+02	-3.501709e+01
6.893173e+02	-3.507017e+01
6.932988e+02	-3.511535e+01
6.973033e+02	-3.515902e+01
7.013309e+02	-3.521424e+01
