Frequency(Hz)	Magnitude(dB)
1.000000e+01	-2.230745e+00
1.005776e+01	-2.250946e+00
1.011585e+01	-2.271172e+00
1.017428e+01	-2.291577e+00
1.023305e+01	-2.312188e+00
1.029215e+01	-2.332836e+00
1.035160e+01	-2.353748e+00
1.041139e+01	-2.374907e+00
1.047153e+01	-2.395842e+00
1.053201e+01	-2.417226e+00
1.059284e+01	-2.438582e+00
1.065403e+01	-2.460257e+00
1.071556e+01	-2.481825e+00
1.077746e+01	-2.503620e+00
1.083971e+01	-2.525486e+00
1.090232e+01	-2.547756e+00
1.096529e+01	-2.570077e+00
1.102862e+01	-2.592542e+00
1.109232e+01	-2.615037e+00
1.115639e+01	-2.637817e+00
1.122083e+01	-2.660510e+00
1.128564e+01	-2.683629e+00
1.135083e+01	-2.706701e+00
1.141639e+01	-2.729864e+00
1.148233e+01	-2.753504e+00
1.154865e+01	-2.776898e+00
1.161536e+01	-2.800929e+00
1.168245e+01	-2.824367e+00
1.174992e+01	-2.848506e+00
1.181779e+01	-2.872613e+00
1.188605e+01	-2.896989e+00
1.195470e+01	-2.921297e+00
1.202375e+01	-2.945998e+00
1.209320e+01	-2.970573e+00
1.216305e+01	-2.995507e+00
1.223330e+01	-3.020844e+00
1.230396e+01	-3.045740e+00
1.237503e+01	-3.070880e+00
1.244651e+01	-3.096451e+00
1.251840e+01	-3.121788e+00
1.259070e+01	-3.147606e+00
1.266343e+01	-3.173663e+00
1.273657e+01	-3.199420e+00
1.281014e+01	-3.225685e+00
1.288413e+01	-3.252072e+00
1.295855e+01	-3.278576e+00
1.303339e+01	-3.305105e+00
1.310867e+01	-3.331713e+00
1.318439e+01	-3.358656e+00
1.326054e+01	-3.385807e+00
1.333713e+01	-3.412784e+00
1.341417e+01	-3.440232e+00
1.349165e+01	-3.467519e+00
1.356958e+01	-3.495051e+00
1.364795e+01	-3.522757e+00
1.372678e+01	-3.550543e+00
1.380607e+01	-3.578562e+00
1.388581e+01	-3.606895e+00
1.396602e+01	-3.635163e+00
1.404668e+01	-3.663718e+00
1.412782e+01	-3.692013e+00
1.420942e+01	-3.720801e+00
1.429149e+01	-3.749666e+00
1.437404e+01	-3.778873e+00
1.445706e+01	-3.807996e+00
1.454057e+01	-3.837177e+00
1.462455e+01	-3.866523e+00
1.470902e+01	-3.896236e+00
1.479398e+01	-3.926020e+00
1.487943e+01	-3.955506e+00
1.496537e+01	-3.985658e+00
1.505181e+01	-4.015856e+00
1.513875e+01	-4.045964e+00
1.522619e+01	-4.076288e+00
1.531414e+01	-4.106875e+00
1.540259e+01	-4.137646e+00
1.549156e+01	-4.168301e+00
1.558103e+01	-4.199153e+00
1.567103e+01	-4.230516e+00
1.576155e+01	-4.261694e+00
1.585258e+01	-4.292881e+00
1.594415e+01	-4.324546e+00
1.603624e+01	-4.356104e+00
1.612886e+01	-4.387531e+00
1.622202e+01	-4.419573e+00
1.631572e+01	-4.451744e+00
1.640996e+01	-4.483705e+00
1.650474e+01	-4.515977e+00
1.660008e+01	-4.548383e+00
1.669596e+01	-4.581149e+00
1.679239e+01	-4.613672e+00
1.688938e+01	-4.646571e+00
1.698694e+01	-4.679350e+00
1.708505e+01	-4.712474e+00
1.718373e+01	-4.745456e+00
1.728299e+01	-4.778858e+00
1.738281e+01	-4.812375e+00
1.748322e+01	-4.845902e+00
1.758420e+01	-4.879394e+00
1.768576e+01	-4.913847e+00
1.778792e+01	-4.947227e+00
1.789066e+01	-4.981512e+00
1.799399e+01	-5.015762e+00
1.809793e+01	-5.050046e+00
1.820246e+01	-5.084561e+00
1.830760e+01	-5.119228e+00
1.841334e+01	-5.153796e+00
1.851969e+01	-5.188556e+00
1.862666e+01	-5.223692e+00
1.873425e+01	-5.258763e+00
1.884246e+01	-5.293758e+00
1.895129e+01	-5.328797e+00
1.906075e+01	-5.364518e+00
1.917085e+01	-5.399839e+00
1.928158e+01	-5.435623e+00
1.939295e+01	-5.471472e+00
1.950496e+01	-5.507379e+00
1.961762e+01	-5.543491e+00
1.973093e+01	-5.579780e+00
1.984490e+01	-5.615839e+00
1.995952e+01	-5.652229e+00
2.007480e+01	-5.688449e+00
2.019076e+01	-5.725192e+00
2.030738e+01	-5.761842e+00
2.042467e+01	-5.798524e+00
2.054264e+01	-5.835529e+00
2.066130e+01	-5.872703e+00
2.078064e+01	-5.910006e+00
2.090066e+01	-5.947108e+00
2.102139e+01	-5.984406e+00
2.114280e+01	-6.021838e+00
2.126492e+01	-6.059388e+00
2.138775e+01	-6.097068e+00
2.151128e+01	-6.135124e+00
2.163553e+01	-6.172904e+00
2.176050e+01	-6.210913e+00
2.188619e+01	-6.248634e+00
2.201260e+01	-6.286867e+00
2.213974e+01	-6.325076e+00
2.226762e+01	-6.363833e+00
2.239624e+01	-6.402367e+00
2.252560e+01	-6.440968e+00
2.265571e+01	-6.479530e+00
2.278656e+01	-6.518201e+00
2.291818e+01	-6.557742e+00
2.305055e+01	-6.596597e+00
2.318369e+01	-6.635998e+00
2.331760e+01	-6.675126e+00
2.345228e+01	-6.714042e+00
2.358774e+01	-6.753384e+00
2.372398e+01	-6.793032e+00
2.386101e+01	-6.832415e+00
2.399883e+01	-6.872454e+00
2.413745e+01	-6.911792e+00
2.427686e+01	-6.952035e+00
2.441709e+01	-6.992091e+00
2.455812e+01	-7.032145e+00
2.469997e+01	-7.072149e+00
2.484263e+01	-7.112541e+00
2.498612e+01	-7.152650e+00
2.513044e+01	-7.193327e+00
2.527559e+01	-7.233729e+00
2.542158e+01	-7.274166e+00
2.556842e+01	-7.315276e+00
2.571610e+01	-7.355396e+00
2.586463e+01	-7.396640e+00
2.601403e+01	-7.437750e+00
2.616428e+01	-7.478947e+00
2.631541e+01	-7.519566e+00
2.646740e+01	-7.560743e+00
2.662028e+01	-7.602229e+00
2.677404e+01	-7.643849e+00
2.692868e+01	-7.685294e+00
2.708422e+01	-7.726684e+00
2.724066e+01	-7.768097e+00
2.739800e+01	-7.810209e+00
2.755625e+01	-7.852298e+00
2.771541e+01	-7.893577e+00
2.787550e+01	-7.935886e+00
2.803650e+01	-7.977860e+00
2.819844e+01	-8.019378e+00
2.836131e+01	-8.061489e+00
2.852513e+01	-8.103977e+00
2.868989e+01	-8.146403e+00
2.885560e+01	-8.188918e+00
2.902227e+01	-8.231384e+00
2.918990e+01	-8.273933e+00
2.935850e+01	-8.316760e+00
2.952807e+01	-8.359477e+00
2.969863e+01	-8.401645e+00
2.987016e+01	-8.444744e+00
3.004269e+01	-8.487312e+00
3.021622e+01	-8.530534e+00
3.039075e+01	-8.573400e+00
3.056628e+01	-8.616520e+00
3.074283e+01	-8.660310e+00
3.092040e+01	-8.703490e+00
3.109900e+01	-8.747002e+00
3.127862e+01	-8.789726e+00
3.145929e+01	-8.833787e+00
3.164099e+01	-8.877206e+00
3.182375e+01	-8.920520e+00
3.200756e+01	-8.964319e+00
3.219244e+01	-9.007956e+00
3.237838e+01	-9.051644e+00
3.256540e+01	-9.095219e+00
3.275349e+01	-9.139619e+00
3.294268e+01	-9.182922e+00
3.313295e+01	-9.226974e+00
3.332433e+01	-9.271108e+00
3.351681e+01	-9.315682e+00
3.371040e+01	-9.360119e+00
3.390511e+01	-9.404075e+00
3.410094e+01	-9.448261e+00
3.429791e+01	-9.492616e+00
3.449601e+01	-9.537100e+00
3.469526e+01	-9.581569e+00
3.489566e+01	-9.626339e+00
3.509721e+01	-9.670621e+00
3.529993e+01	-9.715562e+00
3.550382e+01	-9.760471e+00
3.570889e+01	-9.805349e+00
3.591515e+01	-9.850131e+00
3.612259e+01	-9.894222e+00
3.633123e+01	-9.939879e+00
3.654108e+01	-9.985071e+00
3.675214e+01	-1.003003e+01
3.696442e+01	-1.007396e+01
3.717792e+01	-1.011960e+01
3.739266e+01	-1.016455e+01
3.760864e+01	-1.020982e+01
3.782587e+01	-1.025508e+01
3.804435e+01	-1.030142e+01
3.826409e+01	-1.034583e+01
3.848510e+01	-1.039185e+01
3.870739e+01	-1.043709e+01
3.893096e+01	-1.048251e+01
3.915583e+01	-1.052815e+01
3.938199e+01	-1.057416e+01
3.960946e+01	-1.061953e+01
3.983824e+01	-1.066523e+01
4.006834e+01	-1.071091e+01
4.029978e+01	-1.075670e+01
4.053255e+01	-1.080240e+01
4.076666e+01	-1.084865e+01
4.100213e+01	-1.089399e+01
4.123896e+01	-1.094008e+01
4.147715e+01	-1.098660e+01
4.171672e+01	-1.103286e+01
4.195767e+01	-1.107863e+01
4.220002e+01	-1.112501e+01
4.244377e+01	-1.117108e+01
4.268892e+01	-1.121756e+01
4.293549e+01	-1.126313e+01
4.318348e+01	-1.130967e+01
4.343291e+01	-1.135642e+01
4.368377e+01	-1.140295e+01
4.393609e+01	-1.144878e+01
4.418986e+01	-1.149521e+01
4.444510e+01	-1.154160e+01
4.470182e+01	-1.158843e+01
4.496001e+01	-1.163540e+01
4.521970e+01	-1.168168e+01
4.548089e+01	-1.172775e+01
4.574358e+01	-1.177495e+01
4.600779e+01	-1.182127e+01
4.627353e+01	-1.186827e+01
4.654081e+01	-1.191533e+01
4.680963e+01	-1.196208e+01
4.708000e+01	-1.200950e+01
4.735193e+01	-1.205525e+01
4.762543e+01	-1.210250e+01
4.790051e+01	-1.215000e+01
4.817719e+01	-1.219672e+01
4.845545e+01	-1.224373e+01
4.873533e+01	-1.229110e+01
4.901682e+01	-1.233834e+01
4.929994e+01	-1.238511e+01
4.958470e+01	-1.243166e+01
4.987110e+01	-1.247895e+01
5.015915e+01	-1.252627e+01
5.044887e+01	-1.257336e+01
5.074026e+01	-1.262127e+01
5.103333e+01	-1.266870e+01
5.132810e+01	-1.271617e+01
5.162457e+01	-1.276258e+01
5.192275e+01	-1.280996e+01
5.222265e+01	-1.285780e+01
5.252429e+01	-1.290512e+01
5.282767e+01	-1.295224e+01
5.313280e+01	-1.300010e+01
5.343969e+01	-1.304798e+01
5.374836e+01	-1.309603e+01
5.405880e+01	-1.314289e+01
5.437105e+01	-1.319025e+01
5.468509e+01	-1.323754e+01
5.500095e+01	-1.328596e+01
5.531863e+01	-1.333294e+01
5.563815e+01	-1.338139e+01
5.595951e+01	-1.342912e+01
5.628273e+01	-1.347675e+01
5.660782e+01	-1.352463e+01
5.693479e+01	-1.357315e+01
5.726364e+01	-1.362061e+01
5.759439e+01	-1.366897e+01
5.792705e+01	-1.371613e+01
5.826164e+01	-1.376412e+01
5.859815e+01	-1.381211e+01
5.893662e+01	-1.386008e+01
5.927703e+01	-1.390784e+01
5.961941e+01	-1.395602e+01
5.996377e+01	-1.400371e+01
6.031012e+01	-1.405168e+01
6.065847e+01	-1.409980e+01
6.100883e+01	-1.414735e+01
6.136121e+01	-1.419673e+01
6.171563e+01	-1.424426e+01
6.207210e+01	-1.429321e+01
6.243063e+01	-1.434095e+01
6.279122e+01	-1.438857e+01
6.315390e+01	-1.443733e+01
6.351868e+01	-1.448464e+01
6.388556e+01	-1.453424e+01
6.425456e+01	-1.458223e+01
6.462569e+01	-1.463017e+01
6.499897e+01	-1.467813e+01
6.537440e+01	-1.472699e+01
6.575200e+01	-1.477463e+01
6.613178e+01	-1.482448e+01
6.651375e+01	-1.487215e+01
6.689793e+01	-1.492104e+01
6.728433e+01	-1.496927e+01
6.767297e+01	-1.501764e+01
6.806384e+01	-1.506616e+01
6.845698e+01	-1.511375e+01
6.885238e+01	-1.516321e+01
6.925007e+01	-1.521111e+01
6.965005e+01	-1.525966e+01
7.005235e+01	-1.530913e+01
7.045697e+01	-1.535793e+01
7.086393e+01	-1.540593e+01
7.127323e+01	-1.545334e+01
7.168490e+01	-1.550358e+01
7.209895e+01	-1.555056e+01
7.251539e+01	-1.560060e+01
7.293424e+01	-1.564801e+01
7.335551e+01	-1.569744e+01
7.377920e+01	-1.574486e+01
7.420535e+01	-1.579404e+01
7.463396e+01	-1.584251e+01
7.506504e+01	-1.589236e+01
7.549861e+01	-1.594045e+01
7.593469e+01	-1.598948e+01
7.637328e+01	-1.603849e+01
7.681441e+01	-1.608740e+01
7.725809e+01	-1.613493e+01
7.770433e+01	-1.618592e+01
7.815315e+01	-1.623384e+01
7.860456e+01	-1.628201e+01
7.905857e+01	-1.633074e+01
7.951521e+01	-1.637960e+01
7.997449e+01	-1.642941e+01
8.043642e+01	-1.647891e+01
8.090102e+01	-1.652653e+01
8.136830e+01	-1.657622e+01
8.183828e+01	-1.662476e+01
8.231097e+01	-1.667297e+01
8.278640e+01	-1.672300e+01
8.326457e+01	-1.677179e+01
8.374550e+01	-1.682103e+01
8.422921e+01	-1.686930e+01
8.471572e+01	-1.691945e+01
8.520503e+01	-1.696781e+01
8.569717e+01	-1.701588e+01
8.619215e+01	-1.706596e+01
8.669000e+01	-1.711449e+01
8.719071e+01	-1.716321e+01
8.769432e+01	-1.721352e+01
8.820084e+01	-1.726192e+01
8.871029e+01	-1.731125e+01
8.922267e+01	-1.735997e+01
8.973802e+01	-1.740786e+01
9.025634e+01	-1.745898e+01
9.077766e+01	-1.750708e+01
9.130199e+01	-1.755736e+01
9.182935e+01	-1.760658e+01
9.235975e+01	-1.765465e+01
9.289321e+01	-1.770389e+01
9.342976e+01	-1.775324e+01
9.396941e+01	-1.780187e+01
9.451217e+01	-1.785204e+01
9.505807e+01	-1.790157e+01
9.560712e+01	-1.795113e+01
9.615934e+01	-1.800024e+01
9.671476e+01	-1.804926e+01
9.727338e+01	-1.809875e+01
9.783522e+01	-1.814698e+01
9.840032e+01	-1.819679e+01
9.896867e+01	-1.824591e+01
9.954031e+01	-1.829463e+01
1.001153e+02	-1.834433e+01
1.006935e+02	-1.839436e+01
1.012751e+02	-1.844246e+01
1.018601e+02	-1.849316e+01
1.024484e+02	-1.854133e+01
1.030402e+02	-1.858969e+01
1.036353e+02	-1.864123e+01
1.042339e+02	-1.869049e+01
1.048360e+02	-1.873860e+01
1.054415e+02	-1.878761e+01
1.060505e+02	-1.883718e+01
1.066631e+02	-1.888902e+01
1.072791e+02	-1.893773e+01
1.078988e+02	-1.898499e+01
1.085220e+02	-1.903460e+01
1.091488e+02	-1.908440e+01
1.097793e+02	-1.913255e+01
1.104133e+02	-1.918298e+01
1.110511e+02	-1.923180e+01
1.116925e+02	-1.928227e+01
1.123376e+02	-1.933198e+01
1.129865e+02	-1.938139e+01
1.136391e+02	-1.943134e+01
1.142955e+02	-1.948164e+01
1.149556e+02	-1.952988e+01
1.156196e+02	-1.958094e+01
1.162874e+02	-1.962905e+01
1.169591e+02	-1.967936e+01
1.176347e+02	-1.972727e+01
1.183141e+02	-1.977801e+01
1.189975e+02	-1.982672e+01
1.196848e+02	-1.987524e+01
1.203761e+02	-1.992604e+01
1.210714e+02	-1.997369e+01
1.217707e+02	-2.002257e+01
1.224740e+02	-2.007530e+01
1.231814e+02	-2.012259e+01
1.238929e+02	-2.017370e+01
1.246085e+02	-2.022325e+01
1.253283e+02	-2.027420e+01
1.260522e+02	-2.032080e+01
1.267802e+02	-2.037288e+01
1.275125e+02	-2.042208e+01
1.282490e+02	-2.047126e+01
1.289898e+02	-2.052005e+01
1.297348e+02	-2.057187e+01
1.304842e+02	-2.061991e+01
1.312378e+02	-2.066877e+01
1.319959e+02	-2.071799e+01
1.327583e+02	-2.076917e+01
1.335251e+02	-2.081899e+01
1.342963e+02	-2.086795e+01
1.350720e+02	-2.091586e+01
1.358522e+02	-2.096636e+01
1.366368e+02	-2.101748e+01
1.374260e+02	-2.106517e+01
1.382198e+02	-2.111555e+01
1.390182e+02	-2.116451e+01
1.398211e+02	-2.121582e+01
1.406287e+02	-2.126493e+01
1.414410e+02	-2.131293e+01
1.422579e+02	-2.136472e+01
1.430796e+02	-2.141564e+01
1.439060e+02	-2.146420e+01
1.447372e+02	-2.150978e+01
1.455732e+02	-2.156381e+01
1.464141e+02	-2.161552e+01
1.472597e+02	-2.166161e+01
1.481103e+02	-2.171146e+01
1.489658e+02	-2.175958e+01
1.498262e+02	-2.181000e+01
1.506916e+02	-2.186064e+01
1.515620e+02	-2.191199e+01
1.524374e+02	-2.196167e+01
1.533179e+02	-2.201065e+01
1.542034e+02	-2.206021e+01
1.550941e+02	-2.210849e+01
1.559899e+02	-2.215875e+01
1.568909e+02	-2.220941e+01
1.577971e+02	-2.225980e+01
1.587085e+02	-2.230812e+01
1.596252e+02	-2.235712e+01
1.605472e+02	-2.240856e+01
1.614745e+02	-2.245795e+01
1.624072e+02	-2.250803e+01
1.633453e+02	-2.255826e+01
1.642887e+02	-2.260874e+01
1.652377e+02	-2.265830e+01
1.661921e+02	-2.270629e+01
1.671520e+02	-2.275782e+01
1.681175e+02	-2.280614e+01
1.690885e+02	-2.285715e+01
1.700651e+02	-2.290449e+01
1.710474e+02	-2.295678e+01
1.720354e+02	-2.300338e+01
1.730291e+02	-2.305611e+01
1.740285e+02	-2.310456e+01
1.750337e+02	-2.315455e+01
1.760446e+02	-2.320406e+01
1.770615e+02	-2.325540e+01
1.780842e+02	-2.330460e+01
1.791128e+02	-2.335314e+01
1.801473e+02	-2.340414e+01
1.811878e+02	-2.345464e+01
1.822344e+02	-2.350449e+01
1.832870e+02	-2.355318e+01
1.843456e+02	-2.360122e+01
1.854104e+02	-2.365333e+01
1.864813e+02	-2.370364e+01
1.875584e+02	-2.375027e+01
1.886418e+02	-2.380094e+01
1.897313e+02	-2.385231e+01
1.908272e+02	-2.390335e+01
1.919294e+02	-2.395409e+01
1.930380e+02	-2.400320e+01
1.941530e+02	-2.405140e+01
1.952744e+02	-2.410209e+01
1.964023e+02	-2.415041e+01
1.975367e+02	-2.420405e+01
1.986777e+02	-2.425138e+01
1.998252e+02	-2.430115e+01
2.009794e+02	-2.435283e+01
2.021403e+02	-2.440027e+01
2.033078e+02	-2.444909e+01
2.044821e+02	-2.450092e+01
2.056632e+02	-2.455125e+01
2.068511e+02	-2.459875e+01
2.080459e+02	-2.465226e+01
2.092475e+02	-2.470083e+01
2.104561e+02	-2.475061e+01
2.116717e+02	-2.479721e+01
2.128943e+02	-2.484799e+01
2.141240e+02	-2.489693e+01
2.153608e+02	-2.494934e+01
2.166047e+02	-2.500011e+01
2.178558e+02	-2.504833e+01
2.191141e+02	-2.510105e+01
2.203797e+02	-2.515024e+01
2.216526e+02	-2.519917e+01
2.229329e+02	-2.524949e+01
2.242205e+02	-2.529883e+01
2.255156e+02	-2.534897e+01
2.268182e+02	-2.539994e+01
2.281283e+02	-2.545087e+01
2.294459e+02	-2.549635e+01
2.307712e+02	-2.554884e+01
2.321041e+02	-2.559944e+01
2.334447e+02	-2.564730e+01
2.347931e+02	-2.569979e+01
2.361493e+02	-2.575102e+01
2.375133e+02	-2.579782e+01
2.388851e+02	-2.584771e+01
2.402649e+02	-2.590105e+01
2.416527e+02	-2.594775e+01
2.430484e+02	-2.599603e+01
2.444523e+02	-2.604834e+01
2.458642e+02	-2.609860e+01
2.472843e+02	-2.615100e+01
2.487126e+02	-2.619738e+01
2.501492e+02	-2.624585e+01
2.515940e+02	-2.629993e+01
2.530472e+02	-2.634799e+01
2.545088e+02	-2.639443e+01
2.559789e+02	-2.644681e+01
2.574574e+02	-2.649776e+01
2.589444e+02	-2.654661e+01
2.604401e+02	-2.659756e+01
2.619444e+02	-2.664759e+01
2.634574e+02	-2.670043e+01
2.649791e+02	-2.674842e+01
2.665096e+02	-2.679973e+01
2.680489e+02	-2.684523e+01
2.695972e+02	-2.689709e+01
2.711544e+02	-2.694683e+01
2.727205e+02	-2.699759e+01
2.742958e+02	-2.704911e+01
2.758801e+02	-2.709939e+01
2.774736e+02	-2.714679e+01
2.790762e+02	-2.719646e+01
2.806882e+02	-2.724496e+01
2.823094e+02	-2.729462e+01
2.839400e+02	-2.734997e+01
2.855800e+02	-2.739713e+01
2.872295e+02	-2.744779e+01
2.888886e+02	-2.749688e+01
2.905572e+02	-2.754679e+01
2.922354e+02	-2.759970e+01
2.939234e+02	-2.764251e+01
2.956211e+02	-2.770084e+01
2.973286e+02	-2.774953e+01
2.990459e+02	-2.779447e+01
3.007732e+02	-2.784848e+01
3.025104e+02	-2.789778e+01
3.042577e+02	-2.794755e+01
3.060151e+02	-2.799928e+01
3.077826e+02	-2.804722e+01
3.095604e+02	-2.809580e+01
3.113484e+02	-2.814612e+01
3.131467e+02	-2.819728e+01
3.149554e+02	-2.824568e+01
3.167746e+02	-2.829765e+01
3.186043e+02	-2.834681e+01
3.204445e+02	-2.839442e+01
3.222954e+02	-2.844788e+01
3.241570e+02	-2.849739e+01
3.260293e+02	-2.854863e+01
3.279124e+02	-2.859842e+01
3.298064e+02	-2.864453e+01
3.317114e+02	-2.869685e+01
3.336273e+02	-2.874447e+01
3.355544e+02	-2.879773e+01
3.374925e+02	-2.885077e+01
3.394418e+02	-2.889784e+01
3.414024e+02	-2.894405e+01
3.433744e+02	-2.900030e+01
3.453577e+02	-2.904890e+01
3.473525e+02	-2.909332e+01
3.493588e+02	-2.914932e+01
3.513766e+02	-2.919646e+01
3.534062e+02	-2.924801e+01
3.554474e+02	-2.930035e+01
3.575005e+02	-2.934541e+01
3.595654e+02	-2.940068e+01
3.616422e+02	-2.944814e+01
3.637311e+02	-2.949682e+01
3.658320e+02	-2.955067e+01
3.679450e+02	-2.959735e+01
3.700702e+02	-2.965317e+01
3.722077e+02	-2.969503e+01
3.743576e+02	-2.975088e+01
3.765199e+02	-2.980191e+01
3.786946e+02	-2.984785e+01
3.808820e+02	-2.990010e+01
3.830819e+02	-2.994675e+01
3.852946e+02	-2.999747e+01
3.875200e+02	-3.004712e+01
3.897583e+02	-3.010130e+01
3.920096e+02	-3.014483e+01
3.942738e+02	-3.019848e+01
3.965511e+02	-3.024574e+01
3.988416e+02	-3.029901e+01
4.011452e+02	-3.034868e+01
4.034622e+02	-3.040329e+01
4.057926e+02	-3.045579e+01
4.081365e+02	-3.050145e+01
4.104938e+02	-3.054613e+01
4.128648e+02	-3.060396e+01
4.152495e+02	-3.064628e+01
4.176480e+02	-3.069382e+01
4.200603e+02	-3.074695e+01
4.224866e+02	-3.079613e+01
4.249268e+02	-3.085036e+01
4.273812e+02	-3.090175e+01
4.298497e+02	-3.095218e+01
4.323325e+02	-3.099671e+01
4.348297e+02	-3.105143e+01
4.373412e+02	-3.109912e+01
4.398673e+02	-3.114482e+01
4.424079e+02	-3.120331e+01
4.449633e+02	-3.124649e+01
4.475334e+02	-3.130180e+01
4.501183e+02	-3.135078e+01
4.527182e+02	-3.140456e+01
4.553330e+02	-3.144899e+01
4.579630e+02	-3.150411e+01
4.606082e+02	-3.155674e+01
4.632687e+02	-3.160170e+01
4.659445e+02	-3.165198e+01
4.686358e+02	-3.169937e+01
4.713426e+02	-3.175850e+01
4.740650e+02	-3.180120e+01
4.768032e+02	-3.185523e+01
4.795572e+02	-3.190669e+01
4.823271e+02	-3.195123e+01
4.851130e+02	-3.200273e+01
4.879150e+02	-3.205742e+01
4.907332e+02	-3.209983e+01
4.935676e+02	-3.215627e+01
4.964185e+02	-3.220241e+01
4.992858e+02	-3.225716e+01
5.021696e+02	-3.230440e+01
5.050701e+02	-3.234575e+01
5.079874e+02	-3.240037e+01
5.109215e+02	-3.245927e+01
5.138726e+02	-3.250594e+01
5.168407e+02	-3.255665e+01
5.198259e+02	-3.260265e+01
5.228284e+02	-3.265792e+01
5.258482e+02	-3.270562e+01
5.288855e+02	-3.275823e+01
5.319403e+02	-3.280964e+01
5.350128e+02	-3.285407e+01
5.381030e+02	-3.290624e+01
5.412111e+02	-3.295436e+01
5.443371e+02	-3.301032e+01
5.474812e+02	-3.306159e+01
5.506434e+02	-3.311207e+01
5.538239e+02	-3.316002e+01
5.570228e+02	-3.320597e+01
5.602401e+02	-3.326080e+01
5.634760e+02	-3.330645e+01
5.667306e+02	-3.336452e+01
5.700040e+02	-3.341086e+01
5.732964e+02	-3.346389e+01
5.766077e+02	-3.350898e+01
5.799382e+02	-3.356297e+01
5.832879e+02	-3.361665e+01
5.866569e+02	-3.366710e+01
5.900454e+02	-3.370215e+01
5.934535e+02	-3.376302e+01
5.968813e+02	-3.382233e+01
6.003288e+02	-3.386122e+01
6.037963e+02	-3.391173e+01
6.072838e+02	-3.396527e+01
6.107914e+02	-3.401781e+01
6.143194e+02	-3.406099e+01
6.178676e+02	-3.411204e+01
6.214364e+02	-3.417351e+01
6.250258e+02	-3.420616e+01
6.286359e+02	-3.426159e+01
6.322669e+02	-3.431552e+01
6.359189e+02	-3.437086e+01
6.395919e+02	-3.441146e+01
6.432862e+02	-3.446420e+01
6.470017e+02	-3.451721e+01
6.507388e+02	-3.456118e+01
6.544974e+02	-3.461469e+01
6.582778e+02	-3.467314e+01
6.620800e+02	-3.472045e+01
6.659041e+02	-3.475942e+01
6.697504e+02	-3.481643e+01
6.736188e+02	-3.487693e+01
6.775096e+02	-3.490709e+01
6.814229e+02	-3.496114e+01
6.853587e+02	-3.502173e+01
6.893173e+02	-3.507096e+01
6.932988e+02	-3.512218e+01
6.973033e+02	-3.517361e+01
7.013309e+02	-3.521713e+01
