Frequency(Hz)	Magnitude(dB)
1.000000e+01	-2.171890e+00
1.005776e+01	-2.191613e+00
1.011585e+01	-2.211406e+00
1.017428e+01	-2.231345e+00
1.023305e+01	-2.251609e+00
1.029215e+01	-2.271882e+00
1.035160e+01	-2.292421e+00
1.041139e+01	-2.312883e+00
1.047153e+01	-2.333729e+00
1.053201e+01	-2.354400e+00
1.059284e+01	-2.375390e+00
1.065403e+01	-2.396741e+00
1.071556e+01	-2.418094e+00
1.077746e+01	-2.439411e+00
1.083971e+01	-2.460824e+00
1.090232e+01	-2.482800e+00
1.096529e+01	-2.504357e+00
1.102862e+01	-2.526503e+00
1.109232e+01	-2.548682e+00
1.115639e+01	-2.570822e+00
1.122083e+01	-2.593378e+00
1.128564e+01	-2.615841e+00
1.135083e+01	-2.638640e+00
1.141639e+01	-2.661526e+00
1.148233e+01	-2.684676e+00
1.154865e+01	-2.707546e+00
1.161536e+01	-2.730965e+00
1.168245e+01	-2.754329e+00
1.174992e+01	-2.777890e+00
1.181779e+01	-2.801784e+00
1.188605e+01	-2.825360e+00
1.195470e+01	-2.849418e+00
1.202375e+01	-2.873581e+00
1.209320e+01	-2.897791e+00
1.216305e+01	-2.922269e+00
1.223330e+01	-2.946870e+00
1.230396e+01	-2.971724e+00
1.237503e+01	-2.996324e+00
1.244651e+01	-3.021460e+00
1.251840e+01	-3.046551e+00
1.259070e+01	-3.072022e+00
1.266343e+01	-3.097047e+00
1.273657e+01	-3.122867e+00
1.281014e+01	-3.148319e+00
1.288413e+01	-3.174558e+00
1.295855e+01	-3.200422e+00
1.303339e+01	-3.226576e+00
1.310867e+01	-3.252933e+00
1.318439e+01	-3.279382e+00
1.326054e+01	-3.306151e+00
1.333713e+01	-3.332872e+00
1.341417e+01	-3.359786e+00
1.349165e+01	-3.386712e+00
1.356958e+01	-3.414010e+00
1.364795e+01	-3.441006e+00
1.372678e+01	-3.468403e+00
1.380607e+01	-3.496218e+00
1.388581e+01	-3.523770e+00
1.396602e+01	-3.551695e+00
1.404668e+01	-3.579940e+00
1.412782e+01	-3.607807e+00
1.420942e+01	-3.636111e+00
1.429149e+01	-3.664510e+00
1.437404e+01	-3.692992e+00
1.445706e+01	-3.722029e+00
1.454057e+01	-3.750677e+00
1.462455e+01	-3.779999e+00
1.470902e+01	-3.809086e+00
1.479398e+01	-3.838026e+00
1.487943e+01	-3.867698e+00
1.496537e+01	-3.897119e+00
1.505181e+01	-3.926768e+00
1.513875e+01	-3.956903e+00
1.522619e+01	-3.986924e+00
1.531414e+01	-4.016970e+00
1.540259e+01	-4.047159e+00
1.549156e+01	-4.077424e+00
1.558103e+01	-4.108119e+00
1.567103e+01	-4.138861e+00
1.576155e+01	-4.169424e+00
1.585258e+01	-4.200542e+00
1.594415e+01	-4.231471e+00
1.603624e+01	-4.262853e+00
1.612886e+01	-4.294138e+00
1.622202e+01	-4.325709e+00
1.631572e+01	-4.357355e+00
1.640996e+01	-4.389186e+00
1.650474e+01	-4.420937e+00
1.660008e+01	-4.452775e+00
1.669596e+01	-4.485173e+00
1.679239e+01	-4.517077e+00
1.688938e+01	-4.549509e+00
1.698694e+01	-4.582291e+00
1.708505e+01	-4.615080e+00
1.718373e+01	-4.647645e+00
1.728299e+01	-4.680693e+00
1.738281e+01	-4.713662e+00
1.748322e+01	-4.747038e+00
1.758420e+01	-4.780183e+00
1.768576e+01	-4.813633e+00
1.778792e+01	-4.847223e+00
1.789066e+01	-4.881037e+00
1.799399e+01	-4.914593e+00
1.809793e+01	-4.948779e+00
1.820246e+01	-4.982639e+00
1.830760e+01	-5.016812e+00
1.841334e+01	-5.051495e+00
1.851969e+01	-5.085772e+00
1.862666e+01	-5.120102e+00
1.873425e+01	-5.155160e+00
1.884246e+01	-5.189966e+00
1.895129e+01	-5.224976e+00
1.906075e+01	-5.259788e+00
1.917085e+01	-5.295250e+00
1.928158e+01	-5.330072e+00
1.939295e+01	-5.365498e+00
1.950496e+01	-5.401281e+00
1.961762e+01	-5.436886e+00
1.973093e+01	-5.472687e+00
1.984490e+01	-5.508812e+00
1.995952e+01	-5.544757e+00
2.007480e+01	-5.580886e+00
2.019076e+01	-5.617092e+00
2.030738e+01	-5.653254e+00
2.042467e+01	-5.689768e+00
2.054264e+01	-5.726375e+00
2.066130e+01	-5.763417e+00
2.078064e+01	-5.800038e+00
2.090066e+01	-5.837183e+00
2.102139e+01	-5.873990e+00
2.114280e+01	-5.911233e+00
2.126492e+01	-5.948750e+00
2.138775e+01	-5.985805e+00
2.151128e+01	-6.023450e+00
2.163553e+01	-6.060749e+00
2.176050e+01	-6.098566e+00
2.188619e+01	-6.136321e+00
2.201260e+01	-6.174234e+00
2.213974e+01	-6.212131e+00
2.226762e+01	-6.250397e+00
2.239624e+01	-6.288792e+00
2.252560e+01	-6.327006e+00
2.265571e+01	-6.364960e+00
2.278656e+01	-6.403721e+00
2.291818e+01	-6.442304e+00
2.305055e+01	-6.481308e+00
2.318369e+01	-6.520041e+00
2.331760e+01	-6.558801e+00
2.345228e+01	-6.597966e+00
2.358774e+01	-6.637277e+00
2.372398e+01	-6.676070e+00
2.386101e+01	-6.715472e+00
2.399883e+01	-6.755082e+00
2.413745e+01	-6.794615e+00
2.427686e+01	-6.834598e+00
2.441709e+01	-6.873635e+00
2.455812e+01	-6.913323e+00
2.469997e+01	-6.953618e+00
2.484263e+01	-6.993609e+00
2.498612e+01	-7.033450e+00
2.513044e+01	-7.073818e+00
2.527559e+01	-7.113992e+00
2.542158e+01	-7.154226e+00
2.556842e+01	-7.194591e+00
2.571610e+01	-7.235450e+00
2.586463e+01	-7.275777e+00
2.601403e+01	-7.316468e+00
2.616428e+01	-7.357340e+00
2.631541e+01	-7.398263e+00
2.646740e+01	-7.439222e+00
2.662028e+01	-7.480008e+00
2.677404e+01	-7.521278e+00
2.692868e+01	-7.562461e+00
2.708422e+01	-7.603993e+00
2.724066e+01	-7.645438e+00
2.739800e+01	-7.686537e+00
2.755625e+01	-7.728210e+00
2.771541e+01	-7.769873e+00
2.787550e+01	-7.811388e+00
2.803650e+01	-7.853203e+00
2.819844e+01	-7.895347e+00
2.836131e+01	-7.937330e+00
2.852513e+01	-7.979335e+00
2.868989e+01	-8.021034e+00
2.885560e+01	-8.063834e+00
2.902227e+01	-8.105633e+00
2.918990e+01	-8.148161e+00
2.935850e+01	-8.190297e+00
2.952807e+01	-8.232994e+00
2.969863e+01	-8.275640e+00
2.987016e+01	-8.318121e+00
3.004269e+01	-8.361074e+00
3.021622e+01	-8.403454e+00
3.039075e+01	-8.446021e+00
3.056628e+01	-8.489503e+00
3.074283e+01	-8.532238e+00
3.092040e+01	-8.575019e+00
3.109900e+01	-8.618224e+00
3.127862e+01	-8.661496e+00
3.145929e+01	-8.704902e+00
3.164099e+01	-8.748371e+00
3.182375e+01	-8.791537e+00
3.200756e+01	-8.834794e+00
3.219244e+01	-8.878624e+00
3.237838e+01	-8.921754e+00
3.256540e+01	-8.965422e+00
3.275349e+01	-9.009896e+00
3.294268e+01	-9.053272e+00
3.313295e+01	-9.096689e+00
3.332433e+01	-9.140475e+00
3.351681e+01	-9.185166e+00
3.371040e+01	-9.229323e+00
3.390511e+01	-9.273028e+00
3.410094e+01	-9.317387e+00
3.429791e+01	-9.361274e+00
3.449601e+01	-9.406233e+00
3.469526e+01	-9.449869e+00
3.489566e+01	-9.494345e+00
3.509721e+01	-9.538500e+00
3.529993e+01	-9.583369e+00
3.550382e+01	-9.627693e+00
3.570889e+01	-9.672809e+00
3.591515e+01	-9.716884e+00
3.612259e+01	-9.761797e+00
3.633123e+01	-9.806509e+00
3.654108e+01	-9.851688e+00
3.675214e+01	-9.896074e+00
3.696442e+01	-9.940990e+00
3.717792e+01	-9.986487e+00
3.739266e+01	-1.003092e+01
3.760864e+01	-1.007653e+01
3.782587e+01	-1.012117e+01
3.804435e+01	-1.016705e+01
3.826409e+01	-1.021161e+01
3.848510e+01	-1.025695e+01
3.870739e+01	-1.030248e+01
3.893096e+01	-1.034806e+01
3.915583e+01	-1.039305e+01
3.938199e+01	-1.043858e+01
3.960946e+01	-1.048444e+01
3.983824e+01	-1.052982e+01
4.006834e+01	-1.057560e+01
4.029978e+01	-1.062158e+01
4.053255e+01	-1.066701e+01
4.076666e+01	-1.071298e+01
4.100213e+01	-1.075920e+01
4.123896e+01	-1.080424e+01
4.147715e+01	-1.084994e+01
4.171672e+01	-1.089660e+01
4.195767e+01	-1.094243e+01
4.220002e+01	-1.098836e+01
4.244377e+01	-1.103467e+01
4.268892e+01	-1.108020e+01
4.293549e+01	-1.112685e+01
4.318348e+01	-1.117276e+01
4.343291e+01	-1.121841e+01
4.368377e+01	-1.126531e+01
4.393609e+01	-1.131185e+01
4.418986e+01	-1.135816e+01
4.444510e+01	-1.140458e+01
4.470182e+01	-1.145026e+01
4.496001e+01	-1.149745e+01
4.521970e+01	-1.154380e+01
4.548089e+01	-1.158998e+01
4.574358e+01	-1.163632e+01
4.600779e+01	-1.168321e+01
4.627353e+01	-1.173013e+01
4.654081e+01	-1.177670e+01
4.680963e+01	-1.182330e+01
4.708000e+01	-1.187007e+01
4.735193e+01	-1.191723e+01
4.762543e+01	-1.196377e+01
4.790051e+01	-1.201092e+01
4.817719e+01	-1.205734e+01
4.845545e+01	-1.210426e+01
4.873533e+01	-1.215136e+01
4.901682e+01	-1.219768e+01
4.929994e+01	-1.224511e+01
4.958470e+01	-1.229245e+01
4.987110e+01	-1.233861e+01
5.015915e+01	-1.238717e+01
5.044887e+01	-1.243395e+01
5.074026e+01	-1.248042e+01
5.103333e+01	-1.252776e+01
5.132810e+01	-1.257503e+01
5.162457e+01	-1.262284e+01
5.192275e+01	-1.266984e+01
5.222265e+01	-1.271733e+01
5.252429e+01	-1.276462e+01
5.282767e+01	-1.281251e+01
5.313280e+01	-1.285984e+01
5.343969e+01	-1.290692e+01
5.374836e+01	-1.295429e+01
5.405880e+01	-1.300229e+01
5.437105e+01	-1.304968e+01
5.468509e+01	-1.309675e+01
5.500095e+01	-1.314493e+01
5.531863e+01	-1.319225e+01
5.563815e+01	-1.323930e+01
5.595951e+01	-1.328751e+01
5.628273e+01	-1.333592e+01
5.660782e+01	-1.338306e+01
5.693479e+01	-1.343110e+01
5.726364e+01	-1.347880e+01
5.759439e+01	-1.352612e+01
5.792705e+01	-1.357349e+01
5.826164e+01	-1.362198e+01
5.859815e+01	-1.367073e+01
5.893662e+01	-1.371717e+01
5.927703e+01	-1.376610e+01
5.961941e+01	-1.381345e+01
5.996377e+01	-1.386123e+01
6.031012e+01	-1.390866e+01
6.065847e+01	-1.395756e+01
6.100883e+01	-1.400561e+01
6.136121e+01	-1.405346e+01
6.171563e+01	-1.410184e+01
6.207210e+01	-1.415024e+01
6.243063e+01	-1.419793e+01
6.279122e+01	-1.424599e+01
6.315390e+01	-1.429466e+01
6.351868e+01	-1.434248e+01
6.388556e+01	-1.438997e+01
6.425456e+01	-1.443860e+01
6.462569e+01	-1.448668e+01
6.499897e+01	-1.453608e+01
6.537440e+01	-1.458380e+01
6.575200e+01	-1.463290e+01
6.613178e+01	-1.468036e+01
6.651375e+01	-1.472879e+01
6.689793e+01	-1.477691e+01
6.728433e+01	-1.482536e+01
6.767297e+01	-1.487404e+01
6.806384e+01	-1.492226e+01
6.845698e+01	-1.497130e+01
6.885238e+01	-1.501920e+01
6.925007e+01	-1.506696e+01
6.965005e+01	-1.511565e+01
7.005235e+01	-1.516479e+01
7.045697e+01	-1.521313e+01
7.086393e+01	-1.526041e+01
7.127323e+01	-1.530936e+01
7.168490e+01	-1.535872e+01
7.209895e+01	-1.540641e+01
7.251539e+01	-1.545655e+01
7.293424e+01	-1.550349e+01
7.335551e+01	-1.555277e+01
7.377920e+01	-1.560139e+01
7.420535e+01	-1.564913e+01
7.463396e+01	-1.569876e+01
7.506504e+01	-1.574787e+01
7.549861e+01	-1.579635e+01
7.593469e+01	-1.584472e+01
7.637328e+01	-1.589392e+01
7.681441e+01	-1.594208e+01
7.725809e+01	-1.599222e+01
7.770433e+01	-1.603999e+01
7.815315e+01	-1.608839e+01
7.860456e+01	-1.613816e+01
7.905857e+01	-1.618661e+01
7.951521e+01	-1.623533e+01
7.997449e+01	-1.628500e+01
8.043642e+01	-1.633313e+01
8.090102e+01	-1.638193e+01
8.136830e+01	-1.643134e+01
8.183828e+01	-1.647921e+01
8.231097e+01	-1.652822e+01
8.278640e+01	-1.657715e+01
8.326457e+01	-1.662596e+01
8.374550e+01	-1.667531e+01
8.422921e+01	-1.672386e+01
8.471572e+01	-1.677336e+01
8.520503e+01	-1.682234e+01
8.569717e+01	-1.687210e+01
8.619215e+01	-1.691929e+01
8.669000e+01	-1.696918e+01
8.719071e+01	-1.701845e+01
8.769432e+01	-1.706740e+01
8.820084e+01	-1.711645e+01
8.871029e+01	-1.716445e+01
8.922267e+01	-1.721474e+01
8.973802e+01	-1.726278e+01
9.025634e+01	-1.731277e+01
9.077766e+01	-1.736304e+01
9.130199e+01	-1.741237e+01
9.182935e+01	-1.745960e+01
9.235975e+01	-1.750940e+01
9.289321e+01	-1.755816e+01
9.342976e+01	-1.760800e+01
9.396941e+01	-1.765711e+01
9.451217e+01	-1.770558e+01
9.505807e+01	-1.775522e+01
9.560712e+01	-1.780416e+01
9.615934e+01	-1.785353e+01
9.671476e+01	-1.790237e+01
9.727338e+01	-1.795070e+01
9.783522e+01	-1.800139e+01
9.840032e+01	-1.805062e+01
9.896867e+01	-1.809949e+01
9.954031e+01	-1.814813e+01
1.001153e+02	-1.819825e+01
1.006935e+02	-1.824783e+01
1.012751e+02	-1.829593e+01
1.018601e+02	-1.834785e+01
1.024484e+02	-1.839574e+01
1.030402e+02	-1.844569e+01
1.036353e+02	-1.849372e+01
1.042339e+02	-1.854369e+01
1.048360e+02	-1.859271e+01
1.054415e+02	-1.864246e+01
1.060505e+02	-1.869138e+01
1.066631e+02	-1.874024e+01
1.072791e+02	-1.878937e+01
1.078988e+02	-1.883872e+01
1.085220e+02	-1.888839e+01
1.091488e+02	-1.893752e+01
1.097793e+02	-1.898874e+01
1.104133e+02	-1.903823e+01
1.110511e+02	-1.908738e+01
1.116925e+02	-1.913618e+01
1.123376e+02	-1.918684e+01
1.129865e+02	-1.923540e+01
1.136391e+02	-1.928472e+01
1.142955e+02	-1.933313e+01
1.149556e+02	-1.938367e+01
1.156196e+02	-1.943355e+01
1.162874e+02	-1.948407e+01
1.169591e+02	-1.953132e+01
1.176347e+02	-1.958179e+01
1.183141e+02	-1.963052e+01
1.189975e+02	-1.967943e+01
1.196848e+02	-1.973066e+01
1.203761e+02	-1.977972e+01
1.210714e+02	-1.982863e+01
1.217707e+02	-1.987764e+01
1.224740e+02	-1.992712e+01
1.231814e+02	-1.997593e+01
1.238929e+02	-2.002592e+01
1.246085e+02	-2.007576e+01
1.253283e+02	-2.012663e+01
1.260522e+02	-2.017432e+01
1.267802e+02	-2.022520e+01
1.275125e+02	-2.027504e+01
1.282490e+02	-2.032505e+01
1.289898e+02	-2.037318e+01
1.297348e+02	-2.042342e+01
1.304842e+02	-2.047339e+01
1.312378e+02	-2.052285e+01
1.319959e+02	-2.057264e+01
1.327583e+02	-2.062253e+01
1.335251e+02	-2.067107e+01
1.342963e+02	-2.072175e+01
1.350720e+02	-2.077185e+01
1.358522e+02	-2.082070e+01
1.366368e+02	-2.087065e+01
1.374260e+02	-2.091942e+01
1.382198e+02	-2.097032e+01
1.390182e+02	-2.101912e+01
1.398211e+02	-2.106895e+01
1.406287e+02	-2.111692e+01
1.414410e+02	-2.116718e+01
1.422579e+02	-2.121862e+01
1.430796e+02	-2.126730e+01
1.439060e+02	-2.131497e+01
1.447372e+02	-2.136664e+01
1.455732e+02	-2.141585e+01
1.464141e+02	-2.146566e+01
1.472597e+02	-2.151546e+01
1.481103e+02	-2.156500e+01
1.489658e+02	-2.161386e+01
1.498262e+02	-2.166469e+01
1.506916e+02	-2.171443e+01
1.515620e+02	-2.176297e+01
1.524374e+02	-2.181101e+01
1.533179e+02	-2.186323e+01
1.542034e+02	-2.191342e+01
1.550941e+02	-2.196285e+01
1.559899e+02	-2.201174e+01
1.568909e+02	-2.206338e+01
1.577971e+02	-2.211070e+01
1.587085e+02	-2.216099e+01
1.596252e+02	-2.221069e+01
1.605472e+02	-2.225997e+01
1.614745e+02	-2.231184e+01
1.624072e+02	-2.235950e+01
1.633453e+02	-2.241067e+01
1.642887e+02	-2.245919e+01
1.652377e+02	-2.250899e+01
1.661921e+02	-2.255862e+01
1.671520e+02	-2.260822e+01
1.681175e+02	-2.266009e+01
1.690885e+02	-2.270815e+01
1.700651e+02	-2.276002e+01
1.710474e+02	-2.280714e+01
1.720354e+02	-2.285628e+01
1.730291e+02	-2.290720e+01
1.740285e+02	-2.295986e+01
1.750337e+02	-2.300742e+01
1.760446e+02	-2.305744e+01
1.770615e+02	-2.310766e+01
1.780842e+02	-2.315758e+01
1.791128e+02	-2.320559e+01
1.801473e+02	-2.325753e+01
1.811878e+02	-2.330771e+01
1.822344e+02	-2.335515e+01
1.832870e+02	-2.340406e+01
1.843456e+02	-2.345598e+01
1.854104e+02	-2.350586e+01
1.864813e+02	-2.355379e+01
1.875584e+02	-2.360216e+01
1.886418e+02	-2.365652e+01
1.897313e+02	-2.370613e+01
1.908272e+02	-2.375392e+01
1.919294e+02	-2.380398e+01
1.930380e+02	-2.385447e+01
1.941530e+02	-2.390530e+01
1.952744e+02	-2.395436e+01
1.964023e+02	-2.400090e+01
1.975367e+02	-2.405449e+01
1.986777e+02	-2.410378e+01
1.998252e+02	-2.415546e+01
2.009794e+02	-2.420497e+01
2.021403e+02	-2.425419e+01
2.033078e+02	-2.430258e+01
2.044821e+02	-2.435262e+01
2.056632e+02	-2.440160e+01
2.068511e+02	-2.445038e+01
2.080459e+02	-2.450222e+01
2.092475e+02	-2.455240e+01
2.104561e+02	-2.460288e+01
2.116717e+02	-2.465315e+01
2.128943e+02	-2.470333e+01
2.141240e+02	-2.475064e+01
2.153608e+02	-2.480076e+01
2.166047e+02	-2.485101e+01
2.178558e+02	-2.490046e+01
2.191141e+02	-2.495046e+01
2.203797e+02	-2.500234e+01
2.216526e+02	-2.505207e+01
2.229329e+02	-2.510158e+01
2.242205e+02	-2.515152e+01
2.255156e+02	-2.520458e+01
2.268182e+02	-2.525179e+01
2.281283e+02	-2.530121e+01
2.294459e+02	-2.535366e+01
2.307712e+02	-2.539990e+01
2.321041e+02	-2.545162e+01
2.334447e+02	-2.550429e+01
2.347931e+02	-2.555176e+01
2.361493e+02	-2.560044e+01
2.375133e+02	-2.565271e+01
2.388851e+02	-2.569959e+01
2.402649e+02	-2.575179e+01
2.416527e+02	-2.580059e+01
2.430484e+02	-2.585291e+01
2.444523e+02	-2.589867e+01
2.458642e+02	-2.594947e+01
2.472843e+02	-2.600087e+01
2.487126e+02	-2.605243e+01
2.501492e+02	-2.610193e+01
2.515940e+02	-2.614759e+01
2.530472e+02	-2.619968e+01
2.545088e+02	-2.624637e+01
2.559789e+02	-2.629936e+01
2.574574e+02	-2.635064e+01
2.589444e+02	-2.639883e+01
2.604401e+02	-2.644854e+01
2.619444e+02	-2.649722e+01
2.634574e+02	-2.655044e+01
2.649791e+02	-2.659884e+01
2.665096e+02	-2.665136e+01
2.680489e+02	-2.669790e+01
2.695972e+02	-2.674581e+01
2.711544e+02	-2.679618e+01
2.727205e+02	-2.685170e+01
2.742958e+02	-2.690550e+01
2.758801e+02	-2.694821e+01
2.774736e+02	-2.699730e+01
2.790762e+02	-2.705266e+01
2.806882e+02	-2.709922e+01
2.823094e+02	-2.714794e+01
2.839400e+02	-2.720277e+01
2.855800e+02	-2.724384e+01
2.872295e+02	-2.729743e+01
2.888886e+02	-2.735467e+01
2.905572e+02	-2.739765e+01
2.922354e+02	-2.744848e+01
2.939234e+02	-2.750158e+01
2.956211e+02	-2.754793e+01
2.973286e+02	-2.759877e+01
2.990459e+02	-2.765380e+01
3.007732e+02	-2.770265e+01
3.025104e+02	-2.775122e+01
3.042577e+02	-2.779800e+01
3.060151e+02	-2.785351e+01
3.077826e+02	-2.789896e+01
3.095604e+02	-2.795109e+01
3.113484e+02	-2.799839e+01
3.131467e+02	-2.805020e+01
3.149554e+02	-2.810053e+01
3.167746e+02	-2.815231e+01
3.186043e+02	-2.820198e+01
3.204445e+02	-2.824703e+01
3.222954e+02	-2.830154e+01
3.241570e+02	-2.834998e+01
3.260293e+02	-2.839691e+01
3.279124e+02	-2.844391e+01
3.298064e+02	-2.850100e+01
3.317114e+02	-2.854900e+01
3.336273e+02	-2.860085e+01
3.355544e+02	-2.865028e+01
3.374925e+02	-2.870136e+01
3.394418e+02	-2.874732e+01
3.414024e+02	-2.879984e+01
3.433744e+02	-2.884974e+01
3.453577e+02	-2.889866e+01
3.473525e+02	-2.895013e+01
3.493588e+02	-2.899742e+01
3.513766e+02	-2.904999e+01
3.534062e+02	-2.909823e+01
3.554474e+02	-2.915687e+01
3.575005e+02	-2.920146e+01
3.595654e+02	-2.925403e+01
3.616422e+02	-2.930186e+01
3.637311e+02	-2.934696e+01
3.658320e+02	-2.939735e+01
3.679450e+02	-2.945100e+01
3.700702e+02	-2.949942e+01
3.722077e+02	-2.955269e+01
3.743576e+02	-2.960060e+01
3.765199e+02	-2.965101e+01
3.786946e+02	-2.970042e+01
3.808820e+02	-2.975080e+01
3.830819e+02	-2.980359e+01
3.852946e+02	-2.985161e+01
3.875200e+02	-2.989249e+01
3.897583e+02	-2.995473e+01
3.920096e+02	-3.000639e+01
3.942738e+02	-3.004994e+01
3.965511e+02	-3.010238e+01
3.988416e+02	-3.015641e+01
4.011452e+02	-3.019744e+01
4.034622e+02	-3.024926e+01
4.057926e+02	-3.029814e+01
4.081365e+02	-3.034756e+01
4.104938e+02	-3.040327e+01
4.128648e+02	-3.045142e+01
4.152495e+02	-3.049814e+01
4.176480e+02	-3.055148e+01
4.200603e+02	-3.059859e+01
4.224866e+02	-3.065430e+01
4.249268e+02	-3.070506e+01
4.273812e+02	-3.075396e+01
4.298497e+02	-3.080370e+01
4.323325e+02	-3.085296e+01
4.348297e+02	-3.090312e+01
4.373412e+02	-3.095891e+01
4.398673e+02	-3.100425e+01
4.424079e+02	-3.105179e+01
4.449633e+02	-3.110518e+01
4.475334e+02	-3.114933e+01
4.501183e+02	-3.120674e+01
4.527182e+02	-3.125224e+01
4.553330e+02	-3.130134e+01
4.579630e+02	-3.136138e+01
4.606082e+02	-3.140749e+01
4.632687e+02	-3.145960e+01
4.659445e+02	-3.150964e+01
4.686358e+02	-3.155502e+01
4.713426e+02	-3.160775e+01
4.740650e+02	-3.165017e+01
4.768032e+02	-3.170369e+01
4.795572e+02	-3.175572e+01
4.823271e+02	-3.180503e+01
4.851130e+02	-3.186126e+01
4.879150e+02	-3.191151e+01
4.907332e+02	-3.195239e+01
4.935676e+02	-3.201009e+01
4.964185e+02	-3.205575e+01
4.992858e+02	-3.210399e+01
5.021696e+02	-3.216163e+01
5.050701e+02	-3.220460e+01
5.079874e+02	-3.226021e+01
5.109215e+02	-3.231049e+01
5.138726e+02	-3.235597e+01
5.168407e+02	-3.240988e+01
5.198259e+02	-3.246014e+01
5.228284e+02	-3.250672e+01
5.258482e+02	-3.255848e+01
5.288855e+02	-3.261004e+01
5.319403e+02	-3.265858e+01
5.350128e+02	-3.271353e+01
5.381030e+02	-3.275344e+01
5.412111e+02	-3.281138e+01
5.443371e+02	-3.286027e+01
5.474812e+02	-3.289646e+01
5.506434e+02	-3.295830e+01
5.538239e+02	-3.300792e+01
5.570228e+02	-3.305668e+01
5.602401e+02	-3.310141e+01
5.634760e+02	-3.315871e+01
5.667306e+02	-3.320657e+01
5.700040e+02	-3.326330e+01
5.732964e+02	-3.330664e+01
5.766077e+02	-3.336075e+01
5.799382e+02	-3.341448e+01
5.832879e+02	-3.346198e+01
5.866569e+02	-3.352065e+01
5.900454e+02	-3.356239e+01
5.934535e+02	-3.361343e+01
5.968813e+02	-3.366427e+01
6.003288e+02	-3.371580e+01
6.037963e+02	-3.377027e+01
6.072838e+02	-3.381434e+01
6.107914e+02	-3.386804e+01
6.143194e+02	-3.391545e+01
6.178676e+02	-3.396333e+01
6.214364e+02	-3.401515e+01
6.250258e+02	-3.406907e+01
6.286359e+02	-3.411374e+01
6.322669e+02	-3.416622e+01
6.359189e+02	-3.421175e+01
6.395919e+02	-3.426043e+01
6.432862e+02	-3.432131e+01
6.470017e+02	-3.437624e+01
6.507388e+02	-3.442745e+01
6.544974e+02	-3.447539e+01
6.582778e+02	-3.451816e+01
6.620800e+02	-3.456825e+01
6.659041e+02	-3.461661e+01
6.697504e+02	-3.467507e+01
6.736188e+02	-3.471689e+01
6.775096e+02	-3.477430e+01
6.814229e+02	-3.482268e+01
6.853587e+02	-3.487563e+01
6.893173e+02	-3.491556e+01
6.932988e+02	-3.496876e+01
6.973033e+02	-3.503050e+01
7.013309e+02	-3.507107e+01
