Frequency(Hz)	Magnitude(dB)
1.000000e+01	-2.117051e+00
1.005776e+01	-2.136377e+00
1.011585e+01	-2.155890e+00
1.017428e+01	-2.175681e+00
1.023305e+01	-2.195308e+00
1.029215e+01	-2.215278e+00
1.035160e+01	-2.235295e+00
1.041139e+01	-2.255607e+00
1.047153e+01	-2.275835e+00
1.053201e+01	-2.296450e+00
1.059284e+01	-2.316738e+00
1.065403e+01	-2.337711e+00
1.071556e+01	-2.358505e+00
1.077746e+01	-2.379689e+00
1.083971e+01	-2.401091e+00
1.090232e+01	-2.422063e+00
1.096529e+01	-2.443521e+00
1.102862e+01	-2.465197e+00
1.109232e+01	-2.486887e+00
1.115639e+01	-2.508667e+00
1.122083e+01	-2.530923e+00
1.128564e+01	-2.552880e+00
1.135083e+01	-2.575159e+00
1.141639e+01	-2.597577e+00
1.148233e+01	-2.620414e+00
1.154865e+01	-2.643027e+00
1.161536e+01	-2.665707e+00
1.168245e+01	-2.688999e+00
1.174992e+01	-2.712134e+00
1.181779e+01	-2.735419e+00
1.188605e+01	-2.758888e+00
1.195470e+01	-2.782311e+00
1.202375e+01	-2.806210e+00
1.209320e+01	-2.829762e+00
1.216305e+01	-2.853980e+00
1.223330e+01	-2.878416e+00
1.230396e+01	-2.902340e+00
1.237503e+01	-2.926835e+00
1.244651e+01	-2.951781e+00
1.251840e+01	-2.976370e+00
1.259070e+01	-3.001200e+00
1.266343e+01	-3.026436e+00
1.273657e+01	-3.051359e+00
1.281014e+01	-3.076710e+00
1.288413e+01	-3.102169e+00
1.295855e+01	-3.128037e+00
1.303339e+01	-3.153560e+00
1.310867e+01	-3.179356e+00
1.318439e+01	-3.205482e+00
1.326054e+01	-3.231682e+00
1.333713e+01	-3.258010e+00
1.341417e+01	-3.284443e+00
1.349165e+01	-3.311277e+00
1.356958e+01	-3.338025e+00
1.364795e+01	-3.364916e+00
1.372678e+01	-3.391902e+00
1.380607e+01	-3.419120e+00
1.388581e+01	-3.446596e+00
1.396602e+01	-3.474024e+00
1.404668e+01	-3.501576e+00
1.412782e+01	-3.529116e+00
1.420942e+01	-3.557048e+00
1.429149e+01	-3.585350e+00
1.437404e+01	-3.613362e+00
1.445706e+01	-3.641924e+00
1.454057e+01	-3.670206e+00
1.462455e+01	-3.698724e+00
1.470902e+01	-3.727393e+00
1.479398e+01	-3.756413e+00
1.487943e+01	-3.785670e+00
1.496537e+01	-3.814519e+00
1.505181e+01	-3.843679e+00
1.513875e+01	-3.873444e+00
1.522619e+01	-3.902965e+00
1.531414e+01	-3.932643e+00
1.540259e+01	-3.962548e+00
1.549156e+01	-3.992466e+00
1.558103e+01	-4.022816e+00
1.567103e+01	-4.053152e+00
1.576155e+01	-4.083274e+00
1.585258e+01	-4.113896e+00
1.594415e+01	-4.144883e+00
1.603624e+01	-4.175554e+00
1.612886e+01	-4.206467e+00
1.622202e+01	-4.237597e+00
1.631572e+01	-4.268829e+00
1.640996e+01	-4.300266e+00
1.650474e+01	-4.331768e+00
1.660008e+01	-4.363471e+00
1.669596e+01	-4.395051e+00
1.679239e+01	-4.426894e+00
1.688938e+01	-4.458805e+00
1.698694e+01	-4.490914e+00
1.708505e+01	-4.523431e+00
1.718373e+01	-4.555732e+00
1.728299e+01	-4.588451e+00
1.738281e+01	-4.621194e+00
1.748322e+01	-4.653890e+00
1.758420e+01	-4.687080e+00
1.768576e+01	-4.719859e+00
1.778792e+01	-4.753200e+00
1.789066e+01	-4.786632e+00
1.799399e+01	-4.820033e+00
1.809793e+01	-4.853690e+00
1.820246e+01	-4.887616e+00
1.830760e+01	-4.921524e+00
1.841334e+01	-4.955270e+00
1.851969e+01	-4.989334e+00
1.862666e+01	-5.023730e+00
1.873425e+01	-5.058010e+00
1.884246e+01	-5.092241e+00
1.895129e+01	-5.126994e+00
1.906075e+01	-5.161996e+00
1.917085e+01	-5.196730e+00
1.928158e+01	-5.231527e+00
1.939295e+01	-5.266701e+00
1.950496e+01	-5.302008e+00
1.961762e+01	-5.337263e+00
1.973093e+01	-5.372509e+00
1.984490e+01	-5.408515e+00
1.995952e+01	-5.443914e+00
2.007480e+01	-5.479853e+00
2.019076e+01	-5.515560e+00
2.030738e+01	-5.551691e+00
2.042467e+01	-5.587996e+00
2.054264e+01	-5.623945e+00
2.066130e+01	-5.660407e+00
2.078064e+01	-5.696582e+00
2.090066e+01	-5.733426e+00
2.102139e+01	-5.770394e+00
2.114280e+01	-5.806931e+00
2.126492e+01	-5.843801e+00
2.138775e+01	-5.881332e+00
2.151128e+01	-5.918651e+00
2.163553e+01	-5.955635e+00
2.176050e+01	-5.992778e+00
2.188619e+01	-6.030433e+00
2.201260e+01	-6.068257e+00
2.213974e+01	-6.105693e+00
2.226762e+01	-6.143490e+00
2.239624e+01	-6.181464e+00
2.252560e+01	-6.219421e+00
2.265571e+01	-6.257708e+00
2.278656e+01	-6.295655e+00
2.291818e+01	-6.334089e+00
2.305055e+01	-6.372632e+00
2.318369e+01	-6.411337e+00
2.331760e+01	-6.449299e+00
2.345228e+01	-6.488358e+00
2.358774e+01	-6.527247e+00
2.372398e+01	-6.566282e+00
2.386101e+01	-6.605617e+00
2.399883e+01	-6.644621e+00
2.413745e+01	-6.683924e+00
2.427686e+01	-6.723248e+00
2.441709e+01	-6.762361e+00
2.455812e+01	-6.802285e+00
2.469997e+01	-6.841930e+00
2.484263e+01	-6.881383e+00
2.498612e+01	-6.921393e+00
2.513044e+01	-6.961349e+00
2.527559e+01	-7.000956e+00
2.542158e+01	-7.041230e+00
2.556842e+01	-7.081256e+00
2.571610e+01	-7.121769e+00
2.586463e+01	-7.162107e+00
2.601403e+01	-7.202533e+00
2.616428e+01	-7.242847e+00
2.631541e+01	-7.283937e+00
2.646740e+01	-7.324400e+00
2.662028e+01	-7.365373e+00
2.677404e+01	-7.405981e+00
2.692868e+01	-7.447073e+00
2.708422e+01	-7.488009e+00
2.724066e+01	-7.529495e+00
2.739800e+01	-7.570735e+00
2.755625e+01	-7.611993e+00
2.771541e+01	-7.653087e+00
2.787550e+01	-7.694930e+00
2.803650e+01	-7.736484e+00
2.819844e+01	-7.777961e+00
2.836131e+01	-7.819329e+00
2.852513e+01	-7.861628e+00
2.868989e+01	-7.903328e+00
2.885560e+01	-7.944804e+00
2.902227e+01	-7.987352e+00
2.918990e+01	-8.029376e+00
2.935850e+01	-8.071640e+00
2.952807e+01	-8.114018e+00
2.969863e+01	-8.156846e+00
2.987016e+01	-8.198606e+00
3.004269e+01	-8.240982e+00
3.021622e+01	-8.283772e+00
3.039075e+01	-8.326469e+00
3.056628e+01	-8.369048e+00
3.074283e+01	-8.411655e+00
3.092040e+01	-8.454310e+00
3.109900e+01	-8.497481e+00
3.127862e+01	-8.540378e+00
3.145929e+01	-8.583810e+00
3.164099e+01	-8.626722e+00
3.182375e+01	-8.670559e+00
3.200756e+01	-8.713624e+00
3.219244e+01	-8.756129e+00
3.237838e+01	-8.800197e+00
3.256540e+01	-8.843377e+00
3.275349e+01	-8.887095e+00
3.294268e+01	-8.930665e+00
3.313295e+01	-8.974075e+00
3.332433e+01	-9.018044e+00
3.351681e+01	-9.061982e+00
3.371040e+01	-9.105216e+00
3.390511e+01	-9.149282e+00
3.410094e+01	-9.193550e+00
3.429791e+01	-9.237561e+00
3.449601e+01	-9.281794e+00
3.469526e+01	-9.325893e+00
3.489566e+01	-9.369973e+00
3.509721e+01	-9.414131e+00
3.529993e+01	-9.458051e+00
3.550382e+01	-9.502330e+00
3.570889e+01	-9.547629e+00
3.591515e+01	-9.591989e+00
3.612259e+01	-9.635736e+00
3.633123e+01	-9.680501e+00
3.654108e+01	-9.725826e+00
3.675214e+01	-9.770329e+00
3.696442e+01	-9.815212e+00
3.717792e+01	-9.860454e+00
3.739266e+01	-9.905033e+00
3.760864e+01	-9.950101e+00
3.782587e+01	-9.994975e+00
3.804435e+01	-1.004018e+01
3.826409e+01	-1.008471e+01
3.848510e+01	-1.013041e+01
3.870739e+01	-1.017530e+01
3.893096e+01	-1.022029e+01
3.915583e+01	-1.026527e+01
3.938199e+01	-1.031096e+01
3.960946e+01	-1.035687e+01
3.983824e+01	-1.040285e+01
4.006834e+01	-1.044778e+01
4.029978e+01	-1.049351e+01
4.053255e+01	-1.053890e+01
4.076666e+01	-1.058496e+01
4.100213e+01	-1.062973e+01
4.123896e+01	-1.067580e+01
4.147715e+01	-1.072146e+01
4.171672e+01	-1.076709e+01
4.195767e+01	-1.081337e+01
4.220002e+01	-1.085853e+01
4.244377e+01	-1.090566e+01
4.268892e+01	-1.095067e+01
4.293549e+01	-1.099747e+01
4.318348e+01	-1.104343e+01
4.343291e+01	-1.108928e+01
4.368377e+01	-1.113508e+01
4.393609e+01	-1.118156e+01
4.418986e+01	-1.122802e+01
4.444510e+01	-1.127421e+01
4.470182e+01	-1.132035e+01
4.496001e+01	-1.136650e+01
4.521970e+01	-1.141296e+01
4.548089e+01	-1.145945e+01
4.574358e+01	-1.150597e+01
4.600779e+01	-1.155234e+01
4.627353e+01	-1.159885e+01
4.654081e+01	-1.164583e+01
4.680963e+01	-1.169216e+01
4.708000e+01	-1.173907e+01
4.735193e+01	-1.178550e+01
4.762543e+01	-1.183196e+01
4.790051e+01	-1.187889e+01
4.817719e+01	-1.192631e+01
4.845545e+01	-1.197246e+01
4.873533e+01	-1.201989e+01
4.901682e+01	-1.206648e+01
4.929994e+01	-1.211315e+01
4.958470e+01	-1.216062e+01
4.987110e+01	-1.220720e+01
5.015915e+01	-1.225450e+01
5.044887e+01	-1.230232e+01
5.074026e+01	-1.234904e+01
5.103333e+01	-1.239693e+01
5.132810e+01	-1.244242e+01
5.162457e+01	-1.249022e+01
5.192275e+01	-1.253745e+01
5.222265e+01	-1.258463e+01
5.252429e+01	-1.263210e+01
5.282767e+01	-1.267851e+01
5.313280e+01	-1.272670e+01
5.343969e+01	-1.277392e+01
5.374836e+01	-1.282089e+01
5.405880e+01	-1.286902e+01
5.437105e+01	-1.291619e+01
5.468509e+01	-1.296324e+01
5.500095e+01	-1.301107e+01
5.531863e+01	-1.305902e+01
5.563815e+01	-1.310617e+01
5.595951e+01	-1.315359e+01
5.628273e+01	-1.320101e+01
5.660782e+01	-1.324913e+01
5.693479e+01	-1.329694e+01
5.726364e+01	-1.334467e+01
5.759439e+01	-1.339288e+01
5.792705e+01	-1.343971e+01
5.826164e+01	-1.348789e+01
5.859815e+01	-1.353634e+01
5.893662e+01	-1.358283e+01
5.927703e+01	-1.363107e+01
5.961941e+01	-1.367953e+01
5.996377e+01	-1.372684e+01
6.031012e+01	-1.377453e+01
6.065847e+01	-1.382230e+01
6.100883e+01	-1.387079e+01
6.136121e+01	-1.391855e+01
6.171563e+01	-1.396655e+01
6.207210e+01	-1.401462e+01
6.243063e+01	-1.406254e+01
6.279122e+01	-1.411091e+01
6.315390e+01	-1.415942e+01
6.351868e+01	-1.420663e+01
6.388556e+01	-1.425546e+01
6.425456e+01	-1.430377e+01
6.462569e+01	-1.435213e+01
6.499897e+01	-1.440044e+01
6.537440e+01	-1.444761e+01
6.575200e+01	-1.449643e+01
6.613178e+01	-1.454453e+01
6.651375e+01	-1.459286e+01
6.689793e+01	-1.464149e+01
6.728433e+01	-1.468836e+01
6.767297e+01	-1.473854e+01
6.806384e+01	-1.478544e+01
6.845698e+01	-1.483533e+01
6.885238e+01	-1.488232e+01
6.925007e+01	-1.493137e+01
6.965005e+01	-1.497954e+01
7.005235e+01	-1.502824e+01
7.045697e+01	-1.507710e+01
7.086393e+01	-1.512489e+01
7.127323e+01	-1.517319e+01
7.168490e+01	-1.522235e+01
7.209895e+01	-1.527051e+01
7.251539e+01	-1.531920e+01
7.293424e+01	-1.536870e+01
7.335551e+01	-1.541605e+01
7.377920e+01	-1.546427e+01
7.420535e+01	-1.551368e+01
7.463396e+01	-1.556209e+01
7.506504e+01	-1.561127e+01
7.549861e+01	-1.566020e+01
7.593469e+01	-1.570858e+01
7.637328e+01	-1.575756e+01
7.681441e+01	-1.580453e+01
7.725809e+01	-1.585498e+01
7.770433e+01	-1.590243e+01
7.815315e+01	-1.595186e+01
7.860456e+01	-1.600056e+01
7.905857e+01	-1.604973e+01
7.951521e+01	-1.609903e+01
7.997449e+01	-1.614728e+01
8.043642e+01	-1.619504e+01
8.090102e+01	-1.624422e+01
8.136830e+01	-1.629335e+01
8.183828e+01	-1.634258e+01
8.231097e+01	-1.639053e+01
8.278640e+01	-1.643915e+01
8.326457e+01	-1.648849e+01
8.374550e+01	-1.653788e+01
8.422921e+01	-1.658660e+01
8.471572e+01	-1.663557e+01
8.520503e+01	-1.668604e+01
8.569717e+01	-1.673345e+01
8.619215e+01	-1.678231e+01
8.669000e+01	-1.683099e+01
8.719071e+01	-1.688103e+01
8.769432e+01	-1.692941e+01
8.820084e+01	-1.697856e+01
8.871029e+01	-1.702788e+01
8.922267e+01	-1.707583e+01
8.973802e+01	-1.712580e+01
9.025634e+01	-1.717570e+01
9.077766e+01	-1.722422e+01
9.130199e+01	-1.727319e+01
9.182935e+01	-1.732225e+01
9.235975e+01	-1.737127e+01
9.289321e+01	-1.742024e+01
9.342976e+01	-1.747015e+01
9.396941e+01	-1.751762e+01
9.451217e+01	-1.756779e+01
9.505807e+01	-1.761683e+01
9.560712e+01	-1.766734e+01
9.615934e+01	-1.771554e+01
9.671476e+01	-1.776400e+01
9.727338e+01	-1.781302e+01
9.783522e+01	-1.786352e+01
9.840032e+01	-1.791357e+01
9.896867e+01	-1.796164e+01
9.954031e+01	-1.801075e+01
1.001153e+02	-1.805897e+01
1.006935e+02	-1.810863e+01
1.012751e+02	-1.815866e+01
1.018601e+02	-1.820734e+01
1.024484e+02	-1.825666e+01
1.030402e+02	-1.830664e+01
1.036353e+02	-1.835576e+01
1.042339e+02	-1.840469e+01
1.048360e+02	-1.845409e+01
1.054415e+02	-1.850174e+01
1.060505e+02	-1.855280e+01
1.066631e+02	-1.860178e+01
1.072791e+02	-1.865101e+01
1.078988e+02	-1.869991e+01
1.085220e+02	-1.874951e+01
1.091488e+02	-1.879893e+01
1.097793e+02	-1.884795e+01
1.104133e+02	-1.889780e+01
1.110511e+02	-1.894878e+01
1.116925e+02	-1.899642e+01
1.123376e+02	-1.904674e+01
1.129865e+02	-1.909464e+01
1.136391e+02	-1.914477e+01
1.142955e+02	-1.919513e+01
1.149556e+02	-1.924567e+01
1.156196e+02	-1.929405e+01
1.162874e+02	-1.934307e+01
1.169591e+02	-1.939159e+01
1.176347e+02	-1.944256e+01
1.183141e+02	-1.949149e+01
1.189975e+02	-1.954142e+01
1.196848e+02	-1.959069e+01
1.203761e+02	-1.964172e+01
1.210714e+02	-1.969162e+01
1.217707e+02	-1.973984e+01
1.224740e+02	-1.978839e+01
1.231814e+02	-1.983711e+01
1.238929e+02	-1.988823e+01
1.246085e+02	-1.993816e+01
1.253283e+02	-1.998722e+01
1.260522e+02	-2.003538e+01
1.267802e+02	-2.008725e+01
1.275125e+02	-2.013441e+01
1.282490e+02	-2.018469e+01
1.289898e+02	-2.023390e+01
1.297348e+02	-2.028322e+01
1.304842e+02	-2.033334e+01
1.312378e+02	-2.038310e+01
1.319959e+02	-2.043181e+01
1.327583e+02	-2.048195e+01
1.335251e+02	-2.053016e+01
1.342963e+02	-2.058185e+01
1.350720e+02	-2.062971e+01
1.358522e+02	-2.068089e+01
1.366368e+02	-2.073129e+01
1.374260e+02	-2.078076e+01
1.382198e+02	-2.083073e+01
1.390182e+02	-2.087656e+01
1.398211e+02	-2.092729e+01
1.406287e+02	-2.097600e+01
1.414410e+02	-2.102972e+01
1.422579e+02	-2.107778e+01
1.430796e+02	-2.112700e+01
1.439060e+02	-2.117749e+01
1.447372e+02	-2.122791e+01
1.455732e+02	-2.127525e+01
1.464141e+02	-2.132763e+01
1.472597e+02	-2.137525e+01
1.481103e+02	-2.142484e+01
1.489658e+02	-2.147561e+01
1.498262e+02	-2.152417e+01
1.506916e+02	-2.157515e+01
1.515620e+02	-2.162338e+01
1.524374e+02	-2.167353e+01
1.533179e+02	-2.172165e+01
1.542034e+02	-2.177386e+01
1.550941e+02	-2.182273e+01
1.559899e+02	-2.187178e+01
1.568909e+02	-2.192154e+01
1.577971e+02	-2.197229e+01
1.587085e+02	-2.202177e+01
1.596252e+02	-2.207097e+01
1.605472e+02	-2.212270e+01
1.614745e+02	-2.217022e+01
1.624072e+02	-2.221901e+01
1.633453e+02	-2.226935e+01
1.642887e+02	-2.231874e+01
1.652377e+02	-2.236647e+01
1.661921e+02	-2.242002e+01
1.671520e+02	-2.246845e+01
1.681175e+02	-2.251794e+01
1.690885e+02	-2.256856e+01
1.700651e+02	-2.261958e+01
1.710474e+02	-2.266947e+01
1.720354e+02	-2.271545e+01
1.730291e+02	-2.276958e+01
1.740285e+02	-2.281599e+01
1.750337e+02	-2.286862e+01
1.760446e+02	-2.291798e+01
1.770615e+02	-2.296748e+01
1.780842e+02	-2.301677e+01
1.791128e+02	-2.306692e+01
1.801473e+02	-2.311662e+01
1.811878e+02	-2.316831e+01
1.822344e+02	-2.321353e+01
1.832870e+02	-2.326762e+01
1.843456e+02	-2.331400e+01
1.854104e+02	-2.336579e+01
1.864813e+02	-2.341368e+01
1.875584e+02	-2.346536e+01
1.886418e+02	-2.351453e+01
1.897313e+02	-2.356401e+01
1.908272e+02	-2.361502e+01
1.919294e+02	-2.366405e+01
1.930380e+02	-2.371611e+01
1.941530e+02	-2.376453e+01
1.952744e+02	-2.381461e+01
1.964023e+02	-2.386206e+01
1.975367e+02	-2.391475e+01
1.986777e+02	-2.396390e+01
1.998252e+02	-2.401413e+01
2.009794e+02	-2.406284e+01
2.021403e+02	-2.411320e+01
2.033078e+02	-2.416307e+01
2.044821e+02	-2.421534e+01
2.056632e+02	-2.426339e+01
2.068511e+02	-2.431125e+01
2.080459e+02	-2.436254e+01
2.092475e+02	-2.440937e+01
2.104561e+02	-2.446336e+01
2.116717e+02	-2.450920e+01
2.128943e+02	-2.456063e+01
2.141240e+02	-2.461310e+01
2.153608e+02	-2.466256e+01
2.166047e+02	-2.471280e+01
2.178558e+02	-2.476048e+01
2.191141e+02	-2.480960e+01
2.203797e+02	-2.486182e+01
2.216526e+02	-2.491315e+01
2.229329e+02	-2.496199e+01
2.242205e+02	-2.501076e+01
2.255156e+02	-2.506230e+01
2.268182e+02	-2.511254e+01
2.281283e+02	-2.515963e+01
2.294459e+02	-2.521000e+01
2.307712e+02	-2.526029e+01
2.321041e+02	-2.530758e+01
2.334447e+02	-2.535790e+01
2.347931e+02	-2.541300e+01
2.361493e+02	-2.546024e+01
2.375133e+02	-2.551105e+01
2.388851e+02	-2.555942e+01
2.402649e+02	-2.560889e+01
2.416527e+02	-2.565798e+01
2.430484e+02	-2.570918e+01
2.444523e+02	-2.575933e+01
2.458642e+02	-2.580838e+01
2.472843e+02	-2.585878e+01
2.487126e+02	-2.590822e+01
2.501492e+02	-2.595657e+01
2.515940e+02	-2.601179e+01
2.530472e+02	-2.605924e+01
2.545088e+02	-2.610778e+01
2.559789e+02	-2.615442e+01
2.574574e+02	-2.620884e+01
2.589444e+02	-2.625801e+01
2.604401e+02	-2.631035e+01
2.619444e+02	-2.636027e+01
2.634574e+02	-2.640992e+01
2.649791e+02	-2.645963e+01
2.665096e+02	-2.650743e+01
2.680489e+02	-2.655839e+01
2.695972e+02	-2.660759e+01
2.711544e+02	-2.666071e+01
2.727205e+02	-2.670787e+01
2.742958e+02	-2.676223e+01
2.758801e+02	-2.680868e+01
2.774736e+02	-2.685738e+01
2.790762e+02	-2.690835e+01
2.806882e+02	-2.696265e+01
2.823094e+02	-2.700499e+01
2.839400e+02	-2.705405e+01
2.855800e+02	-2.711189e+01
2.872295e+02	-2.715715e+01
2.888886e+02	-2.721042e+01
2.905572e+02	-2.725584e+01
2.922354e+02	-2.730889e+01
2.939234e+02	-2.736017e+01
2.956211e+02	-2.740909e+01
2.973286e+02	-2.745776e+01
2.990459e+02	-2.750981e+01
3.007732e+02	-2.755852e+01
3.025104e+02	-2.760702e+01
3.042577e+02	-2.765592e+01
3.060151e+02	-2.770638e+01
3.077826e+02	-2.775699e+01
3.095604e+02	-2.780857e+01
3.113484e+02	-2.785672e+01
3.131467e+02	-2.790858e+01
3.149554e+02	-2.795538e+01
3.167746e+02	-2.800676e+01
3.186043e+02	-2.805892e+01
3.204445e+02	-2.810824e+01
3.222954e+02	-2.815603e+01
3.241570e+02	-2.820845e+01
3.260293e+02	-2.825674e+01
3.279124e+02	-2.830944e+01
3.298064e+02	-2.835946e+01
3.317114e+02	-2.840743e+01
3.336273e+02	-2.846001e+01
3.355544e+02	-2.851354e+01
3.374925e+02	-2.855733e+01
3.394418e+02	-2.860811e+01
3.414024e+02	-2.865832e+01
3.433744e+02	-2.870555e+01
3.453577e+02	-2.876154e+01
3.473525e+02	-2.881397e+01
3.493588e+02	-2.886232e+01
3.513766e+02	-2.890898e+01
3.534062e+02	-2.895822e+01
3.554474e+02	-2.900681e+01
3.575005e+02	-2.905524e+01
3.595654e+02	-2.911282e+01
3.616422e+02	-2.916137e+01
3.637311e+02	-2.921281e+01
3.658320e+02	-2.925803e+01
3.679450e+02	-2.930882e+01
3.700702e+02	-2.936571e+01
3.722077e+02	-2.940978e+01
3.743576e+02	-2.945758e+01
3.765199e+02	-2.950789e+01
3.786946e+02	-2.955771e+01
3.808820e+02	-2.961143e+01
3.830819e+02	-2.966291e+01
3.852946e+02	-2.971093e+01
3.875200e+02	-2.976205e+01
3.897583e+02	-2.980785e+01
3.920096e+02	-2.986143e+01
3.942738e+02	-2.990700e+01
3.965511e+02	-2.995963e+01
3.988416e+02	-3.001112e+01
4.011452e+02	-3.006449e+01
4.034622e+02	-3.011646e+01
4.057926e+02	-3.016210e+01
4.081365e+02	-3.020724e+01
4.104938e+02	-3.026316e+01
4.128648e+02	-3.030988e+01
4.152495e+02	-3.036105e+01
4.176480e+02	-3.040673e+01
4.200603e+02	-3.045663e+01
4.224866e+02	-3.051213e+01
4.249268e+02	-3.056458e+01
4.273812e+02	-3.060677e+01
4.298497e+02	-3.066172e+01
4.323325e+02	-3.071309e+01
4.348297e+02	-3.075957e+01
4.373412e+02	-3.081142e+01
4.398673e+02	-3.086193e+01
4.424079e+02	-3.090643e+01
4.449633e+02	-3.096507e+01
4.475334e+02	-3.100590e+01
4.501183e+02	-3.106062e+01
4.527182e+02	-3.110530e+01
4.553330e+02	-3.116342e+01
4.579630e+02	-3.121305e+01
4.606082e+02	-3.126076e+01
4.632687e+02	-3.131103e+01
4.659445e+02	-3.136019e+01
4.686358e+02	-3.141207e+01
4.713426e+02	-3.146407e+01
4.740650e+02	-3.151219e+01
4.768032e+02	-3.156566e+01
4.795572e+02	-3.160668e+01
4.823271e+02	-3.166460e+01
4.851130e+02	-3.171009e+01
4.879150e+02	-3.176367e+01
4.907332e+02	-3.181583e+01
4.935676e+02	-3.186293e+01
4.964185e+02	-3.190625e+01
4.992858e+02	-3.196396e+01
5.021696e+02	-3.201635e+01
5.050701e+02	-3.206154e+01
5.079874e+02	-3.211303e+01
5.109215e+02	-3.216464e+01
5.138726e+02	-3.221437e+01
5.168407e+02	-3.226499e+01
5.198259e+02	-3.231340e+01
5.228284e+02	-3.236109e+01
5.258482e+02	-3.241612e+01
5.288855e+02	-3.245863e+01
5.319403e+02	-3.251574e+01
5.350128e+02	-3.256717e+01
5.381030e+02	-3.261717e+01
5.412111e+02	-3.266942e+01
5.443371e+02	-3.272571e+01
5.474812e+02	-3.276519e+01
5.506434e+02	-3.282091e+01
5.538239e+02	-3.287017e+01
5.570228e+02	-3.291814e+01
5.602401e+02	-3.296349e+01
5.634760e+02	-3.301662e+01
5.667306e+02	-3.307232e+01
5.700040e+02	-3.311578e+01
5.732964e+02	-3.317221e+01
5.766077e+02	-3.322256e+01
5.799382e+02	-3.326639e+01
5.832879e+02	-3.332268e+01
5.866569e+02	-3.337221e+01
5.900454e+02	-3.341968e+01
5.934535e+02	-3.346766e+01
5.968813e+02	-3.352175e+01
6.003288e+02	-3.357102e+01
6.037963e+02	-3.362699e+01
6.072838e+02	-3.367519e+01
6.107914e+02	-3.371700e+01
6.143194e+02	-3.377045e+01
6.178676e+02	-3.382004e+01
6.214364e+02	-3.387182e+01
6.250258e+02	-3.392680e+01
6.286359e+02	-3.397552e+01
6.322669e+02	-3.401585e+01
6.359189e+02	-3.407984e+01
6.395919e+02	-3.412229e+01
6.432862e+02	-3.417879e+01
6.470017e+02	-3.422325e+01
6.507388e+02	-3.427237e+01
6.544974e+02	-3.431753e+01
6.582778e+02	-3.437727e+01
6.620800e+02	-3.442539e+01
6.659041e+02	-3.447846e+01
6.697504e+02	-3.452058e+01
6.736188e+02	-3.457407e+01
6.775096e+02	-3.462347e+01
6.814229e+02	-3.467612e+01
6.853587e+02	-3.472976e+01
6.893173e+02	-3.477645e+01
6.932988e+02	-3.482691e+01
6.973033e+02	-3.487840e+01
7.013309e+02	-3.492687e+01
