Frequency(Hz)	Magnitude(dB)
1.000000e+01	-2.127693e+00
1.005776e+01	-2.146966e+00
1.011585e+01	-2.166460e+00
1.017428e+01	-2.186315e+00
1.023305e+01	-2.206071e+00
1.029215e+01	-2.226141e+00
1.035160e+01	-2.246529e+00
1.041139e+01	-2.266660e+00
1.047153e+01	-2.287098e+00
1.053201e+01	-2.307515e+00
1.059284e+01	-2.328166e+00
1.065403e+01	-2.349067e+00
1.071556e+01	-2.370172e+00
1.077746e+01	-2.391103e+00
1.083971e+01	-2.412250e+00
1.090232e+01	-2.433921e+00
1.096529e+01	-2.455436e+00
1.102862e+01	-2.476985e+00
1.109232e+01	-2.498714e+00
1.115639e+01	-2.520675e+00
1.122083e+01	-2.542877e+00
1.128564e+01	-2.565076e+00
1.135083e+01	-2.587622e+00
1.141639e+01	-2.610035e+00
1.148233e+01	-2.632591e+00
1.154865e+01	-2.655542e+00
1.161536e+01	-2.678446e+00
1.168245e+01	-2.701445e+00
1.174992e+01	-2.724928e+00
1.181779e+01	-2.748106e+00
1.188605e+01	-2.771830e+00
1.195470e+01	-2.795396e+00
1.202375e+01	-2.819274e+00
1.209320e+01	-2.843289e+00
1.216305e+01	-2.867079e+00
1.223330e+01	-2.891648e+00
1.230396e+01	-2.915753e+00
1.237503e+01	-2.940352e+00
1.244651e+01	-2.965358e+00
1.251840e+01	-2.989921e+00
1.259070e+01	-3.014951e+00
1.266343e+01	-3.040072e+00
1.273657e+01	-3.065266e+00
1.281014e+01	-3.090627e+00
1.288413e+01	-3.116200e+00
1.295855e+01	-3.141759e+00
1.303339e+01	-3.167515e+00
1.310867e+01	-3.193624e+00
1.318439e+01	-3.219670e+00
1.326054e+01	-3.245864e+00
1.333713e+01	-3.272597e+00
1.341417e+01	-3.299307e+00
1.349165e+01	-3.325707e+00
1.356958e+01	-3.352473e+00
1.364795e+01	-3.379710e+00
1.372678e+01	-3.406923e+00
1.380607e+01	-3.434020e+00
1.388581e+01	-3.461409e+00
1.396602e+01	-3.488833e+00
1.404668e+01	-3.516422e+00
1.412782e+01	-3.544402e+00
1.420942e+01	-3.572326e+00
1.429149e+01	-3.600544e+00
1.437404e+01	-3.628770e+00
1.445706e+01	-3.657236e+00
1.454057e+01	-3.685644e+00
1.462455e+01	-3.714560e+00
1.470902e+01	-3.743046e+00
1.479398e+01	-3.772013e+00
1.487943e+01	-3.801150e+00
1.496537e+01	-3.830412e+00
1.505181e+01	-3.859866e+00
1.513875e+01	-3.889559e+00
1.522619e+01	-3.918974e+00
1.531414e+01	-3.948863e+00
1.540259e+01	-3.978842e+00
1.549156e+01	-4.008917e+00
1.558103e+01	-4.039160e+00
1.567103e+01	-4.069558e+00
1.576155e+01	-4.099676e+00
1.585258e+01	-4.130825e+00
1.594415e+01	-4.161596e+00
1.603624e+01	-4.192630e+00
1.612886e+01	-4.223471e+00
1.622202e+01	-4.254621e+00
1.631572e+01	-4.285627e+00
1.640996e+01	-4.317277e+00
1.650474e+01	-4.348932e+00
1.660008e+01	-4.380668e+00
1.669596e+01	-4.412652e+00
1.679239e+01	-4.444323e+00
1.688938e+01	-4.476316e+00
1.698694e+01	-4.508899e+00
1.708505e+01	-4.541210e+00
1.718373e+01	-4.573855e+00
1.728299e+01	-4.606417e+00
1.738281e+01	-4.638905e+00
1.748322e+01	-4.672072e+00
1.758420e+01	-4.704871e+00
1.768576e+01	-4.738366e+00
1.778792e+01	-4.771483e+00
1.789066e+01	-4.804887e+00
1.799399e+01	-4.838455e+00
1.809793e+01	-4.872389e+00
1.820246e+01	-4.905856e+00
1.830760e+01	-4.939929e+00
1.841334e+01	-4.973985e+00
1.851969e+01	-5.008256e+00
1.862666e+01	-5.042107e+00
1.873425e+01	-5.076581e+00
1.884246e+01	-5.111391e+00
1.895129e+01	-5.146045e+00
1.906075e+01	-5.180885e+00
1.917085e+01	-5.215803e+00
1.928158e+01	-5.250551e+00
1.939295e+01	-5.285875e+00
1.950496e+01	-5.321248e+00
1.961762e+01	-5.356535e+00
1.973093e+01	-5.392167e+00
1.984490e+01	-5.427552e+00
1.995952e+01	-5.463404e+00
2.007480e+01	-5.499470e+00
2.019076e+01	-5.535420e+00
2.030738e+01	-5.571105e+00
2.042467e+01	-5.607653e+00
2.054264e+01	-5.644268e+00
2.066130e+01	-5.680424e+00
2.078064e+01	-5.717253e+00
2.090066e+01	-5.753346e+00
2.102139e+01	-5.790489e+00
2.114280e+01	-5.827135e+00
2.126492e+01	-5.864115e+00
2.138775e+01	-5.901276e+00
2.151128e+01	-5.938464e+00
2.163553e+01	-5.975985e+00
2.176050e+01	-6.013202e+00
2.188619e+01	-6.050798e+00
2.201260e+01	-6.088595e+00
2.213974e+01	-6.126189e+00
2.226762e+01	-6.164137e+00
2.239624e+01	-6.202123e+00
2.252560e+01	-6.240369e+00
2.265571e+01	-6.278728e+00
2.278656e+01	-6.316975e+00
2.291818e+01	-6.354916e+00
2.305055e+01	-6.393607e+00
2.318369e+01	-6.432142e+00
2.331760e+01	-6.471070e+00
2.345228e+01	-6.509431e+00
2.358774e+01	-6.548683e+00
2.372398e+01	-6.587596e+00
2.386101e+01	-6.626622e+00
2.399883e+01	-6.665689e+00
2.413745e+01	-6.705352e+00
2.427686e+01	-6.744541e+00
2.441709e+01	-6.783968e+00
2.455812e+01	-6.823671e+00
2.469997e+01	-6.863090e+00
2.484263e+01	-6.903169e+00
2.498612e+01	-6.942988e+00
2.513044e+01	-6.982869e+00
2.527559e+01	-7.022628e+00
2.542158e+01	-7.063089e+00
2.556842e+01	-7.103454e+00
2.571610e+01	-7.143491e+00
2.586463e+01	-7.184126e+00
2.601403e+01	-7.224565e+00
2.616428e+01	-7.264970e+00
2.631541e+01	-7.306042e+00
2.646740e+01	-7.346707e+00
2.662028e+01	-7.387304e+00
2.677404e+01	-7.428228e+00
2.692868e+01	-7.469296e+00
2.708422e+01	-7.510675e+00
2.724066e+01	-7.551873e+00
2.739800e+01	-7.593384e+00
2.755625e+01	-7.634196e+00
2.771541e+01	-7.675693e+00
2.787550e+01	-7.717678e+00
2.803650e+01	-7.759134e+00
2.819844e+01	-7.800913e+00
2.836131e+01	-7.842924e+00
2.852513e+01	-7.884248e+00
2.868989e+01	-7.925952e+00
2.885560e+01	-7.967945e+00
2.902227e+01	-8.010303e+00
2.918990e+01	-8.052875e+00
2.935850e+01	-8.094913e+00
2.952807e+01	-8.137418e+00
2.969863e+01	-8.179339e+00
2.987016e+01	-8.221638e+00
3.004269e+01	-8.264621e+00
3.021622e+01	-8.307032e+00
3.039075e+01	-8.349525e+00
3.056628e+01	-8.392676e+00
3.074283e+01	-8.435159e+00
3.092040e+01	-8.478089e+00
3.109900e+01	-8.520992e+00
3.127862e+01	-8.563956e+00
3.145929e+01	-8.607414e+00
3.164099e+01	-8.650308e+00
3.182375e+01	-8.693521e+00
3.200756e+01	-8.736852e+00
3.219244e+01	-8.780286e+00
3.237838e+01	-8.823700e+00
3.256540e+01	-8.866846e+00
3.275349e+01	-8.910620e+00
3.294268e+01	-8.953941e+00
3.313295e+01	-8.997498e+00
3.332433e+01	-9.041591e+00
3.351681e+01	-9.085541e+00
3.371040e+01	-9.128985e+00
3.390511e+01	-9.173162e+00
3.410094e+01	-9.217506e+00
3.429791e+01	-9.260929e+00
3.449601e+01	-9.305541e+00
3.469526e+01	-9.349976e+00
3.489566e+01	-9.394161e+00
3.509721e+01	-9.438402e+00
3.529993e+01	-9.482964e+00
3.550382e+01	-9.526876e+00
3.570889e+01	-9.571295e+00
3.591515e+01	-9.616098e+00
3.612259e+01	-9.660904e+00
3.633123e+01	-9.705330e+00
3.654108e+01	-9.750246e+00
3.675214e+01	-9.794596e+00
3.696442e+01	-9.839831e+00
3.717792e+01	-9.885170e+00
3.739266e+01	-9.929657e+00
3.760864e+01	-9.974589e+00
3.782587e+01	-1.001974e+01
3.804435e+01	-1.006440e+01
3.826409e+01	-1.010937e+01
3.848510e+01	-1.015514e+01
3.870739e+01	-1.020000e+01
3.893096e+01	-1.024505e+01
3.915583e+01	-1.029114e+01
3.938199e+01	-1.033573e+01
3.960946e+01	-1.038143e+01
3.983824e+01	-1.042688e+01
4.006834e+01	-1.047254e+01
4.029978e+01	-1.051795e+01
4.053255e+01	-1.056379e+01
4.076666e+01	-1.060877e+01
4.100213e+01	-1.065467e+01
4.123896e+01	-1.070037e+01
4.147715e+01	-1.074631e+01
4.171672e+01	-1.079224e+01
4.195767e+01	-1.083842e+01
4.220002e+01	-1.088460e+01
4.244377e+01	-1.092947e+01
4.268892e+01	-1.097596e+01
4.293549e+01	-1.102234e+01
4.318348e+01	-1.106823e+01
4.343291e+01	-1.111484e+01
4.368377e+01	-1.116055e+01
4.393609e+01	-1.120663e+01
4.418986e+01	-1.125326e+01
4.444510e+01	-1.129946e+01
4.470182e+01	-1.134539e+01
4.496001e+01	-1.139206e+01
4.521970e+01	-1.143837e+01
4.548089e+01	-1.148502e+01
4.574358e+01	-1.153109e+01
4.600779e+01	-1.157797e+01
4.627353e+01	-1.162438e+01
4.654081e+01	-1.167123e+01
4.680963e+01	-1.171790e+01
4.708000e+01	-1.176455e+01
4.735193e+01	-1.181158e+01
4.762543e+01	-1.185783e+01
4.790051e+01	-1.190469e+01
4.817719e+01	-1.195111e+01
4.845545e+01	-1.199796e+01
4.873533e+01	-1.204547e+01
4.901682e+01	-1.209182e+01
4.929994e+01	-1.213925e+01
4.958470e+01	-1.218614e+01
4.987110e+01	-1.223339e+01
5.015915e+01	-1.227921e+01
5.044887e+01	-1.232747e+01
5.074026e+01	-1.237405e+01
5.103333e+01	-1.242110e+01
5.132810e+01	-1.246901e+01
5.162457e+01	-1.251569e+01
5.192275e+01	-1.256317e+01
5.222265e+01	-1.261076e+01
5.252429e+01	-1.265794e+01
5.282767e+01	-1.270493e+01
5.313280e+01	-1.275256e+01
5.343969e+01	-1.279968e+01
5.374836e+01	-1.284723e+01
5.405880e+01	-1.289482e+01
5.437105e+01	-1.294199e+01
5.468509e+01	-1.298975e+01
5.500095e+01	-1.303691e+01
5.531863e+01	-1.308372e+01
5.563815e+01	-1.313239e+01
5.595951e+01	-1.318000e+01
5.628273e+01	-1.322812e+01
5.660782e+01	-1.327521e+01
5.693479e+01	-1.332256e+01
5.726364e+01	-1.337020e+01
5.759439e+01	-1.341804e+01
5.792705e+01	-1.346619e+01
5.826164e+01	-1.351329e+01
5.859815e+01	-1.356171e+01
5.893662e+01	-1.360840e+01
5.927703e+01	-1.365703e+01
5.961941e+01	-1.370535e+01
5.996377e+01	-1.375341e+01
6.031012e+01	-1.380100e+01
6.065847e+01	-1.384878e+01
6.100883e+01	-1.389624e+01
6.136121e+01	-1.394545e+01
6.171563e+01	-1.399298e+01
6.207210e+01	-1.404176e+01
6.243063e+01	-1.408805e+01
6.279122e+01	-1.413696e+01
6.315390e+01	-1.418479e+01
6.351868e+01	-1.423403e+01
6.388556e+01	-1.428186e+01
6.425456e+01	-1.433021e+01
6.462569e+01	-1.437834e+01
6.499897e+01	-1.442607e+01
6.537440e+01	-1.447453e+01
6.575200e+01	-1.452225e+01
6.613178e+01	-1.457121e+01
6.651375e+01	-1.461896e+01
6.689793e+01	-1.466769e+01
6.728433e+01	-1.471617e+01
6.767297e+01	-1.476329e+01
6.806384e+01	-1.481211e+01
6.845698e+01	-1.486082e+01
6.885238e+01	-1.490944e+01
6.925007e+01	-1.495755e+01
6.965005e+01	-1.500621e+01
7.005235e+01	-1.505424e+01
7.045697e+01	-1.510332e+01
7.086393e+01	-1.515158e+01
7.127323e+01	-1.520068e+01
7.168490e+01	-1.524831e+01
7.209895e+01	-1.529715e+01
7.251539e+01	-1.534490e+01
7.293424e+01	-1.539499e+01
7.335551e+01	-1.544309e+01
7.377920e+01	-1.549133e+01
7.420535e+01	-1.554036e+01
7.463396e+01	-1.558782e+01
7.506504e+01	-1.563717e+01
7.549861e+01	-1.568568e+01
7.593469e+01	-1.573504e+01
7.637328e+01	-1.578338e+01
7.681441e+01	-1.583205e+01
7.725809e+01	-1.588101e+01
7.770433e+01	-1.592939e+01
7.815315e+01	-1.597936e+01
7.860456e+01	-1.602714e+01
7.905857e+01	-1.607719e+01
7.951521e+01	-1.612517e+01
7.997449e+01	-1.617513e+01
8.043642e+01	-1.622161e+01
8.090102e+01	-1.627163e+01
8.136830e+01	-1.632042e+01
8.183828e+01	-1.636868e+01
8.231097e+01	-1.641705e+01
8.278640e+01	-1.646729e+01
8.326457e+01	-1.651607e+01
8.374550e+01	-1.656488e+01
8.422921e+01	-1.661424e+01
8.471572e+01	-1.666231e+01
8.520503e+01	-1.671055e+01
8.569717e+01	-1.676174e+01
8.619215e+01	-1.680845e+01
8.669000e+01	-1.685819e+01
8.719071e+01	-1.690770e+01
8.769432e+01	-1.695634e+01
8.820084e+01	-1.700567e+01
8.871029e+01	-1.705481e+01
8.922267e+01	-1.710315e+01
8.973802e+01	-1.715318e+01
9.025634e+01	-1.720239e+01
9.077766e+01	-1.725015e+01
9.130199e+01	-1.729887e+01
9.182935e+01	-1.734861e+01
9.235975e+01	-1.739833e+01
9.289321e+01	-1.744633e+01
9.342976e+01	-1.749614e+01
9.396941e+01	-1.754548e+01
9.451217e+01	-1.759622e+01
9.505807e+01	-1.764398e+01
9.560712e+01	-1.769380e+01
9.615934e+01	-1.774134e+01
9.671476e+01	-1.779081e+01
9.727338e+01	-1.784076e+01
9.783522e+01	-1.789003e+01
9.840032e+01	-1.793916e+01
9.896867e+01	-1.798734e+01
9.954031e+01	-1.803682e+01
1.001153e+02	-1.808643e+01
1.006935e+02	-1.813513e+01
1.012751e+02	-1.818525e+01
1.018601e+02	-1.823452e+01
1.024484e+02	-1.828393e+01
1.030402e+02	-1.833280e+01
1.036353e+02	-1.838270e+01
1.042339e+02	-1.843286e+01
1.048360e+02	-1.848143e+01
1.054415e+02	-1.853149e+01
1.060505e+02	-1.857952e+01
1.066631e+02	-1.862897e+01
1.072791e+02	-1.867814e+01
1.078988e+02	-1.872722e+01
1.085220e+02	-1.877680e+01
1.091488e+02	-1.882556e+01
1.097793e+02	-1.887505e+01
1.104133e+02	-1.892615e+01
1.110511e+02	-1.897448e+01
1.116925e+02	-1.902333e+01
1.123376e+02	-1.907245e+01
1.129865e+02	-1.912217e+01
1.136391e+02	-1.917258e+01
1.142955e+02	-1.922366e+01
1.149556e+02	-1.927139e+01
1.156196e+02	-1.932058e+01
1.162874e+02	-1.936848e+01
1.169591e+02	-1.942010e+01
1.176347e+02	-1.946812e+01
1.183141e+02	-1.951844e+01
1.189975e+02	-1.956723e+01
1.196848e+02	-1.961789e+01
1.203761e+02	-1.966632e+01
1.210714e+02	-1.971674e+01
1.217707e+02	-1.976645e+01
1.224740e+02	-1.981485e+01
1.231814e+02	-1.986416e+01
1.238929e+02	-1.991442e+01
1.246085e+02	-1.996446e+01
1.253283e+02	-2.001224e+01
1.260522e+02	-2.006368e+01
1.267802e+02	-2.011401e+01
1.275125e+02	-2.016393e+01
1.282490e+02	-2.021159e+01
1.289898e+02	-2.026046e+01
1.297348e+02	-2.031036e+01
1.304842e+02	-2.035852e+01
1.312378e+02	-2.041011e+01
1.319959e+02	-2.046059e+01
1.327583e+02	-2.050977e+01
1.335251e+02	-2.055851e+01
1.342963e+02	-2.060859e+01
1.350720e+02	-2.065775e+01
1.358522e+02	-2.070821e+01
1.366368e+02	-2.075564e+01
1.374260e+02	-2.080664e+01
1.382198e+02	-2.085673e+01
1.390182e+02	-2.090553e+01
1.398211e+02	-2.095620e+01
1.406287e+02	-2.100644e+01
1.414410e+02	-2.105487e+01
1.422579e+02	-2.110392e+01
1.430796e+02	-2.115439e+01
1.439060e+02	-2.120340e+01
1.447372e+02	-2.125259e+01
1.455732e+02	-2.130444e+01
1.464141e+02	-2.135217e+01
1.472597e+02	-2.140370e+01
1.481103e+02	-2.145440e+01
1.489658e+02	-2.150234e+01
1.498262e+02	-2.155249e+01
1.506916e+02	-2.160014e+01
1.515620e+02	-2.165077e+01
1.524374e+02	-2.170250e+01
1.533179e+02	-2.175053e+01
1.542034e+02	-2.179897e+01
1.550941e+02	-2.185032e+01
1.559899e+02	-2.190001e+01
1.568909e+02	-2.195021e+01
1.577971e+02	-2.199926e+01
1.587085e+02	-2.204797e+01
1.596252e+02	-2.209834e+01
1.605472e+02	-2.214755e+01
1.614745e+02	-2.219866e+01
1.624072e+02	-2.224832e+01
1.633453e+02	-2.229630e+01
1.642887e+02	-2.234802e+01
1.652377e+02	-2.239737e+01
1.661921e+02	-2.244788e+01
1.671520e+02	-2.249743e+01
1.681175e+02	-2.254630e+01
1.690885e+02	-2.259594e+01
1.700651e+02	-2.264539e+01
1.710474e+02	-2.269529e+01
1.720354e+02	-2.274257e+01
1.730291e+02	-2.279471e+01
1.740285e+02	-2.284596e+01
1.750337e+02	-2.289570e+01
1.760446e+02	-2.294477e+01
1.770615e+02	-2.299245e+01
1.780842e+02	-2.304793e+01
1.791128e+02	-2.309527e+01
1.801473e+02	-2.314401e+01
1.811878e+02	-2.319513e+01
1.822344e+02	-2.324092e+01
1.832870e+02	-2.329287e+01
1.843456e+02	-2.334167e+01
1.854104e+02	-2.339364e+01
1.864813e+02	-2.344292e+01
1.875584e+02	-2.349388e+01
1.886418e+02	-2.354330e+01
1.897313e+02	-2.359190e+01
1.908272e+02	-2.364183e+01
1.919294e+02	-2.369351e+01
1.930380e+02	-2.374232e+01
1.941530e+02	-2.379059e+01
1.952744e+02	-2.384208e+01
1.964023e+02	-2.389199e+01
1.975367e+02	-2.393930e+01
1.986777e+02	-2.399054e+01
1.998252e+02	-2.404112e+01
2.009794e+02	-2.409119e+01
2.021403e+02	-2.414271e+01
2.033078e+02	-2.418898e+01
2.044821e+02	-2.424022e+01
2.056632e+02	-2.428995e+01
2.068511e+02	-2.433807e+01
2.080459e+02	-2.438489e+01
2.092475e+02	-2.443902e+01
2.104561e+02	-2.448950e+01
2.116717e+02	-2.454247e+01
2.128943e+02	-2.458872e+01
2.141240e+02	-2.464127e+01
2.153608e+02	-2.468772e+01
2.166047e+02	-2.473866e+01
2.178558e+02	-2.479014e+01
2.191141e+02	-2.484056e+01
2.203797e+02	-2.488920e+01
2.216526e+02	-2.493789e+01
2.229329e+02	-2.498992e+01
2.242205e+02	-2.503770e+01
2.255156e+02	-2.508567e+01
2.268182e+02	-2.513958e+01
2.281283e+02	-2.518999e+01
2.294459e+02	-2.523600e+01
2.307712e+02	-2.528548e+01
2.321041e+02	-2.533564e+01
2.334447e+02	-2.538835e+01
2.347931e+02	-2.543357e+01
2.361493e+02	-2.548684e+01
2.375133e+02	-2.553697e+01
2.388851e+02	-2.558783e+01
2.402649e+02	-2.563792e+01
2.416527e+02	-2.568878e+01
2.430484e+02	-2.573859e+01
2.444523e+02	-2.578653e+01
2.458642e+02	-2.583743e+01
2.472843e+02	-2.588959e+01
2.487126e+02	-2.593763e+01
2.501492e+02	-2.598813e+01
2.515940e+02	-2.603562e+01
2.530472e+02	-2.608726e+01
2.545088e+02	-2.613848e+01
2.559789e+02	-2.618629e+01
2.574574e+02	-2.623542e+01
2.589444e+02	-2.628496e+01
2.604401e+02	-2.633669e+01
2.619444e+02	-2.638420e+01
2.634574e+02	-2.643650e+01
2.649791e+02	-2.648713e+01
2.665096e+02	-2.653399e+01
2.680489e+02	-2.658785e+01
2.695972e+02	-2.663831e+01
2.711544e+02	-2.668434e+01
2.727205e+02	-2.673889e+01
2.742958e+02	-2.678881e+01
2.758801e+02	-2.683541e+01
2.774736e+02	-2.688410e+01
2.790762e+02	-2.693558e+01
2.806882e+02	-2.698868e+01
2.823094e+02	-2.703321e+01
2.839400e+02	-2.708476e+01
2.855800e+02	-2.713420e+01
2.872295e+02	-2.718863e+01
2.888886e+02	-2.723825e+01
2.905572e+02	-2.728579e+01
2.922354e+02	-2.733633e+01
2.939234e+02	-2.738503e+01
2.956211e+02	-2.743594e+01
2.973286e+02	-2.748428e+01
2.990459e+02	-2.753698e+01
3.007732e+02	-2.758689e+01
3.025104e+02	-2.763229e+01
3.042577e+02	-2.768296e+01
3.060151e+02	-2.773321e+01
3.077826e+02	-2.778845e+01
3.095604e+02	-2.783230e+01
3.113484e+02	-2.788245e+01
3.131467e+02	-2.793837e+01
3.149554e+02	-2.798252e+01
3.167746e+02	-2.803632e+01
3.186043e+02	-2.808523e+01
3.204445e+02	-2.813258e+01
3.222954e+02	-2.818342e+01
3.241570e+02	-2.823643e+01
3.260293e+02	-2.828584e+01
3.279124e+02	-2.833819e+01
3.298064e+02	-2.838996e+01
3.317114e+02	-2.843696e+01
3.336273e+02	-2.848893e+01
3.355544e+02	-2.853355e+01
3.374925e+02	-2.858630e+01
3.394418e+02	-2.863142e+01
3.414024e+02	-2.868083e+01
3.433744e+02	-2.873947e+01
3.453577e+02	-2.878710e+01
3.473525e+02	-2.883161e+01
3.493588e+02	-2.888122e+01
3.513766e+02	-2.893804e+01
3.534062e+02	-2.898503e+01
3.554474e+02	-2.903718e+01
3.575005e+02	-2.908937e+01
3.595654e+02	-2.913245e+01
3.616422e+02	-2.918751e+01
3.637311e+02	-2.923733e+01
3.658320e+02	-2.928462e+01
3.679450e+02	-2.933751e+01
3.700702e+02	-2.938872e+01
3.722077e+02	-2.943252e+01
3.743576e+02	-2.948671e+01
3.765199e+02	-2.953373e+01
3.786946e+02	-2.959210e+01
3.808820e+02	-2.963559e+01
3.830819e+02	-2.968690e+01
3.852946e+02	-2.973572e+01
3.875200e+02	-2.978662e+01
3.897583e+02	-2.983566e+01
3.920096e+02	-2.989222e+01
3.942738e+02	-2.993769e+01
3.965511e+02	-2.999258e+01
3.988416e+02	-3.003456e+01
4.011452e+02	-3.008644e+01
4.034622e+02	-3.013702e+01
4.057926e+02	-3.018442e+01
4.081365e+02	-3.024020e+01
4.104938e+02	-3.028139e+01
4.128648e+02	-3.033949e+01
4.152495e+02	-3.038896e+01
4.176480e+02	-3.043137e+01
4.200603e+02	-3.048966e+01
4.224866e+02	-3.053927e+01
4.249268e+02	-3.059148e+01
4.273812e+02	-3.063280e+01
4.298497e+02	-3.068346e+01
4.323325e+02	-3.074121e+01
4.348297e+02	-3.079245e+01
4.373412e+02	-3.084350e+01
4.398673e+02	-3.088889e+01
4.424079e+02	-3.093766e+01
4.449633e+02	-3.098619e+01
4.475334e+02	-3.104500e+01
4.501183e+02	-3.108692e+01
4.527182e+02	-3.114389e+01
4.553330e+02	-3.119449e+01
4.579630e+02	-3.124009e+01
4.606082e+02	-3.129241e+01
4.632687e+02	-3.134089e+01
4.659445e+02	-3.139040e+01
4.686358e+02	-3.144268e+01
4.713426e+02	-3.149009e+01
4.740650e+02	-3.154257e+01
4.768032e+02	-3.158915e+01
4.795572e+02	-3.163874e+01
4.823271e+02	-3.168640e+01
4.851130e+02	-3.174830e+01
4.879150e+02	-3.179124e+01
4.907332e+02	-3.184142e+01
4.935676e+02	-3.189718e+01
4.964185e+02	-3.194800e+01
4.992858e+02	-3.198905e+01
5.021696e+02	-3.204296e+01
5.050701e+02	-3.209205e+01
5.079874e+02	-3.214281e+01
5.109215e+02	-3.218712e+01
5.138726e+02	-3.224256e+01
5.168407e+02	-3.229172e+01
5.198259e+02	-3.234563e+01
5.228284e+02	-3.239562e+01
5.258482e+02	-3.244266e+01
5.288855e+02	-3.249906e+01
5.319403e+02	-3.254406e+01
5.350128e+02	-3.259779e+01
5.381030e+02	-3.264987e+01
5.412111e+02	-3.269534e+01
5.443371e+02	-3.274526e+01
5.474812e+02	-3.279092e+01
5.506434e+02	-3.285138e+01
5.538239e+02	-3.290066e+01
5.570228e+02	-3.293877e+01
5.602401e+02	-3.299276e+01
5.634760e+02	-3.305248e+01
5.667306e+02	-3.308930e+01
5.700040e+02	-3.314837e+01
5.732964e+02	-3.320402e+01
5.766077e+02	-3.325404e+01
5.799382e+02	-3.329731e+01
5.832879e+02	-3.334890e+01
5.866569e+02	-3.339745e+01
5.900454e+02	-3.344239e+01
5.934535e+02	-3.350356e+01
5.968813e+02	-3.354857e+01
6.003288e+02	-3.359995e+01
6.037963e+02	-3.365307e+01
6.072838e+02	-3.369811e+01
6.107914e+02	-3.375007e+01
6.143194e+02	-3.380278e+01
6.178676e+02	-3.385335e+01
6.214364e+02	-3.390214e+01
6.250258e+02	-3.394621e+01
6.286359e+02	-3.400804e+01
6.322669e+02	-3.405704e+01
6.359189e+02	-3.410408e+01
6.395919e+02	-3.415078e+01
6.432862e+02	-3.419933e+01
6.470017e+02	-3.426335e+01
6.507388e+02	-3.430535e+01
6.544974e+02	-3.436052e+01
6.582778e+02	-3.440545e+01
6.620800e+02	-3.445342e+01
6.659041e+02	-3.450625e+01
6.697504e+02	-3.454638e+01
6.736188e+02	-3.460513e+01
6.775096e+02	-3.465704e+01
6.814229e+02	-3.470950e+01
6.853587e+02	-3.475214e+01
6.893173e+02	-3.480572e+01
6.932988e+02	-3.486510e+01
6.973033e+02	-3.491308e+01
7.013309e+02	-3.495018e+01
