Frequency(Hz)	Magnitude(dB)
1.000000e+01	-1.773285e-05
1.005776e+01	-1.793829e-05
1.011585e+01	-1.814611e-05
1.017428e+01	-1.835634e-05
1.023305e+01	-1.856900e-05
1.029215e+01	-1.878413e-05
1.035160e+01	-1.900175e-05
1.041139e+01	-1.922189e-05
1.047153e+01	-1.944458e-05
1.053201e+01	-1.966985e-05
1.059284e+01	-1.989773e-05
1.065403e+01	-2.012825e-05
1.071556e+01	-2.036144e-05
1.077746e+01	-2.059733e-05
1.083971e+01	-2.083595e-05
1.090232e+01	-2.107734e-05
1.096529e+01	-2.132153e-05
1.102862e+01	-2.156855e-05
1.109232e+01	-2.181842e-05
1.115639e+01	-2.207120e-05
1.122083e+01	-2.232690e-05
1.128564e+01	-2.258556e-05
1.135083e+01	-2.284722e-05
1.141639e+01	-2.311191e-05
1.148233e+01	-2.337967e-05
1.154865e+01	-2.365052e-05
1.161536e+01	-2.392452e-05
1.168245e+01	-2.420169e-05
1.174992e+01	-2.448208e-05
1.181779e+01	-2.476571e-05
1.188605e+01	-2.505262e-05
1.195470e+01	-2.534286e-05
1.202375e+01	-2.563647e-05
1.209320e+01	-2.593347e-05
1.216305e+01	-2.623392e-05
1.223330e+01	-2.653784e-05
1.230396e+01	-2.684529e-05
1.237503e+01	-2.715630e-05
1.244651e+01	-2.747091e-05
1.251840e+01	-2.778917e-05
1.259070e+01	-2.811112e-05
1.266343e+01	-2.843679e-05
1.273657e+01	-2.876624e-05
1.281014e+01	-2.909950e-05
1.288413e+01	-2.943662e-05
1.295855e+01	-2.977766e-05
1.303339e+01	-3.012264e-05
1.310867e+01	-3.047161e-05
1.318439e+01	-3.082464e-05
1.326054e+01	-3.118175e-05
1.333713e+01	-3.154299e-05
1.341417e+01	-3.190843e-05
1.349165e+01	-3.227809e-05
1.356958e+01	-3.265204e-05
1.364795e+01	-3.303033e-05
1.372678e+01	-3.341299e-05
1.380607e+01	-3.380009e-05
1.388581e+01	-3.419167e-05
1.396602e+01	-3.458779e-05
1.404668e+01	-3.498849e-05
1.412782e+01	-3.539384e-05
1.420942e+01	-3.580389e-05
1.429149e+01	-3.621869e-05
1.437404e+01	-3.663829e-05
1.445706e+01	-3.706275e-05
1.454057e+01	-3.749213e-05
1.462455e+01	-3.792649e-05
1.470902e+01	-3.836587e-05
1.479398e+01	-3.881035e-05
1.487943e+01	-3.925998e-05
1.496537e+01	-3.971481e-05
1.505181e+01	-4.017492e-05
1.513875e+01	-4.064035e-05
1.522619e+01	-4.111118e-05
1.531414e+01	-4.158746e-05
1.540259e+01	-4.206926e-05
1.549156e+01	-4.255665e-05
1.558103e+01	-4.304967e-05
1.567103e+01	-4.354841e-05
1.576155e+01	-4.405293e-05
1.585258e+01	-4.456330e-05
1.594415e+01	-4.507957e-05
1.603624e+01	-4.560183e-05
1.612886e+01	-4.613013e-05
1.622202e+01	-4.666456e-05
1.631572e+01	-4.720518e-05
1.640996e+01	-4.775206e-05
1.650474e+01	-4.830528e-05
1.660008e+01	-4.886491e-05
1.669596e+01	-4.943102e-05
1.679239e+01	-5.000369e-05
1.688938e+01	-5.058299e-05
1.698694e+01	-5.116901e-05
1.708505e+01	-5.176181e-05
1.718373e+01	-5.236148e-05
1.728299e+01	-5.296810e-05
1.738281e+01	-5.358175e-05
1.748322e+01	-5.420250e-05
1.758420e+01	-5.483045e-05
1.768576e+01	-5.546567e-05
1.778792e+01	-5.610825e-05
1.789066e+01	-5.675828e-05
1.799399e+01	-5.741583e-05
1.809793e+01	-5.808101e-05
1.820246e+01	-5.875389e-05
1.830760e+01	-5.943456e-05
1.841334e+01	-6.012313e-05
1.851969e+01	-6.081966e-05
1.862666e+01	-6.152427e-05
1.873425e+01	-6.223704e-05
1.884246e+01	-6.295807e-05
1.895129e+01	-6.368745e-05
1.906075e+01	-6.442528e-05
1.917085e+01	-6.517166e-05
1.928158e+01	-6.592669e-05
1.939295e+01	-6.669046e-05
1.950496e+01	-6.746308e-05
1.961762e+01	-6.824466e-05
1.973093e+01	-6.903528e-05
1.984490e+01	-6.983507e-05
1.995952e+01	-7.064412e-05
2.007480e+01	-7.146255e-05
2.019076e+01	-7.229045e-05
2.030738e+01	-7.312795e-05
2.042467e+01	-7.397515e-05
2.054264e+01	-7.483217e-05
2.066130e+01	-7.569911e-05
2.078064e+01	-7.657610e-05
2.090066e+01	-7.746325e-05
2.102139e+01	-7.836067e-05
2.114280e+01	-7.926850e-05
2.126492e+01	-8.018683e-05
2.138775e+01	-8.111581e-05
2.151128e+01	-8.205555e-05
2.163553e+01	-8.300618e-05
2.176050e+01	-8.396782e-05
2.188619e+01	-8.494060e-05
2.201260e+01	-8.592465e-05
2.213974e+01	-8.692010e-05
2.226762e+01	-8.792709e-05
2.239624e+01	-8.894574e-05
2.252560e+01	-8.997619e-05
2.265571e+01	-9.101858e-05
2.278656e+01	-9.207304e-05
2.291818e+01	-9.313972e-05
2.305055e+01	-9.421876e-05
2.318369e+01	-9.531030e-05
2.331760e+01	-9.641448e-05
2.345228e+01	-9.753146e-05
2.358774e+01	-9.866138e-05
2.372398e+01	-9.980438e-05
2.386101e+01	-1.009606e-04
2.399883e+01	-1.021303e-04
2.413745e+01	-1.033135e-04
2.427686e+01	-1.045104e-04
2.441709e+01	-1.057211e-04
2.455812e+01	-1.069459e-04
2.469997e+01	-1.081849e-04
2.484263e+01	-1.094382e-04
2.498612e+01	-1.107061e-04
2.513044e+01	-1.119886e-04
2.527559e+01	-1.132861e-04
2.542158e+01	-1.145985e-04
2.556842e+01	-1.159261e-04
2.571610e+01	-1.172691e-04
2.586463e+01	-1.186277e-04
2.601403e+01	-1.200020e-04
2.616428e+01	-1.213923e-04
2.631541e+01	-1.227986e-04
2.646740e+01	-1.242213e-04
2.662028e+01	-1.256604e-04
2.677404e+01	-1.271162e-04
2.692868e+01	-1.285888e-04
2.708422e+01	-1.300785e-04
2.724066e+01	-1.315855e-04
2.739800e+01	-1.331099e-04
2.755625e+01	-1.346520e-04
2.771541e+01	-1.362120e-04
2.787550e+01	-1.377900e-04
2.803650e+01	-1.393863e-04
2.819844e+01	-1.410011e-04
2.836131e+01	-1.426346e-04
2.852513e+01	-1.442871e-04
2.868989e+01	-1.459586e-04
2.885560e+01	-1.476496e-04
2.902227e+01	-1.493601e-04
2.918990e+01	-1.510905e-04
2.935850e+01	-1.528409e-04
2.952807e+01	-1.546115e-04
2.969863e+01	-1.564027e-04
2.987016e+01	-1.582147e-04
3.004269e+01	-1.600476e-04
3.021622e+01	-1.619017e-04
3.039075e+01	-1.637774e-04
3.056628e+01	-1.656748e-04
3.074283e+01	-1.675941e-04
3.092040e+01	-1.695357e-04
3.109900e+01	-1.714998e-04
3.127862e+01	-1.734866e-04
3.145929e+01	-1.754965e-04
3.164099e+01	-1.775296e-04
3.182375e+01	-1.795863e-04
3.200756e+01	-1.816668e-04
3.219244e+01	-1.837714e-04
3.237838e+01	-1.859004e-04
3.256540e+01	-1.880541e-04
3.275349e+01	-1.902327e-04
3.294268e+01	-1.924365e-04
3.313295e+01	-1.946659e-04
3.332433e+01	-1.969211e-04
3.351681e+01	-1.992025e-04
3.371040e+01	-2.015102e-04
3.390511e+01	-2.038447e-04
3.410094e+01	-2.062063e-04
3.429791e+01	-2.085952e-04
3.449601e+01	-2.110117e-04
3.469526e+01	-2.134563e-04
3.489566e+01	-2.159292e-04
3.509721e+01	-2.184307e-04
3.529993e+01	-2.209612e-04
3.550382e+01	-2.235211e-04
3.570889e+01	-2.261106e-04
3.591515e+01	-2.287300e-04
3.612259e+01	-2.313799e-04
3.633123e+01	-2.340604e-04
3.654108e+01	-2.367720e-04
3.675214e+01	-2.395150e-04
3.696442e+01	-2.422897e-04
3.717792e+01	-2.450967e-04
3.739266e+01	-2.479361e-04
3.760864e+01	-2.508084e-04
3.782587e+01	-2.537140e-04
3.804435e+01	-2.566533e-04
3.826409e+01	-2.596266e-04
3.848510e+01	-2.626343e-04
3.870739e+01	-2.656769e-04
3.893096e+01	-2.687548e-04
3.915583e+01	-2.718683e-04
3.938199e+01	-2.750179e-04
3.960946e+01	-2.782039e-04
3.983824e+01	-2.814269e-04
4.006834e+01	-2.846872e-04
4.029978e+01	-2.879853e-04
4.053255e+01	-2.913215e-04
4.076666e+01	-2.946965e-04
4.100213e+01	-2.981105e-04
4.123896e+01	-3.015641e-04
4.147715e+01	-3.050576e-04
4.171672e+01	-3.085917e-04
4.195767e+01	-3.121667e-04
4.220002e+01	-3.157831e-04
4.244377e+01	-3.194414e-04
4.268892e+01	-3.231421e-04
4.293549e+01	-3.268856e-04
4.318348e+01	-3.306725e-04
4.343291e+01	-3.345033e-04
4.368377e+01	-3.383785e-04
4.393609e+01	-3.422985e-04
4.418986e+01	-3.462640e-04
4.444510e+01	-3.502754e-04
4.470182e+01	-3.543333e-04
4.496001e+01	-3.584382e-04
4.521970e+01	-3.625906e-04
4.548089e+01	-3.667911e-04
4.574358e+01	-3.710403e-04
4.600779e+01	-3.753387e-04
4.627353e+01	-3.796870e-04
4.654081e+01	-3.840855e-04
4.680963e+01	-3.885351e-04
4.708000e+01	-3.930362e-04
4.735193e+01	-3.975894e-04
4.762543e+01	-4.021954e-04
4.790051e+01	-4.068547e-04
4.817719e+01	-4.115680e-04
4.845545e+01	-4.163359e-04
4.873533e+01	-4.211590e-04
4.901682e+01	-4.260380e-04
4.929994e+01	-4.309735e-04
4.958470e+01	-4.359662e-04
4.987110e+01	-4.410168e-04
5.015915e+01	-4.461258e-04
5.044887e+01	-4.512940e-04
5.074026e+01	-4.565221e-04
5.103333e+01	-4.618108e-04
5.132810e+01	-4.671607e-04
5.162457e+01	-4.725726e-04
5.192275e+01	-4.780472e-04
5.222265e+01	-4.835852e-04
5.252429e+01	-4.891873e-04
5.282767e+01	-4.948544e-04
5.313280e+01	-5.005871e-04
5.343969e+01	-5.063862e-04
5.374836e+01	-5.122525e-04
5.405880e+01	-5.181867e-04
5.437105e+01	-5.241897e-04
5.468509e+01	-5.302622e-04
5.500095e+01	-5.364050e-04
5.531863e+01	-5.426190e-04
5.563815e+01	-5.489050e-04
5.595951e+01	-5.552638e-04
5.628273e+01	-5.616963e-04
5.660782e+01	-5.682033e-04
5.693479e+01	-5.747856e-04
5.726364e+01	-5.814442e-04
5.759439e+01	-5.881800e-04
5.792705e+01	-5.949937e-04
5.826164e+01	-6.018864e-04
5.859815e+01	-6.088590e-04
5.893662e+01	-6.159123e-04
5.927703e+01	-6.230473e-04
5.961941e+01	-6.302649e-04
5.996377e+01	-6.375662e-04
6.031012e+01	-6.449520e-04
6.065847e+01	-6.524234e-04
6.100883e+01	-6.599813e-04
6.136121e+01	-6.676268e-04
6.171563e+01	-6.753608e-04
6.207210e+01	-6.831845e-04
6.243063e+01	-6.910987e-04
6.279122e+01	-6.991046e-04
6.315390e+01	-7.072033e-04
6.351868e+01	-7.153958e-04
6.388556e+01	-7.236831e-04
6.425456e+01	-7.320665e-04
6.462569e+01	-7.405470e-04
6.499897e+01	-7.491257e-04
6.537440e+01	-7.578037e-04
6.575200e+01	-7.665823e-04
6.613178e+01	-7.754626e-04
6.651375e+01	-7.844457e-04
6.689793e+01	-7.935329e-04
6.728433e+01	-8.027254e-04
6.767297e+01	-8.120243e-04
6.806384e+01	-8.214309e-04
6.845698e+01	-8.309465e-04
6.885238e+01	-8.405723e-04
6.925007e+01	-8.503096e-04
6.965005e+01	-8.601597e-04
7.005235e+01	-8.701239e-04
7.045697e+01	-8.802035e-04
7.086393e+01	-8.903999e-04
7.127323e+01	-9.007143e-04
7.168490e+01	-9.111483e-04
7.209895e+01	-9.217030e-04
7.251539e+01	-9.323801e-04
7.293424e+01	-9.431808e-04
7.335551e+01	-9.541066e-04
7.377920e+01	-9.651589e-04
7.420535e+01	-9.763393e-04
7.463396e+01	-9.876492e-04
7.506504e+01	-9.990901e-04
7.549861e+01	-1.010663e-03
7.593469e+01	-1.022371e-03
7.637328e+01	-1.034214e-03
7.681441e+01	-1.046194e-03
7.725809e+01	-1.058313e-03
7.770433e+01	-1.070572e-03
7.815315e+01	-1.082974e-03
7.860456e+01	-1.095519e-03
7.905857e+01	-1.108209e-03
7.951521e+01	-1.121046e-03
7.997449e+01	-1.134032e-03
8.043642e+01	-1.147168e-03
8.090102e+01	-1.160457e-03
8.136830e+01	-1.173899e-03
8.183828e+01	-1.187497e-03
8.231097e+01	-1.201253e-03
8.278640e+01	-1.215168e-03
8.326457e+01	-1.229244e-03
8.374550e+01	-1.243483e-03
8.422921e+01	-1.257887e-03
8.471572e+01	-1.272458e-03
8.520503e+01	-1.287197e-03
8.569717e+01	-1.302108e-03
8.619215e+01	-1.317191e-03
8.669000e+01	-1.332448e-03
8.719071e+01	-1.347883e-03
8.769432e+01	-1.363496e-03
8.820084e+01	-1.379290e-03
8.871029e+01	-1.395267e-03
8.922267e+01	-1.411429e-03
8.973802e+01	-1.427778e-03
9.025634e+01	-1.444316e-03
9.077766e+01	-1.461046e-03
9.130199e+01	-1.477970e-03
9.182935e+01	-1.495090e-03
9.235975e+01	-1.512408e-03
9.289321e+01	-1.529926e-03
9.342976e+01	-1.547648e-03
9.396941e+01	-1.565574e-03
9.451217e+01	-1.583709e-03
9.505807e+01	-1.602053e-03
9.560712e+01	-1.620610e-03
9.615934e+01	-1.639381e-03
9.671476e+01	-1.658370e-03
9.727338e+01	-1.677579e-03
9.783522e+01	-1.697011e-03
9.840032e+01	-1.716667e-03
9.896867e+01	-1.736551e-03
9.954031e+01	-1.756666e-03
1.001153e+02	-1.777013e-03
1.006935e+02	-1.797596e-03
1.012751e+02	-1.818417e-03
1.018601e+02	-1.839479e-03
1.024484e+02	-1.860786e-03
1.030402e+02	-1.882339e-03
1.036353e+02	-1.904141e-03
1.042339e+02	-1.926196e-03
1.048360e+02	-1.948507e-03
1.054415e+02	-1.971076e-03
1.060505e+02	-1.993906e-03
1.066631e+02	-2.017001e-03
1.072791e+02	-2.040363e-03
1.078988e+02	-2.063995e-03
1.085220e+02	-2.087901e-03
1.091488e+02	-2.112084e-03
1.097793e+02	-2.136547e-03
1.104133e+02	-2.161294e-03
1.110511e+02	-2.186326e-03
1.116925e+02	-2.211649e-03
1.123376e+02	-2.237265e-03
1.129865e+02	-2.263178e-03
1.136391e+02	-2.289390e-03
1.142955e+02	-2.315906e-03
1.149556e+02	-2.342730e-03
1.156196e+02	-2.369863e-03
1.162874e+02	-2.397311e-03
1.169591e+02	-2.425077e-03
1.176347e+02	-2.453164e-03
1.183141e+02	-2.481577e-03
1.189975e+02	-2.510318e-03
1.196848e+02	-2.539392e-03
1.203761e+02	-2.568803e-03
1.210714e+02	-2.598554e-03
1.217707e+02	-2.628650e-03
1.224740e+02	-2.659094e-03
1.231814e+02	-2.689891e-03
1.238929e+02	-2.721045e-03
1.246085e+02	-2.752559e-03
1.253283e+02	-2.784437e-03
1.260522e+02	-2.816685e-03
1.267802e+02	-2.849307e-03
1.275125e+02	-2.882306e-03
1.282490e+02	-2.915687e-03
1.289898e+02	-2.949454e-03
1.297348e+02	-2.983613e-03
1.304842e+02	-3.018167e-03
1.312378e+02	-3.053121e-03
1.319959e+02	-3.088479e-03
1.327583e+02	-3.124247e-03
1.335251e+02	-3.160429e-03
1.342963e+02	-3.197030e-03
1.350720e+02	-3.234055e-03
1.358522e+02	-3.271508e-03
1.366368e+02	-3.309395e-03
1.374260e+02	-3.347720e-03
1.382198e+02	-3.386489e-03
1.390182e+02	-3.425707e-03
1.398211e+02	-3.465379e-03
1.406287e+02	-3.505510e-03
1.414410e+02	-3.546106e-03
1.422579e+02	-3.587171e-03
1.430796e+02	-3.628712e-03
1.439060e+02	-3.670734e-03
1.447372e+02	-3.713242e-03
1.455732e+02	-3.756243e-03
1.464141e+02	-3.799741e-03
1.472597e+02	-3.843742e-03
1.481103e+02	-3.888253e-03
1.489658e+02	-3.933279e-03
1.498262e+02	-3.978826e-03
1.506916e+02	-4.024900e-03
1.515620e+02	-4.071508e-03
1.524374e+02	-4.118655e-03
1.533179e+02	-4.166348e-03
1.542034e+02	-4.214592e-03
1.550941e+02	-4.263396e-03
1.559899e+02	-4.312764e-03
1.568909e+02	-4.362703e-03
1.577971e+02	-4.413220e-03
1.587085e+02	-4.464322e-03
1.596252e+02	-4.516016e-03
1.605472e+02	-4.568307e-03
1.614745e+02	-4.621204e-03
1.624072e+02	-4.674713e-03
1.633453e+02	-4.728841e-03
1.642887e+02	-4.783596e-03
1.652377e+02	-4.838984e-03
1.661921e+02	-4.895013e-03
1.671520e+02	-4.951691e-03
1.681175e+02	-5.009024e-03
1.690885e+02	-5.067021e-03
1.700651e+02	-5.125689e-03
1.710474e+02	-5.185036e-03
1.720354e+02	-5.245070e-03
1.730291e+02	-5.305798e-03
1.740285e+02	-5.367229e-03
1.750337e+02	-5.429371e-03
1.760446e+02	-5.492232e-03
1.770615e+02	-5.555820e-03
1.780842e+02	-5.620144e-03
1.791128e+02	-5.685212e-03
1.801473e+02	-5.751033e-03
1.811878e+02	-5.817615e-03
1.822344e+02	-5.884968e-03
1.832870e+02	-5.953100e-03
1.843456e+02	-6.022020e-03
1.854104e+02	-6.091738e-03
1.864813e+02	-6.162262e-03
1.875584e+02	-6.233602e-03
1.886418e+02	-6.305767e-03
1.897313e+02	-6.378768e-03
1.908272e+02	-6.452612e-03
1.919294e+02	-6.527311e-03
1.930380e+02	-6.602874e-03
1.941530e+02	-6.679311e-03
1.952744e+02	-6.756632e-03
1.964023e+02	-6.834848e-03
1.975367e+02	-6.913968e-03
1.986777e+02	-6.994004e-03
1.998252e+02	-7.074965e-03
2.009794e+02	-7.156862e-03
2.021403e+02	-7.239707e-03
2.033078e+02	-7.323510e-03
2.044821e+02	-7.408282e-03
2.056632e+02	-7.494035e-03
2.068511e+02	-7.580779e-03
2.080459e+02	-7.668527e-03
2.092475e+02	-7.757289e-03
2.104561e+02	-7.847078e-03
2.116717e+02	-7.937905e-03
2.128943e+02	-8.029782e-03
2.141240e+02	-8.122722e-03
2.153608e+02	-8.216737e-03
2.166047e+02	-8.311838e-03
2.178558e+02	-8.408039e-03
2.191141e+02	-8.505353e-03
2.203797e+02	-8.603792e-03
2.216526e+02	-8.703369e-03
2.229329e+02	-8.804097e-03
2.242205e+02	-8.905990e-03
2.255156e+02	-9.009061e-03
2.268182e+02	-9.113323e-03
2.281283e+02	-9.218791e-03
2.294459e+02	-9.325478e-03
2.307712e+02	-9.433398e-03
2.321041e+02	-9.542566e-03
2.334447e+02	-9.652996e-03
2.347931e+02	-9.764702e-03
2.361493e+02	-9.877700e-03
2.375133e+02	-9.992004e-03
2.388851e+02	-1.010763e-02
2.402649e+02	-1.022459e-02
2.416527e+02	-1.034290e-02
2.430484e+02	-1.046258e-02
2.444523e+02	-1.058365e-02
2.458642e+02	-1.070611e-02
2.472843e+02	-1.082999e-02
2.487126e+02	-1.095530e-02
2.501492e+02	-1.108205e-02
2.515940e+02	-1.121028e-02
2.530472e+02	-1.133998e-02
2.545088e+02	-1.147118e-02
2.559789e+02	-1.160390e-02
2.574574e+02	-1.173815e-02
2.589444e+02	-1.187396e-02
2.604401e+02	-1.201133e-02
2.619444e+02	-1.215029e-02
2.634574e+02	-1.229085e-02
2.649791e+02	-1.243304e-02
2.665096e+02	-1.257687e-02
2.680489e+02	-1.272236e-02
2.695972e+02	-1.286953e-02
2.711544e+02	-1.301841e-02
2.727205e+02	-1.316900e-02
2.742958e+02	-1.332133e-02
2.758801e+02	-1.347542e-02
2.774736e+02	-1.363129e-02
2.790762e+02	-1.378896e-02
2.806882e+02	-1.394845e-02
2.823094e+02	-1.410979e-02
2.839400e+02	-1.427298e-02
2.855800e+02	-1.443806e-02
2.872295e+02	-1.460505e-02
2.888886e+02	-1.477396e-02
2.905572e+02	-1.494483e-02
2.922354e+02	-1.511767e-02
2.939234e+02	-1.529250e-02
2.956211e+02	-1.546935e-02
2.973286e+02	-1.564824e-02
2.990459e+02	-1.582920e-02
3.007732e+02	-1.601225e-02
3.025104e+02	-1.619740e-02
3.042577e+02	-1.638470e-02
3.060151e+02	-1.657416e-02
3.077826e+02	-1.676580e-02
3.095604e+02	-1.695966e-02
3.113484e+02	-1.715575e-02
3.131467e+02	-1.735411e-02
3.149554e+02	-1.755475e-02
3.167746e+02	-1.775771e-02
3.186043e+02	-1.796301e-02
3.204445e+02	-1.817068e-02
3.222954e+02	-1.838074e-02
3.241570e+02	-1.859323e-02
3.260293e+02	-1.880817e-02
3.279124e+02	-1.902559e-02
3.298064e+02	-1.924552e-02
3.317114e+02	-1.946798e-02
3.336273e+02	-1.969301e-02
3.355544e+02	-1.992063e-02
3.374925e+02	-2.015088e-02
3.394418e+02	-2.038378e-02
3.414024e+02	-2.061937e-02
3.433744e+02	-2.085768e-02
3.453577e+02	-2.109873e-02
3.473525e+02	-2.134256e-02
3.493588e+02	-2.158920e-02
3.513766e+02	-2.183869e-02
3.534062e+02	-2.209105e-02
3.554474e+02	-2.234632e-02
3.575005e+02	-2.260453e-02
3.595654e+02	-2.286572e-02
3.616422e+02	-2.312992e-02
3.637311e+02	-2.339716e-02
3.658320e+02	-2.366748e-02
3.679450e+02	-2.394092e-02
3.700702e+02	-2.421750e-02
3.722077e+02	-2.449728e-02
3.743576e+02	-2.478027e-02
3.765199e+02	-2.506653e-02
3.786946e+02	-2.535608e-02
3.808820e+02	-2.564896e-02
3.830819e+02	-2.594522e-02
3.852946e+02	-2.624489e-02
3.875200e+02	-2.654802e-02
3.897583e+02	-2.685463e-02
3.920096e+02	-2.716477e-02
3.942738e+02	-2.747848e-02
3.965511e+02	-2.779581e-02
3.988416e+02	-2.811678e-02
4.011452e+02	-2.844145e-02
4.034622e+02	-2.876986e-02
4.057926e+02	-2.910205e-02
4.081365e+02	-2.943805e-02
4.104938e+02	-2.977793e-02
4.128648e+02	-3.012171e-02
4.152495e+02	-3.046945e-02
4.176480e+02	-3.082119e-02
4.200603e+02	-3.117698e-02
4.224866e+02	-3.153686e-02
4.249268e+02	-3.190088e-02
4.273812e+02	-3.226908e-02
4.298497e+02	-3.264152e-02
4.323325e+02	-3.301824e-02
4.348297e+02	-3.339929e-02
4.373412e+02	-3.378472e-02
4.398673e+02	-3.417458e-02
4.424079e+02	-3.456892e-02
4.449633e+02	-3.496779e-02
4.475334e+02	-3.537125e-02
4.501183e+02	-3.577934e-02
4.527182e+02	-3.619212e-02
4.553330e+02	-3.660965e-02
4.579630e+02	-3.703197e-02
4.606082e+02	-3.745914e-02
4.632687e+02	-3.789121e-02
4.659445e+02	-3.832825e-02
4.686358e+02	-3.877031e-02
4.713426e+02	-3.921744e-02
4.740650e+02	-3.966970e-02
4.768032e+02	-4.012716e-02
4.795572e+02	-4.058986e-02
4.823271e+02	-4.105788e-02
4.851130e+02	-4.153127e-02
4.879150e+02	-4.201009e-02
4.907332e+02	-4.249440e-02
4.935676e+02	-4.298426e-02
4.964185e+02	-4.347975e-02
4.992858e+02	-4.398092e-02
5.021696e+02	-4.448783e-02
5.050701e+02	-4.500056e-02
5.079874e+02	-4.551917e-02
5.109215e+02	-4.604372e-02
5.138726e+02	-4.657428e-02
5.168407e+02	-4.711093e-02
5.198259e+02	-4.765372e-02
5.228284e+02	-4.820273e-02
5.258482e+02	-4.875803e-02
5.288855e+02	-4.931969e-02
5.319403e+02	-4.988779e-02
5.350128e+02	-5.046239e-02
5.381030e+02	-5.104357e-02
5.412111e+02	-5.163140e-02
5.443371e+02	-5.222596e-02
5.474812e+02	-5.282733e-02
5.506434e+02	-5.343557e-02
5.538239e+02	-5.405078e-02
5.570228e+02	-5.467303e-02
5.602401e+02	-5.530239e-02
5.634760e+02	-5.593895e-02
5.667306e+02	-5.658279e-02
5.700040e+02	-5.723400e-02
5.732964e+02	-5.789264e-02
5.766077e+02	-5.855882e-02
5.799382e+02	-5.923261e-02
5.832879e+02	-5.991409e-02
5.866569e+02	-6.060337e-02
5.900454e+02	-6.130051e-02
5.934535e+02	-6.200562e-02
5.968813e+02	-6.271878e-02
6.003288e+02	-6.344009e-02
6.037963e+02	-6.416962e-02
6.072838e+02	-6.490749e-02
6.107914e+02	-6.565377e-02
6.143194e+02	-6.640857e-02
6.178676e+02	-6.717198e-02
6.214364e+02	-6.794409e-02
6.250258e+02	-6.872501e-02
6.286359e+02	-6.951484e-02
6.322669e+02	-7.031366e-02
6.359189e+02	-7.112160e-02
6.395919e+02	-7.193873e-02
6.432862e+02	-7.276518e-02
6.470017e+02	-7.360104e-02
6.507388e+02	-7.444642e-02
6.544974e+02	-7.530143e-02
6.582778e+02	-7.616617e-02
6.620800e+02	-7.704075e-02
6.659041e+02	-7.792528e-02
6.697504e+02	-7.881988e-02
6.736188e+02	-7.972465e-02
6.775096e+02	-8.063971e-02
6.814229e+02	-8.156517e-02
6.853587e+02	-8.250116e-02
6.893173e+02	-8.344778e-02
6.932988e+02	-8.440516e-02
6.973033e+02	-8.537341e-02
7.013309e+02	-8.635266e-02
