Frequency(Hz)	Magnitude(dB)
1.000000e+01	-1.907421e-05
1.005776e+01	-1.929519e-05
1.011585e+01	-1.951873e-05
1.017428e+01	-1.974486e-05
1.023305e+01	-1.997361e-05
1.029215e+01	-2.020501e-05
1.035160e+01	-2.043909e-05
1.041139e+01	-2.067588e-05
1.047153e+01	-2.091542e-05
1.053201e+01	-2.115773e-05
1.059284e+01	-2.140284e-05
1.065403e+01	-2.165080e-05
1.071556e+01	-2.190163e-05
1.077746e+01	-2.215537e-05
1.083971e+01	-2.241204e-05
1.090232e+01	-2.267169e-05
1.096529e+01	-2.293435e-05
1.102862e+01	-2.320005e-05
1.109232e+01	-2.346883e-05
1.115639e+01	-2.374072e-05
1.122083e+01	-2.401576e-05
1.128564e+01	-2.429399e-05
1.135083e+01	-2.457544e-05
1.141639e+01	-2.486016e-05
1.148233e+01	-2.514817e-05
1.154865e+01	-2.543951e-05
1.161536e+01	-2.573424e-05
1.168245e+01	-2.603237e-05
1.174992e+01	-2.633397e-05
1.181779e+01	-2.663905e-05
1.188605e+01	-2.694767e-05
1.195470e+01	-2.725987e-05
1.202375e+01	-2.757568e-05
1.209320e+01	-2.789515e-05
1.216305e+01	-2.821832e-05
1.223330e+01	-2.854524e-05
1.230396e+01	-2.887594e-05
1.237503e+01	-2.921048e-05
1.244651e+01	-2.954889e-05
1.251840e+01	-2.989122e-05
1.259070e+01	-3.023751e-05
1.266343e+01	-3.058782e-05
1.273657e+01	-3.094219e-05
1.281014e+01	-3.130066e-05
1.288413e+01	-3.166329e-05
1.295855e+01	-3.203012e-05
1.303339e+01	-3.240119e-05
1.310867e+01	-3.277657e-05
1.318439e+01	-3.315629e-05
1.326054e+01	-3.354042e-05
1.333713e+01	-3.392899e-05
1.341417e+01	-3.432206e-05
1.349165e+01	-3.471969e-05
1.356958e+01	-3.512193e-05
1.364795e+01	-3.552882e-05
1.372678e+01	-3.594043e-05
1.380607e+01	-3.635681e-05
1.388581e+01	-3.677801e-05
1.396602e+01	-3.720410e-05
1.404668e+01	-3.763511e-05
1.412782e+01	-3.807113e-05
1.420942e+01	-3.851219e-05
1.429149e+01	-3.895836e-05
1.437404e+01	-3.940970e-05
1.445706e+01	-3.986627e-05
1.454057e+01	-4.032813e-05
1.462455e+01	-4.079534e-05
1.470902e+01	-4.126797e-05
1.479398e+01	-4.174606e-05
1.487943e+01	-4.222970e-05
1.496537e+01	-4.271894e-05
1.505181e+01	-4.321385e-05
1.513875e+01	-4.371449e-05
1.522619e+01	-4.422094e-05
1.531414e+01	-4.473324e-05
1.540259e+01	-4.525149e-05
1.549156e+01	-4.577574e-05
1.558103e+01	-4.630606e-05
1.567103e+01	-4.684253e-05
1.576155e+01	-4.738521e-05
1.585258e+01	-4.793417e-05
1.594415e+01	-4.848950e-05
1.603624e+01	-4.905126e-05
1.612886e+01	-4.961953e-05
1.622202e+01	-5.019439e-05
1.631572e+01	-5.077590e-05
1.640996e+01	-5.136415e-05
1.650474e+01	-5.195921e-05
1.660008e+01	-5.256117e-05
1.669596e+01	-5.317010e-05
1.679239e+01	-5.378609e-05
1.688938e+01	-5.440921e-05
1.698694e+01	-5.503955e-05
1.708505e+01	-5.567720e-05
1.718373e+01	-5.632223e-05
1.728299e+01	-5.697473e-05
1.738281e+01	-5.763480e-05
1.748322e+01	-5.830251e-05
1.758420e+01	-5.897796e-05
1.768576e+01	-5.966123e-05
1.778792e+01	-6.035241e-05
1.789066e+01	-6.105161e-05
1.799399e+01	-6.175890e-05
1.809793e+01	-6.247439e-05
1.820246e+01	-6.319817e-05
1.830760e+01	-6.393033e-05
1.841334e+01	-6.467098e-05
1.851969e+01	-6.542021e-05
1.862666e+01	-6.617811e-05
1.873425e+01	-6.694480e-05
1.884246e+01	-6.772036e-05
1.895129e+01	-6.850492e-05
1.906075e+01	-6.929856e-05
1.917085e+01	-7.010140e-05
1.928158e+01	-7.091353e-05
1.939295e+01	-7.173508e-05
1.950496e+01	-7.256615e-05
1.961762e+01	-7.340684e-05
1.973093e+01	-7.425727e-05
1.984490e+01	-7.511755e-05
1.995952e+01	-7.598780e-05
2.007480e+01	-7.686813e-05
2.019076e+01	-7.775867e-05
2.030738e+01	-7.865951e-05
2.042467e+01	-7.957080e-05
2.054264e+01	-8.049264e-05
2.066130e+01	-8.142516e-05
2.078064e+01	-8.236848e-05
2.090066e+01	-8.332274e-05
2.102139e+01	-8.428805e-05
2.114280e+01	-8.526454e-05
2.126492e+01	-8.625234e-05
2.138775e+01	-8.725159e-05
2.151128e+01	-8.826241e-05
2.163553e+01	-8.928495e-05
2.176050e+01	-9.031933e-05
2.188619e+01	-9.136569e-05
2.201260e+01	-9.242417e-05
2.213974e+01	-9.349492e-05
2.226762e+01	-9.457808e-05
2.239624e+01	-9.567378e-05
2.252560e+01	-9.678217e-05
2.265571e+01	-9.790341e-05
2.278656e+01	-9.903763e-05
2.291818e+01	-1.001850e-04
2.305055e+01	-1.013457e-04
2.318369e+01	-1.025198e-04
2.331760e+01	-1.037075e-04
2.345228e+01	-1.049089e-04
2.358774e+01	-1.061243e-04
2.372398e+01	-1.073538e-04
2.386101e+01	-1.085975e-04
2.399883e+01	-1.098556e-04
2.413745e+01	-1.111283e-04
2.427686e+01	-1.124157e-04
2.441709e+01	-1.137181e-04
2.455812e+01	-1.150355e-04
2.469997e+01	-1.163682e-04
2.484263e+01	-1.177164e-04
2.498612e+01	-1.190801e-04
2.513044e+01	-1.204597e-04
2.527559e+01	-1.218552e-04
2.542158e+01	-1.232669e-04
2.556842e+01	-1.246950e-04
2.571610e+01	-1.261396e-04
2.586463e+01	-1.276009e-04
2.601403e+01	-1.290792e-04
2.616428e+01	-1.305746e-04
2.631541e+01	-1.320873e-04
2.646740e+01	-1.336176e-04
2.662028e+01	-1.351655e-04
2.677404e+01	-1.367314e-04
2.692868e+01	-1.383155e-04
2.708422e+01	-1.399179e-04
2.724066e+01	-1.415388e-04
2.739800e+01	-1.431786e-04
2.755625e+01	-1.448373e-04
2.771541e+01	-1.465153e-04
2.787550e+01	-1.482127e-04
2.803650e+01	-1.499297e-04
2.819844e+01	-1.516667e-04
2.836131e+01	-1.534237e-04
2.852513e+01	-1.552012e-04
2.868989e+01	-1.569992e-04
2.885560e+01	-1.588180e-04
2.902227e+01	-1.606579e-04
2.918990e+01	-1.625192e-04
2.935850e+01	-1.644020e-04
2.952807e+01	-1.663066e-04
2.969863e+01	-1.682333e-04
2.987016e+01	-1.701822e-04
3.004269e+01	-1.721538e-04
3.021622e+01	-1.741482e-04
3.039075e+01	-1.761657e-04
3.056628e+01	-1.782066e-04
3.074283e+01	-1.802712e-04
3.092040e+01	-1.823596e-04
3.109900e+01	-1.844722e-04
3.127862e+01	-1.866094e-04
3.145929e+01	-1.887712e-04
3.164099e+01	-1.909582e-04
3.182375e+01	-1.931704e-04
3.200756e+01	-1.954083e-04
3.219244e+01	-1.976721e-04
3.237838e+01	-1.999621e-04
3.256540e+01	-2.022787e-04
3.275349e+01	-2.046221e-04
3.294268e+01	-2.069926e-04
3.313295e+01	-2.093907e-04
3.332433e+01	-2.118164e-04
3.351681e+01	-2.142703e-04
3.371040e+01	-2.167527e-04
3.390511e+01	-2.192637e-04
3.410094e+01	-2.218039e-04
3.429791e+01	-2.243735e-04
3.449601e+01	-2.269729e-04
3.469526e+01	-2.296023e-04
3.489566e+01	-2.322623e-04
3.509721e+01	-2.349530e-04
3.529993e+01	-2.376749e-04
3.550382e+01	-2.404284e-04
3.570889e+01	-2.432137e-04
3.591515e+01	-2.460314e-04
3.612259e+01	-2.488816e-04
3.633123e+01	-2.517649e-04
3.654108e+01	-2.546816e-04
3.675214e+01	-2.576321e-04
3.696442e+01	-2.606167e-04
3.717792e+01	-2.636359e-04
3.739266e+01	-2.666901e-04
3.760864e+01	-2.697797e-04
3.782587e+01	-2.729051e-04
3.804435e+01	-2.760667e-04
3.826409e+01	-2.792649e-04
3.848510e+01	-2.825001e-04
3.870739e+01	-2.857729e-04
3.893096e+01	-2.890835e-04
3.915583e+01	-2.924325e-04
3.938199e+01	-2.958203e-04
3.960946e+01	-2.992474e-04
3.983824e+01	-3.027141e-04
4.006834e+01	-3.062210e-04
4.029978e+01	-3.097685e-04
4.053255e+01	-3.133572e-04
4.076666e+01	-3.169873e-04
4.100213e+01	-3.206596e-04
4.123896e+01	-3.243744e-04
4.147715e+01	-3.281322e-04
4.171672e+01	-3.319336e-04
4.195767e+01	-3.357790e-04
4.220002e+01	-3.396689e-04
4.244377e+01	-3.436039e-04
4.268892e+01	-3.475845e-04
4.293549e+01	-3.516112e-04
4.318348e+01	-3.556845e-04
4.343291e+01	-3.598051e-04
4.368377e+01	-3.639733e-04
4.393609e+01	-3.681899e-04
4.418986e+01	-3.724553e-04
4.444510e+01	-3.767701e-04
4.470182e+01	-3.811349e-04
4.496001e+01	-3.855503e-04
4.521970e+01	-3.900168e-04
4.548089e+01	-3.945350e-04
4.574358e+01	-3.991056e-04
4.600779e+01	-4.037291e-04
4.627353e+01	-4.084062e-04
4.654081e+01	-4.131375e-04
4.680963e+01	-4.179236e-04
4.708000e+01	-4.227651e-04
4.735193e+01	-4.276627e-04
4.762543e+01	-4.326171e-04
4.790051e+01	-4.376288e-04
4.817719e+01	-4.426986e-04
4.845545e+01	-4.478271e-04
4.873533e+01	-4.530151e-04
4.901682e+01	-4.582631e-04
4.929994e+01	-4.635719e-04
4.958470e+01	-4.689422e-04
4.987110e+01	-4.743748e-04
5.015915e+01	-4.798702e-04
5.044887e+01	-4.854293e-04
5.074026e+01	-4.910528e-04
5.103333e+01	-4.967415e-04
5.132810e+01	-5.024961e-04
5.162457e+01	-5.083173e-04
5.192275e+01	-5.142059e-04
5.222265e+01	-5.201628e-04
5.252429e+01	-5.261886e-04
5.282767e+01	-5.322843e-04
5.313280e+01	-5.384506e-04
5.343969e+01	-5.446883e-04
5.374836e+01	-5.509983e-04
5.405880e+01	-5.573813e-04
5.437105e+01	-5.638383e-04
5.468509e+01	-5.703701e-04
5.500095e+01	-5.769776e-04
5.531863e+01	-5.836616e-04
5.563815e+01	-5.904230e-04
5.595951e+01	-5.972627e-04
5.628273e+01	-6.041817e-04
5.660782e+01	-6.111808e-04
5.693479e+01	-6.182610e-04
5.726364e+01	-6.254232e-04
5.759439e+01	-6.326684e-04
5.792705e+01	-6.399975e-04
5.826164e+01	-6.474115e-04
5.859815e+01	-6.549114e-04
5.893662e+01	-6.624981e-04
5.927703e+01	-6.701727e-04
5.961941e+01	-6.779363e-04
5.996377e+01	-6.857897e-04
6.031012e+01	-6.937342e-04
6.065847e+01	-7.017706e-04
6.100883e+01	-7.099002e-04
6.136121e+01	-7.181239e-04
6.171563e+01	-7.264428e-04
6.207210e+01	-7.348582e-04
6.243063e+01	-7.433710e-04
6.279122e+01	-7.519824e-04
6.315390e+01	-7.606935e-04
6.351868e+01	-7.695056e-04
6.388556e+01	-7.784197e-04
6.425456e+01	-7.874371e-04
6.462569e+01	-7.965590e-04
6.499897e+01	-8.057865e-04
6.537440e+01	-8.151208e-04
6.575200e+01	-8.245633e-04
6.613178e+01	-8.341152e-04
6.651375e+01	-8.437777e-04
6.689793e+01	-8.535522e-04
6.728433e+01	-8.634398e-04
6.767297e+01	-8.734420e-04
6.806384e+01	-8.835600e-04
6.845698e+01	-8.937953e-04
6.885238e+01	-9.041491e-04
6.925007e+01	-9.146228e-04
6.965005e+01	-9.252178e-04
7.005235e+01	-9.359355e-04
7.045697e+01	-9.467774e-04
7.086393e+01	-9.577449e-04
7.127323e+01	-9.688394e-04
7.168490e+01	-9.800624e-04
7.209895e+01	-9.914154e-04
7.251539e+01	-1.002900e-03
7.293424e+01	-1.014517e-03
7.335551e+01	-1.026269e-03
7.377920e+01	-1.038158e-03
7.420535e+01	-1.050184e-03
7.463396e+01	-1.062349e-03
7.506504e+01	-1.074655e-03
7.549861e+01	-1.087103e-03
7.593469e+01	-1.099696e-03
7.637328e+01	-1.112435e-03
7.681441e+01	-1.125321e-03
7.725809e+01	-1.138356e-03
7.770433e+01	-1.151543e-03
7.815315e+01	-1.164882e-03
7.860456e+01	-1.178376e-03
7.905857e+01	-1.192026e-03
7.951521e+01	-1.205834e-03
7.997449e+01	-1.219802e-03
8.043642e+01	-1.233931e-03
8.090102e+01	-1.248225e-03
8.136830e+01	-1.262684e-03
8.183828e+01	-1.277310e-03
8.231097e+01	-1.292106e-03
8.278640e+01	-1.307073e-03
8.326457e+01	-1.322213e-03
8.374550e+01	-1.337529e-03
8.422921e+01	-1.353023e-03
8.471572e+01	-1.368695e-03
8.520503e+01	-1.384549e-03
8.569717e+01	-1.400587e-03
8.619215e+01	-1.416811e-03
8.669000e+01	-1.433222e-03
8.719071e+01	-1.449824e-03
8.769432e+01	-1.466617e-03
8.820084e+01	-1.483606e-03
8.871029e+01	-1.500791e-03
8.922267e+01	-1.518175e-03
8.973802e+01	-1.535760e-03
9.025634e+01	-1.553549e-03
9.077766e+01	-1.571544e-03
9.130199e+01	-1.589747e-03
9.182935e+01	-1.608162e-03
9.235975e+01	-1.626789e-03
9.289321e+01	-1.645632e-03
9.342976e+01	-1.664694e-03
9.396941e+01	-1.683976e-03
9.451217e+01	-1.703482e-03
9.505807e+01	-1.723213e-03
9.560712e+01	-1.743173e-03
9.615934e+01	-1.763364e-03
9.671476e+01	-1.783789e-03
9.727338e+01	-1.804450e-03
9.783522e+01	-1.825351e-03
9.840032e+01	-1.846493e-03
9.896867e+01	-1.867881e-03
9.954031e+01	-1.889516e-03
1.001153e+02	-1.911402e-03
1.006935e+02	-1.933541e-03
1.012751e+02	-1.955937e-03
1.018601e+02	-1.978591e-03
1.024484e+02	-2.001509e-03
1.030402e+02	-2.024691e-03
1.036353e+02	-2.048142e-03
1.042339e+02	-2.071865e-03
1.048360e+02	-2.095862e-03
1.054415e+02	-2.120137e-03
1.060505e+02	-2.144694e-03
1.066631e+02	-2.169534e-03
1.072791e+02	-2.194663e-03
1.078988e+02	-2.220082e-03
1.085220e+02	-2.245795e-03
1.091488e+02	-2.271807e-03
1.097793e+02	-2.298119e-03
1.104133e+02	-2.324737e-03
1.110511e+02	-2.351662e-03
1.116925e+02	-2.378899e-03
1.123376e+02	-2.406452e-03
1.129865e+02	-2.434323e-03
1.136391e+02	-2.462517e-03
1.142955e+02	-2.491038e-03
1.149556e+02	-2.519889e-03
1.156196e+02	-2.549074e-03
1.162874e+02	-2.578597e-03
1.169591e+02	-2.608462e-03
1.176347e+02	-2.638672e-03
1.183141e+02	-2.669233e-03
1.189975e+02	-2.700147e-03
1.196848e+02	-2.731419e-03
1.203761e+02	-2.763053e-03
1.210714e+02	-2.795053e-03
1.217707e+02	-2.827424e-03
1.224740e+02	-2.860170e-03
1.231814e+02	-2.893295e-03
1.238929e+02	-2.926803e-03
1.246085e+02	-2.960699e-03
1.253283e+02	-2.994988e-03
1.260522e+02	-3.029674e-03
1.267802e+02	-3.064761e-03
1.275125e+02	-3.100254e-03
1.282490e+02	-3.136158e-03
1.289898e+02	-3.172478e-03
1.297348e+02	-3.209219e-03
1.304842e+02	-3.246384e-03
1.312378e+02	-3.283980e-03
1.319959e+02	-3.322012e-03
1.327583e+02	-3.360483e-03
1.335251e+02	-3.399400e-03
1.342963e+02	-3.438767e-03
1.350720e+02	-3.478590e-03
1.358522e+02	-3.518874e-03
1.366368e+02	-3.559625e-03
1.374260e+02	-3.600847e-03
1.382198e+02	-3.642546e-03
1.390182e+02	-3.684728e-03
1.398211e+02	-3.727398e-03
1.406287e+02	-3.770562e-03
1.414410e+02	-3.814226e-03
1.422579e+02	-3.858395e-03
1.430796e+02	-3.903076e-03
1.439060e+02	-3.948273e-03
1.447372e+02	-3.993994e-03
1.455732e+02	-4.040244e-03
1.464141e+02	-4.087029e-03
1.472597e+02	-4.134356e-03
1.481103e+02	-4.182230e-03
1.489658e+02	-4.230659e-03
1.498262e+02	-4.279648e-03
1.506916e+02	-4.329204e-03
1.515620e+02	-4.379334e-03
1.524374e+02	-4.430044e-03
1.533179e+02	-4.481340e-03
1.542034e+02	-4.533231e-03
1.550941e+02	-4.585721e-03
1.559899e+02	-4.638820e-03
1.568909e+02	-4.692533e-03
1.577971e+02	-4.746867e-03
1.587085e+02	-4.801830e-03
1.596252e+02	-4.857430e-03
1.605472e+02	-4.913672e-03
1.614745e+02	-4.970566e-03
1.624072e+02	-5.028118e-03
1.633453e+02	-5.086336e-03
1.642887e+02	-5.145227e-03
1.652377e+02	-5.204800e-03
1.661921e+02	-5.265063e-03
1.671520e+02	-5.326022e-03
1.681175e+02	-5.387687e-03
1.690885e+02	-5.450066e-03
1.700651e+02	-5.513166e-03
1.710474e+02	-5.576996e-03
1.720354e+02	-5.641565e-03
1.730291e+02	-5.706881e-03
1.740285e+02	-5.772953e-03
1.750337e+02	-5.839789e-03
1.760446e+02	-5.907398e-03
1.770615e+02	-5.975790e-03
1.780842e+02	-6.044973e-03
1.791128e+02	-6.114956e-03
1.801473e+02	-6.185749e-03
1.811878e+02	-6.257361e-03
1.822344e+02	-6.329801e-03
1.832870e+02	-6.403079e-03
1.843456e+02	-6.477205e-03
1.854104e+02	-6.552188e-03
1.864813e+02	-6.628039e-03
1.875584e+02	-6.704767e-03
1.886418e+02	-6.782383e-03
1.897313e+02	-6.860896e-03
1.908272e+02	-6.940318e-03
1.919294e+02	-7.020658e-03
1.930380e+02	-7.101928e-03
1.941530e+02	-7.184137e-03
1.952744e+02	-7.267297e-03
1.964023e+02	-7.351419e-03
1.975367e+02	-7.436514e-03
1.986777e+02	-7.522594e-03
1.998252e+02	-7.609668e-03
2.009794e+02	-7.697750e-03
2.021403e+02	-7.786850e-03
2.033078e+02	-7.876981e-03
2.044821e+02	-7.968154e-03
2.056632e+02	-8.060381e-03
2.068511e+02	-8.153675e-03
2.080459e+02	-8.248047e-03
2.092475e+02	-8.343511e-03
2.104561e+02	-8.440078e-03
2.116717e+02	-8.537763e-03
2.128943e+02	-8.636576e-03
2.141240e+02	-8.736532e-03
2.153608e+02	-8.837644e-03
2.166047e+02	-8.939925e-03
2.178558e+02	-9.043388e-03
2.191141e+02	-9.148047e-03
2.203797e+02	-9.253917e-03
2.216526e+02	-9.361010e-03
2.229329e+02	-9.469341e-03
2.242205e+02	-9.578924e-03
2.255156e+02	-9.689775e-03
2.268182e+02	-9.801906e-03
2.281283e+02	-9.915334e-03
2.294459e+02	-1.003007e-02
2.307712e+02	-1.014614e-02
2.321041e+02	-1.026354e-02
2.334447e+02	-1.038231e-02
2.347931e+02	-1.050244e-02
2.361493e+02	-1.062397e-02
2.375133e+02	-1.074690e-02
2.388851e+02	-1.087125e-02
2.402649e+02	-1.099703e-02
2.416527e+02	-1.112427e-02
2.430484e+02	-1.125298e-02
2.444523e+02	-1.138318e-02
2.458642e+02	-1.151488e-02
2.472843e+02	-1.164810e-02
2.487126e+02	-1.178287e-02
2.501492e+02	-1.191919e-02
2.515940e+02	-1.205708e-02
2.530472e+02	-1.219657e-02
2.545088e+02	-1.233767e-02
2.559789e+02	-1.248040e-02
2.574574e+02	-1.262477e-02
2.589444e+02	-1.277082e-02
2.604401e+02	-1.291855e-02
2.619444e+02	-1.306799e-02
2.634574e+02	-1.321916e-02
2.649791e+02	-1.337207e-02
2.665096e+02	-1.352674e-02
2.680489e+02	-1.368321e-02
2.695972e+02	-1.384148e-02
2.711544e+02	-1.400158e-02
2.727205e+02	-1.416352e-02
2.742958e+02	-1.432734e-02
2.758801e+02	-1.449305e-02
2.774736e+02	-1.466067e-02
2.790762e+02	-1.483023e-02
2.806882e+02	-1.500174e-02
2.823094e+02	-1.517523e-02
2.839400e+02	-1.535073e-02
2.855800e+02	-1.552826e-02
2.872295e+02	-1.570783e-02
2.888886e+02	-1.588947e-02
2.905572e+02	-1.607322e-02
2.922354e+02	-1.625908e-02
2.939234e+02	-1.644709e-02
2.956211e+02	-1.663726e-02
2.973286e+02	-1.682964e-02
2.990459e+02	-1.702423e-02
3.007732e+02	-1.722107e-02
3.025104e+02	-1.742018e-02
3.042577e+02	-1.762158e-02
3.060151e+02	-1.782531e-02
3.077826e+02	-1.803139e-02
3.095604e+02	-1.823985e-02
3.113484e+02	-1.845072e-02
3.131467e+02	-1.866401e-02
3.149554e+02	-1.887977e-02
3.167746e+02	-1.909801e-02
3.186043e+02	-1.931877e-02
3.204445e+02	-1.954208e-02
3.222954e+02	-1.976797e-02
3.241570e+02	-1.999645e-02
3.260293e+02	-2.022758e-02
3.279124e+02	-2.046136e-02
3.298064e+02	-2.069785e-02
3.317114e+02	-2.093706e-02
3.336273e+02	-2.117903e-02
3.355544e+02	-2.142378e-02
3.374925e+02	-2.167136e-02
3.394418e+02	-2.192180e-02
3.414024e+02	-2.217512e-02
3.433744e+02	-2.243136e-02
3.453577e+02	-2.269055e-02
3.473525e+02	-2.295273e-02
3.493588e+02	-2.321793e-02
3.513766e+02	-2.348618e-02
3.534062e+02	-2.375753e-02
3.554474e+02	-2.403201e-02
3.575005e+02	-2.430964e-02
3.595654e+02	-2.459048e-02
3.616422e+02	-2.487454e-02
3.637311e+02	-2.516189e-02
3.658320e+02	-2.545254e-02
3.679450e+02	-2.574653e-02
3.700702e+02	-2.604392e-02
3.722077e+02	-2.634473e-02
3.743576e+02	-2.664900e-02
3.765199e+02	-2.695677e-02
3.786946e+02	-2.726809e-02
3.808820e+02	-2.758299e-02
3.830819e+02	-2.790152e-02
3.852946e+02	-2.822371e-02
3.875200e+02	-2.854962e-02
3.897583e+02	-2.887927e-02
3.920096e+02	-2.921271e-02
3.942738e+02	-2.955000e-02
3.965511e+02	-2.989116e-02
3.988416e+02	-3.023625e-02
4.011452e+02	-3.058531e-02
4.034622e+02	-3.093838e-02
4.057926e+02	-3.129552e-02
4.081365e+02	-3.165676e-02
4.104938e+02	-3.202215e-02
4.128648e+02	-3.239175e-02
4.152495e+02	-3.276560e-02
4.176480e+02	-3.314375e-02
4.200603e+02	-3.352624e-02
4.224866e+02	-3.391313e-02
4.249268e+02	-3.430447e-02
4.273812e+02	-3.470031e-02
4.298497e+02	-3.510069e-02
4.323325e+02	-3.550567e-02
4.348297e+02	-3.591531e-02
4.373412e+02	-3.632966e-02
4.398673e+02	-3.674876e-02
4.424079e+02	-3.717268e-02
4.449633e+02	-3.760147e-02
4.475334e+02	-3.803518e-02
4.501183e+02	-3.847387e-02
4.527182e+02	-3.891760e-02
4.553330e+02	-3.936642e-02
4.579630e+02	-3.982040e-02
4.606082e+02	-4.027959e-02
4.632687e+02	-4.074404e-02
4.659445e+02	-4.121383e-02
4.686358e+02	-4.168901e-02
4.713426e+02	-4.216964e-02
4.740650e+02	-4.265578e-02
4.768032e+02	-4.314750e-02
4.795572e+02	-4.364486e-02
4.823271e+02	-4.414792e-02
4.851130e+02	-4.465676e-02
4.879150e+02	-4.517142e-02
4.907332e+02	-4.569199e-02
4.935676e+02	-4.621852e-02
4.964185e+02	-4.675109e-02
4.992858e+02	-4.728976e-02
5.021696e+02	-4.783460e-02
5.050701e+02	-4.838569e-02
5.079874e+02	-4.894309e-02
5.109215e+02	-4.950687e-02
5.138726e+02	-5.007711e-02
5.168407e+02	-5.065388e-02
5.198259e+02	-5.123725e-02
5.228284e+02	-5.182731e-02
5.258482e+02	-5.242411e-02
5.288855e+02	-5.302775e-02
5.319403e+02	-5.363829e-02
5.350128e+02	-5.425582e-02
5.381030e+02	-5.488042e-02
5.412111e+02	-5.551215e-02
5.443371e+02	-5.615112e-02
5.474812e+02	-5.679739e-02
5.506434e+02	-5.745104e-02
5.538239e+02	-5.811217e-02
5.570228e+02	-5.878086e-02
5.602401e+02	-5.945719e-02
5.634760e+02	-6.014124e-02
5.667306e+02	-6.083312e-02
5.700040e+02	-6.153289e-02
5.732964e+02	-6.224066e-02
5.766077e+02	-6.295650e-02
5.799382e+02	-6.368052e-02
5.832879e+02	-6.441281e-02
5.866569e+02	-6.515345e-02
5.900454e+02	-6.590254e-02
5.934535e+02	-6.666018e-02
5.968813e+02	-6.742646e-02
6.003288e+02	-6.820149e-02
6.037963e+02	-6.898534e-02
6.072838e+02	-6.977814e-02
6.107914e+02	-7.057997e-02
6.143194e+02	-7.139094e-02
6.178676e+02	-7.221115e-02
6.214364e+02	-7.304071e-02
6.250258e+02	-7.387971e-02
6.286359e+02	-7.472827e-02
6.322669e+02	-7.558649e-02
6.359189e+02	-7.645447e-02
6.395919e+02	-7.733234e-02
6.432862e+02	-7.822020e-02
6.470017e+02	-7.911815e-02
6.507388e+02	-8.002632e-02
6.544974e+02	-8.094482e-02
6.582778e+02	-8.187376e-02
6.620800e+02	-8.281325e-02
6.659041e+02	-8.376343e-02
6.697504e+02	-8.472440e-02
6.736188e+02	-8.569628e-02
6.775096e+02	-8.667920e-02
6.814229e+02	-8.767329e-02
6.853587e+02	-8.867865e-02
6.893173e+02	-8.969543e-02
6.932988e+02	-9.072374e-02
6.973033e+02	-9.176372e-02
7.013309e+02	-9.281549e-02
