Frequency(Hz)	Magnitude(dB)
1.000000e+01	-2.329809e+00
1.005776e+01	-2.350594e+00
1.011585e+01	-2.371963e+00
1.017428e+01	-2.392843e+00
1.023305e+01	-2.414025e+00
1.029215e+01	-2.435435e+00
1.035160e+01	-2.456992e+00
1.041139e+01	-2.478508e+00
1.047153e+01	-2.500677e+00
1.053201e+01	-2.522593e+00
1.059284e+01	-2.544558e+00
1.065403e+01	-2.566808e+00
1.071556e+01	-2.589482e+00
1.077746e+01	-2.611645e+00
1.083971e+01	-2.634443e+00
1.090232e+01	-2.657203e+00
1.096529e+01	-2.680262e+00
1.102862e+01	-2.703480e+00
1.109232e+01	-2.726623e+00
1.115639e+01	-2.750042e+00
1.122083e+01	-2.773489e+00
1.128564e+01	-2.797221e+00
1.135083e+01	-2.821155e+00
1.141639e+01	-2.845284e+00
1.148233e+01	-2.869249e+00
1.154865e+01	-2.893189e+00
1.161536e+01	-2.917783e+00
1.168245e+01	-2.942377e+00
1.174992e+01	-2.967155e+00
1.181779e+01	-2.991915e+00
1.188605e+01	-3.016822e+00
1.195470e+01	-3.041897e+00
1.202375e+01	-3.067067e+00
1.209320e+01	-3.092858e+00
1.216305e+01	-3.118308e+00
1.223330e+01	-3.143938e+00
1.230396e+01	-3.169867e+00
1.237503e+01	-3.195722e+00
1.244651e+01	-3.221740e+00
1.251840e+01	-3.248086e+00
1.259070e+01	-3.274652e+00
1.266343e+01	-3.300999e+00
1.273657e+01	-3.327751e+00
1.281014e+01	-3.354801e+00
1.288413e+01	-3.381497e+00
1.295855e+01	-3.408952e+00
1.303339e+01	-3.436105e+00
1.310867e+01	-3.463490e+00
1.318439e+01	-3.491086e+00
1.326054e+01	-3.518725e+00
1.333713e+01	-3.546568e+00
1.341417e+01	-3.574661e+00
1.349165e+01	-3.602869e+00
1.356958e+01	-3.631210e+00
1.364795e+01	-3.659265e+00
1.372678e+01	-3.688056e+00
1.380607e+01	-3.716644e+00
1.388581e+01	-3.745679e+00
1.396602e+01	-3.774427e+00
1.404668e+01	-3.803613e+00
1.412782e+01	-3.832892e+00
1.420942e+01	-3.862302e+00
1.429149e+01	-3.891815e+00
1.437404e+01	-3.921464e+00
1.445706e+01	-3.951142e+00
1.454057e+01	-3.981229e+00
1.462455e+01	-4.011611e+00
1.470902e+01	-4.041901e+00
1.479398e+01	-4.071898e+00
1.487943e+01	-4.102489e+00
1.496537e+01	-4.133155e+00
1.505181e+01	-4.163891e+00
1.513875e+01	-4.194669e+00
1.522619e+01	-4.225820e+00
1.531414e+01	-4.257170e+00
1.540259e+01	-4.288314e+00
1.549156e+01	-4.319807e+00
1.558103e+01	-4.351507e+00
1.567103e+01	-4.383139e+00
1.576155e+01	-4.415081e+00
1.585258e+01	-4.446860e+00
1.594415e+01	-4.479156e+00
1.603624e+01	-4.511395e+00
1.612886e+01	-4.543784e+00
1.622202e+01	-4.576348e+00
1.631572e+01	-4.609088e+00
1.640996e+01	-4.641808e+00
1.650474e+01	-4.674534e+00
1.660008e+01	-4.707455e+00
1.669596e+01	-4.740935e+00
1.679239e+01	-4.773862e+00
1.688938e+01	-4.807397e+00
1.698694e+01	-4.841102e+00
1.708505e+01	-4.874830e+00
1.718373e+01	-4.908791e+00
1.728299e+01	-4.942389e+00
1.738281e+01	-4.976770e+00
1.748322e+01	-5.010522e+00
1.758420e+01	-5.045090e+00
1.768576e+01	-5.079740e+00
1.778792e+01	-5.113745e+00
1.789066e+01	-5.148742e+00
1.799399e+01	-5.183558e+00
1.809793e+01	-5.218387e+00
1.820246e+01	-5.253213e+00
1.830760e+01	-5.288509e+00
1.841334e+01	-5.323793e+00
1.851969e+01	-5.359174e+00
1.862666e+01	-5.394781e+00
1.873425e+01	-5.430315e+00
1.884246e+01	-5.466164e+00
1.895129e+01	-5.502202e+00
1.906075e+01	-5.537863e+00
1.917085e+01	-5.574402e+00
1.928158e+01	-5.610464e+00
1.939295e+01	-5.646832e+00
1.950496e+01	-5.683208e+00
1.961762e+01	-5.719867e+00
1.973093e+01	-5.756665e+00
1.984490e+01	-5.793154e+00
1.995952e+01	-5.830208e+00
2.007480e+01	-5.867141e+00
2.019076e+01	-5.904613e+00
2.030738e+01	-5.941589e+00
2.042467e+01	-5.979182e+00
2.054264e+01	-6.016589e+00
2.066130e+01	-6.053807e+00
2.078064e+01	-6.091913e+00
2.090066e+01	-6.129100e+00
2.102139e+01	-6.167291e+00
2.114280e+01	-6.204982e+00
2.126492e+01	-6.243483e+00
2.138775e+01	-6.281506e+00
2.151128e+01	-6.319880e+00
2.163553e+01	-6.358250e+00
2.176050e+01	-6.396710e+00
2.188619e+01	-6.435288e+00
2.201260e+01	-6.474114e+00
2.213974e+01	-6.512970e+00
2.226762e+01	-6.551839e+00
2.239624e+01	-6.590496e+00
2.252560e+01	-6.629794e+00
2.265571e+01	-6.668938e+00
2.278656e+01	-6.708083e+00
2.291818e+01	-6.747715e+00
2.305055e+01	-6.787189e+00
2.318369e+01	-6.826911e+00
2.331760e+01	-6.866494e+00
2.345228e+01	-6.906333e+00
2.358774e+01	-6.946211e+00
2.372398e+01	-6.986011e+00
2.386101e+01	-7.026476e+00
2.399883e+01	-7.066257e+00
2.413745e+01	-7.106584e+00
2.427686e+01	-7.146424e+00
2.441709e+01	-7.187461e+00
2.455812e+01	-7.228201e+00
2.469997e+01	-7.268060e+00
2.484263e+01	-7.309304e+00
2.498612e+01	-7.350161e+00
2.513044e+01	-7.390695e+00
2.527559e+01	-7.432018e+00
2.542158e+01	-7.472766e+00
2.556842e+01	-7.513799e+00
2.571610e+01	-7.555506e+00
2.586463e+01	-7.596421e+00
2.601403e+01	-7.637337e+00
2.616428e+01	-7.679266e+00
2.631541e+01	-7.720812e+00
2.646740e+01	-7.762288e+00
2.662028e+01	-7.804232e+00
2.677404e+01	-7.845529e+00
2.692868e+01	-7.887577e+00
2.708422e+01	-7.929660e+00
2.724066e+01	-7.971572e+00
2.739800e+01	-8.013692e+00
2.755625e+01	-8.055861e+00
2.771541e+01	-8.098117e+00
2.787550e+01	-8.140102e+00
2.803650e+01	-8.182728e+00
2.819844e+01	-8.225081e+00
2.836131e+01	-8.268035e+00
2.852513e+01	-8.310404e+00
2.868989e+01	-8.353006e+00
2.885560e+01	-8.395808e+00
2.902227e+01	-8.438175e+00
2.918990e+01	-8.481025e+00
2.935850e+01	-8.524674e+00
2.952807e+01	-8.567409e+00
2.969863e+01	-8.611088e+00
2.987016e+01	-8.653692e+00
3.004269e+01	-8.697105e+00
3.021622e+01	-8.740474e+00
3.039075e+01	-8.784059e+00
3.056628e+01	-8.826948e+00
3.074283e+01	-8.870584e+00
3.092040e+01	-8.913937e+00
3.109900e+01	-8.957959e+00
3.127862e+01	-9.001813e+00
3.145929e+01	-9.045441e+00
3.164099e+01	-9.089150e+00
3.182375e+01	-9.133398e+00
3.200756e+01	-9.177449e+00
3.219244e+01	-9.221033e+00
3.237838e+01	-9.264833e+00
3.256540e+01	-9.309336e+00
3.275349e+01	-9.353209e+00
3.294268e+01	-9.397451e+00
3.313295e+01	-9.441930e+00
3.332433e+01	-9.486316e+00
3.351681e+01	-9.531159e+00
3.371040e+01	-9.575702e+00
3.390511e+01	-9.619603e+00
3.410094e+01	-9.664351e+00
3.429791e+01	-9.709264e+00
3.449601e+01	-9.753487e+00
3.469526e+01	-9.798275e+00
3.489566e+01	-9.843536e+00
3.509721e+01	-9.888455e+00
3.529993e+01	-9.933164e+00
3.550382e+01	-9.978336e+00
3.570889e+01	-1.002280e+01
3.591515e+01	-1.006800e+01
3.612259e+01	-1.011314e+01
3.633123e+01	-1.015800e+01
3.654108e+01	-1.020353e+01
3.675214e+01	-1.024891e+01
3.696442e+01	-1.029397e+01
3.717792e+01	-1.033983e+01
3.739266e+01	-1.038508e+01
3.760864e+01	-1.043075e+01
3.782587e+01	-1.047613e+01
3.804435e+01	-1.052101e+01
3.826409e+01	-1.056748e+01
3.848510e+01	-1.061269e+01
3.870739e+01	-1.065892e+01
3.893096e+01	-1.070428e+01
3.915583e+01	-1.075010e+01
3.938199e+01	-1.079621e+01
3.960946e+01	-1.084133e+01
3.983824e+01	-1.088724e+01
4.006834e+01	-1.093450e+01
4.029978e+01	-1.097988e+01
4.053255e+01	-1.102569e+01
4.076666e+01	-1.107227e+01
4.100213e+01	-1.111774e+01
4.123896e+01	-1.116427e+01
4.147715e+01	-1.121088e+01
4.171672e+01	-1.125653e+01
4.195767e+01	-1.130242e+01
4.220002e+01	-1.134932e+01
4.244377e+01	-1.139606e+01
4.268892e+01	-1.144198e+01
4.293549e+01	-1.148885e+01
4.318348e+01	-1.153545e+01
4.343291e+01	-1.158143e+01
4.368377e+01	-1.162807e+01
4.393609e+01	-1.167418e+01
4.418986e+01	-1.172161e+01
4.444510e+01	-1.176845e+01
4.470182e+01	-1.181504e+01
4.496001e+01	-1.186097e+01
4.521970e+01	-1.190810e+01
4.548089e+01	-1.195590e+01
4.574358e+01	-1.200186e+01
4.600779e+01	-1.204890e+01
4.627353e+01	-1.209606e+01
4.654081e+01	-1.214235e+01
4.680963e+01	-1.218964e+01
4.708000e+01	-1.223689e+01
4.735193e+01	-1.228358e+01
4.762543e+01	-1.233065e+01
4.790051e+01	-1.237801e+01
4.817719e+01	-1.242551e+01
4.845545e+01	-1.247213e+01
4.873533e+01	-1.251995e+01
4.901682e+01	-1.256636e+01
4.929994e+01	-1.261437e+01
4.958470e+01	-1.266166e+01
4.987110e+01	-1.270900e+01
5.015915e+01	-1.275548e+01
5.044887e+01	-1.280348e+01
5.074026e+01	-1.285076e+01
5.103333e+01	-1.289798e+01
5.132810e+01	-1.294556e+01
5.162457e+01	-1.299352e+01
5.192275e+01	-1.304182e+01
5.222265e+01	-1.308864e+01
5.252429e+01	-1.313599e+01
5.282767e+01	-1.318343e+01
5.313280e+01	-1.323104e+01
5.343969e+01	-1.327905e+01
5.374836e+01	-1.332702e+01
5.405880e+01	-1.337407e+01
5.437105e+01	-1.342174e+01
5.468509e+01	-1.346952e+01
5.500095e+01	-1.351772e+01
5.531863e+01	-1.356562e+01
5.563815e+01	-1.361365e+01
5.595951e+01	-1.366212e+01
5.628273e+01	-1.370934e+01
5.660782e+01	-1.375652e+01
5.693479e+01	-1.380445e+01
5.726364e+01	-1.385231e+01
5.759439e+01	-1.390083e+01
5.792705e+01	-1.394908e+01
5.826164e+01	-1.399683e+01
5.859815e+01	-1.404540e+01
5.893662e+01	-1.409311e+01
5.927703e+01	-1.414150e+01
5.961941e+01	-1.418846e+01
5.996377e+01	-1.423723e+01
6.031012e+01	-1.428593e+01
6.065847e+01	-1.433346e+01
6.100883e+01	-1.438209e+01
6.136121e+01	-1.442998e+01
6.171563e+01	-1.447836e+01
6.207210e+01	-1.452638e+01
6.243063e+01	-1.457463e+01
6.279122e+01	-1.462335e+01
6.315390e+01	-1.467037e+01
6.351868e+01	-1.471979e+01
6.388556e+01	-1.476774e+01
6.425456e+01	-1.481632e+01
6.462569e+01	-1.486416e+01
6.499897e+01	-1.491385e+01
6.537440e+01	-1.496168e+01
6.575200e+01	-1.501046e+01
6.613178e+01	-1.505838e+01
6.651375e+01	-1.510725e+01
6.689793e+01	-1.515530e+01
6.728433e+01	-1.520335e+01
6.767297e+01	-1.525231e+01
6.806384e+01	-1.530084e+01
6.845698e+01	-1.535001e+01
6.885238e+01	-1.539808e+01
6.925007e+01	-1.544669e+01
6.965005e+01	-1.549442e+01
7.005235e+01	-1.554404e+01
7.045697e+01	-1.559282e+01
7.086393e+01	-1.564108e+01
7.127323e+01	-1.569014e+01
7.168490e+01	-1.573814e+01
7.209895e+01	-1.578705e+01
7.251539e+01	-1.583618e+01
7.293424e+01	-1.588481e+01
7.335551e+01	-1.593353e+01
7.377920e+01	-1.598268e+01
7.420535e+01	-1.603218e+01
7.463396e+01	-1.607973e+01
7.506504e+01	-1.612809e+01
7.549861e+01	-1.617810e+01
7.593469e+01	-1.622609e+01
7.637328e+01	-1.627506e+01
7.681441e+01	-1.632462e+01
7.725809e+01	-1.637228e+01
7.770433e+01	-1.642291e+01
7.815315e+01	-1.647065e+01
7.860456e+01	-1.651926e+01
7.905857e+01	-1.656788e+01
7.951521e+01	-1.661760e+01
7.997449e+01	-1.666583e+01
8.043642e+01	-1.671606e+01
8.090102e+01	-1.676418e+01
8.136830e+01	-1.681276e+01
8.183828e+01	-1.686191e+01
8.231097e+01	-1.691116e+01
8.278640e+01	-1.696099e+01
8.326457e+01	-1.700840e+01
8.374550e+01	-1.705843e+01
8.422921e+01	-1.710719e+01
8.471572e+01	-1.715598e+01
8.520503e+01	-1.720569e+01
8.569717e+01	-1.725397e+01
8.619215e+01	-1.730488e+01
8.669000e+01	-1.735302e+01
8.719071e+01	-1.740137e+01
8.769432e+01	-1.745127e+01
8.820084e+01	-1.750001e+01
8.871029e+01	-1.755007e+01
8.922267e+01	-1.759843e+01
8.973802e+01	-1.764839e+01
9.025634e+01	-1.769661e+01
9.077766e+01	-1.774673e+01
9.130199e+01	-1.779532e+01
9.182935e+01	-1.784530e+01
9.235975e+01	-1.789322e+01
9.289321e+01	-1.794215e+01
9.342976e+01	-1.799272e+01
9.396941e+01	-1.804148e+01
9.451217e+01	-1.809032e+01
9.505807e+01	-1.814071e+01
9.560712e+01	-1.818896e+01
9.615934e+01	-1.823744e+01
9.671476e+01	-1.828870e+01
9.727338e+01	-1.833640e+01
9.783522e+01	-1.838746e+01
9.840032e+01	-1.843607e+01
9.896867e+01	-1.848413e+01
9.954031e+01	-1.853442e+01
1.001153e+02	-1.858290e+01
1.006935e+02	-1.863327e+01
1.012751e+02	-1.868195e+01
1.018601e+02	-1.873140e+01
1.024484e+02	-1.878006e+01
1.030402e+02	-1.883078e+01
1.036353e+02	-1.888080e+01
1.042339e+02	-1.892898e+01
1.048360e+02	-1.897820e+01
1.054415e+02	-1.902919e+01
1.060505e+02	-1.907784e+01
1.066631e+02	-1.912684e+01
1.072791e+02	-1.917583e+01
1.078988e+02	-1.922668e+01
1.085220e+02	-1.927543e+01
1.091488e+02	-1.932420e+01
1.097793e+02	-1.937361e+01
1.104133e+02	-1.942226e+01
1.110511e+02	-1.947418e+01
1.116925e+02	-1.952414e+01
1.123376e+02	-1.957100e+01
1.129865e+02	-1.962098e+01
1.136391e+02	-1.967177e+01
1.142955e+02	-1.972160e+01
1.149556e+02	-1.977185e+01
1.156196e+02	-1.981948e+01
1.162874e+02	-1.986826e+01
1.169591e+02	-1.991814e+01
1.176347e+02	-1.996646e+01
1.183141e+02	-2.001880e+01
1.189975e+02	-2.006696e+01
1.196848e+02	-2.011534e+01
1.203761e+02	-2.016702e+01
1.210714e+02	-2.021566e+01
1.217707e+02	-2.026670e+01
1.224740e+02	-2.031354e+01
1.231814e+02	-2.036624e+01
1.238929e+02	-2.041446e+01
1.246085e+02	-2.046341e+01
1.253283e+02	-2.051294e+01
1.260522e+02	-2.056052e+01
1.267802e+02	-2.061246e+01
1.275125e+02	-2.066266e+01
1.282490e+02	-2.071149e+01
1.289898e+02	-2.076200e+01
1.297348e+02	-2.081023e+01
1.304842e+02	-2.086051e+01
1.312378e+02	-2.090994e+01
1.319959e+02	-2.095938e+01
1.327583e+02	-2.101045e+01
1.335251e+02	-2.105916e+01
1.342963e+02	-2.110776e+01
1.350720e+02	-2.116020e+01
1.358522e+02	-2.120818e+01
1.366368e+02	-2.125745e+01
1.374260e+02	-2.130757e+01
1.382198e+02	-2.135768e+01
1.390182e+02	-2.140530e+01
1.398211e+02	-2.145904e+01
1.406287e+02	-2.150530e+01
1.414410e+02	-2.155523e+01
1.422579e+02	-2.160737e+01
1.430796e+02	-2.165448e+01
1.439060e+02	-2.170583e+01
1.447372e+02	-2.175513e+01
1.455732e+02	-2.180362e+01
1.464141e+02	-2.185492e+01
1.472597e+02	-2.190570e+01
1.481103e+02	-2.195201e+01
1.489658e+02	-2.200344e+01
1.498262e+02	-2.205480e+01
1.506916e+02	-2.210244e+01
1.515620e+02	-2.215239e+01
1.524374e+02	-2.220165e+01
1.533179e+02	-2.225247e+01
1.542034e+02	-2.230005e+01
1.550941e+02	-2.235187e+01
1.559899e+02	-2.240134e+01
1.568909e+02	-2.245127e+01
1.577971e+02	-2.249941e+01
1.587085e+02	-2.254861e+01
1.596252e+02	-2.260030e+01
1.605472e+02	-2.264998e+01
1.614745e+02	-2.269702e+01
1.624072e+02	-2.275027e+01
1.633453e+02	-2.279891e+01
1.642887e+02	-2.285009e+01
1.652377e+02	-2.289869e+01
1.661921e+02	-2.294669e+01
1.671520e+02	-2.299803e+01
1.681175e+02	-2.304906e+01
1.690885e+02	-2.309797e+01
1.700651e+02	-2.314757e+01
1.710474e+02	-2.319813e+01
1.720354e+02	-2.324761e+01
1.730291e+02	-2.329723e+01
1.740285e+02	-2.334875e+01
1.750337e+02	-2.339780e+01
1.760446e+02	-2.344732e+01
1.770615e+02	-2.349818e+01
1.780842e+02	-2.354512e+01
1.791128e+02	-2.359798e+01
1.801473e+02	-2.364516e+01
1.811878e+02	-2.369573e+01
1.822344e+02	-2.374505e+01
1.832870e+02	-2.379621e+01
1.843456e+02	-2.384465e+01
1.854104e+02	-2.389370e+01
1.864813e+02	-2.394504e+01
1.875584e+02	-2.399603e+01
1.886418e+02	-2.404436e+01
1.897313e+02	-2.409361e+01
1.908272e+02	-2.414388e+01
1.919294e+02	-2.419468e+01
1.930380e+02	-2.424484e+01
1.941530e+02	-2.429526e+01
1.952744e+02	-2.434365e+01
1.964023e+02	-2.439082e+01
1.975367e+02	-2.444634e+01
1.986777e+02	-2.449465e+01
1.998252e+02	-2.454301e+01
2.009794e+02	-2.459387e+01
2.021403e+02	-2.463928e+01
2.033078e+02	-2.469255e+01
2.044821e+02	-2.474646e+01
2.056632e+02	-2.479361e+01
2.068511e+02	-2.484437e+01
2.080459e+02	-2.489623e+01
2.092475e+02	-2.494234e+01
2.104561e+02	-2.499359e+01
2.116717e+02	-2.504076e+01
2.128943e+02	-2.509256e+01
2.141240e+02	-2.514153e+01
2.153608e+02	-2.519045e+01
2.166047e+02	-2.524430e+01
2.178558e+02	-2.529272e+01
2.191141e+02	-2.534064e+01
2.203797e+02	-2.538917e+01
2.216526e+02	-2.544022e+01
2.229329e+02	-2.548992e+01
2.242205e+02	-2.554229e+01
2.255156e+02	-2.559344e+01
2.268182e+02	-2.564103e+01
2.281283e+02	-2.569030e+01
2.294459e+02	-2.574187e+01
2.307712e+02	-2.578933e+01
2.321041e+02	-2.583927e+01
2.334447e+02	-2.589114e+01
2.347931e+02	-2.594191e+01
2.361493e+02	-2.599021e+01
2.375133e+02	-2.604189e+01
2.388851e+02	-2.609107e+01
2.402649e+02	-2.614013e+01
2.416527e+02	-2.618665e+01
2.430484e+02	-2.624042e+01
2.444523e+02	-2.628933e+01
2.458642e+02	-2.634488e+01
2.472843e+02	-2.639095e+01
2.487126e+02	-2.644128e+01
2.501492e+02	-2.648978e+01
2.515940e+02	-2.654427e+01
2.530472e+02	-2.658543e+01
2.545088e+02	-2.664291e+01
2.559789e+02	-2.668971e+01
2.574574e+02	-2.673905e+01
2.589444e+02	-2.679233e+01
2.604401e+02	-2.684006e+01
2.619444e+02	-2.689160e+01
2.634574e+02	-2.694247e+01
2.649791e+02	-2.699110e+01
2.665096e+02	-2.704038e+01
2.680489e+02	-2.709110e+01
2.695972e+02	-2.713621e+01
2.711544e+02	-2.719203e+01
2.727205e+02	-2.724165e+01
2.742958e+02	-2.728857e+01
2.758801e+02	-2.733942e+01
2.774736e+02	-2.739122e+01
2.790762e+02	-2.744001e+01
2.806882e+02	-2.749256e+01
2.823094e+02	-2.753887e+01
2.839400e+02	-2.758917e+01
2.855800e+02	-2.763686e+01
2.872295e+02	-2.768981e+01
2.888886e+02	-2.773982e+01
2.905572e+02	-2.778736e+01
2.922354e+02	-2.783658e+01
2.939234e+02	-2.789120e+01
2.956211e+02	-2.793722e+01
2.973286e+02	-2.799415e+01
2.990459e+02	-2.803650e+01
3.007732e+02	-2.809470e+01
3.025104e+02	-2.814321e+01
3.042577e+02	-2.819288e+01
3.060151e+02	-2.823840e+01
3.077826e+02	-2.829011e+01
3.095604e+02	-2.834049e+01
3.113484e+02	-2.838811e+01
3.131467e+02	-2.844265e+01
3.149554e+02	-2.849057e+01
3.167746e+02	-2.853988e+01
3.186043e+02	-2.858630e+01
3.204445e+02	-2.864344e+01
3.222954e+02	-2.869114e+01
3.241570e+02	-2.873531e+01
3.260293e+02	-2.879267e+01
3.279124e+02	-2.883921e+01
3.298064e+02	-2.889271e+01
3.317114e+02	-2.893759e+01
3.336273e+02	-2.899169e+01
3.355544e+02	-2.904103e+01
3.374925e+02	-2.909295e+01
3.394418e+02	-2.913848e+01
3.414024e+02	-2.918931e+01
3.433744e+02	-2.924832e+01
3.453577e+02	-2.929192e+01
3.473525e+02	-2.934443e+01
3.493588e+02	-2.939374e+01
3.513766e+02	-2.944090e+01
3.534062e+02	-2.949271e+01
3.554474e+02	-2.954402e+01
3.575005e+02	-2.959243e+01
3.595654e+02	-2.964752e+01
3.616422e+02	-2.969330e+01
3.637311e+02	-2.974251e+01
3.658320e+02	-2.979267e+01
3.679450e+02	-2.984842e+01
3.700702e+02	-2.989138e+01
3.722077e+02	-2.994469e+01
3.743576e+02	-2.999183e+01
3.765199e+02	-3.003966e+01
3.786946e+02	-3.009218e+01
3.808820e+02	-3.014002e+01
3.830819e+02	-3.019100e+01
3.852946e+02	-3.024464e+01
3.875200e+02	-3.029617e+01
3.897583e+02	-3.034371e+01
3.920096e+02	-3.039802e+01
3.942738e+02	-3.043923e+01
3.965511e+02	-3.049158e+01
3.988416e+02	-3.054522e+01
4.011452e+02	-3.059296e+01
4.034622e+02	-3.064544e+01
4.057926e+02	-3.069255e+01
4.081365e+02	-3.074146e+01
4.104938e+02	-3.079909e+01
4.128648e+02	-3.084334e+01
4.152495e+02	-3.089881e+01
4.176480e+02	-3.094225e+01
4.200603e+02	-3.099887e+01
4.224866e+02	-3.103871e+01
4.249268e+02	-3.109207e+01
4.273812e+02	-3.114648e+01
4.298497e+02	-3.119314e+01
4.323325e+02	-3.124206e+01
4.348297e+02	-3.129165e+01
4.373412e+02	-3.134882e+01
4.398673e+02	-3.139606e+01
4.424079e+02	-3.144677e+01
4.449633e+02	-3.149567e+01
4.475334e+02	-3.154610e+01
4.501183e+02	-3.159387e+01
4.527182e+02	-3.164175e+01
4.553330e+02	-3.169500e+01
4.579630e+02	-3.174359e+01
4.606082e+02	-3.179192e+01
4.632687e+02	-3.184355e+01
4.659445e+02	-3.189698e+01
4.686358e+02	-3.194039e+01
4.713426e+02	-3.199983e+01
4.740650e+02	-3.204669e+01
4.768032e+02	-3.210053e+01
4.795572e+02	-3.214722e+01
4.823271e+02	-3.220217e+01
4.851130e+02	-3.224258e+01
4.879150e+02	-3.230199e+01
4.907332e+02	-3.235023e+01
4.935676e+02	-3.240008e+01
4.964185e+02	-3.245000e+01
4.992858e+02	-3.249368e+01
5.021696e+02	-3.254509e+01
5.050701e+02	-3.260266e+01
5.079874e+02	-3.265119e+01
5.109215e+02	-3.269935e+01
5.138726e+02	-3.275229e+01
5.168407e+02	-3.279467e+01
5.198259e+02	-3.285262e+01
5.228284e+02	-3.290517e+01
5.258482e+02	-3.294940e+01
5.288855e+02	-3.300103e+01
5.319403e+02	-3.305582e+01
5.350128e+02	-3.310206e+01
5.381030e+02	-3.314856e+01
5.412111e+02	-3.320106e+01
5.443371e+02	-3.325607e+01
5.474812e+02	-3.330505e+01
5.506434e+02	-3.335099e+01
5.538239e+02	-3.340486e+01
5.570228e+02	-3.344217e+01
5.602401e+02	-3.349938e+01
5.634760e+02	-3.355297e+01
5.667306e+02	-3.360066e+01
5.700040e+02	-3.364818e+01
5.732964e+02	-3.370726e+01
5.766077e+02	-3.375532e+01
5.799382e+02	-3.379466e+01
5.832879e+02	-3.386041e+01
5.866569e+02	-3.390476e+01
5.900454e+02	-3.396841e+01
5.934535e+02	-3.400325e+01
5.968813e+02	-3.406067e+01
6.003288e+02	-3.411070e+01
6.037963e+02	-3.415499e+01
6.072838e+02	-3.420103e+01
6.107914e+02	-3.426040e+01
6.143194e+02	-3.431180e+01
6.178676e+02	-3.434895e+01
6.214364e+02	-3.440427e+01
6.250258e+02	-3.445938e+01
6.286359e+02	-3.451404e+01
6.322669e+02	-3.455672e+01
6.359189e+02	-3.460571e+01
6.395919e+02	-3.465315e+01
6.432862e+02	-3.470734e+01
6.470017e+02	-3.476036e+01
6.507388e+02	-3.480987e+01
6.544974e+02	-3.486436e+01
6.582778e+02	-3.490845e+01
6.620800e+02	-3.495851e+01
6.659041e+02	-3.501144e+01
6.697504e+02	-3.506368e+01
6.736188e+02	-3.511132e+01
6.775096e+02	-3.516232e+01
6.814229e+02	-3.520725e+01
6.853587e+02	-3.526408e+01
6.893173e+02	-3.531631e+01
6.932988e+02	-3.536975e+01
6.973033e+02	-3.541479e+01
7.013309e+02	-3.547004e+01
