Frequency(Hz)	Magnitude(dB)
1.000000e+01	-1.645087e-05
1.005776e+01	-1.664145e-05
1.011585e+01	-1.683425e-05
1.017428e+01	-1.702928e-05
1.023305e+01	-1.722657e-05
1.029215e+01	-1.742614e-05
1.035160e+01	-1.762803e-05
1.041139e+01	-1.783225e-05
1.047153e+01	-1.803884e-05
1.053201e+01	-1.824783e-05
1.059284e+01	-1.845923e-05
1.065403e+01	-1.867309e-05
1.071556e+01	-1.888942e-05
1.077746e+01	-1.910826e-05
1.083971e+01	-1.932963e-05
1.090232e+01	-1.955357e-05
1.096529e+01	-1.978011e-05
1.102862e+01	-2.000926e-05
1.109232e+01	-2.024108e-05
1.115639e+01	-2.047557e-05
1.122083e+01	-2.071279e-05
1.128564e+01	-2.095275e-05
1.135083e+01	-2.119549e-05
1.141639e+01	-2.144105e-05
1.148233e+01	-2.168945e-05
1.154865e+01	-2.194073e-05
1.161536e+01	-2.219492e-05
1.168245e+01	-2.245205e-05
1.174992e+01	-2.271216e-05
1.181779e+01	-2.297529e-05
1.188605e+01	-2.324146e-05
1.195470e+01	-2.351072e-05
1.202375e+01	-2.378310e-05
1.209320e+01	-2.405863e-05
1.216305e+01	-2.433736e-05
1.223330e+01	-2.461931e-05
1.230396e+01	-2.490453e-05
1.237503e+01	-2.519306e-05
1.244651e+01	-2.548493e-05
1.251840e+01	-2.578017e-05
1.259070e+01	-2.607884e-05
1.266343e+01	-2.638097e-05
1.273657e+01	-2.668660e-05
1.281014e+01	-2.699577e-05
1.288413e+01	-2.730853e-05
1.295855e+01	-2.762490e-05
1.303339e+01	-2.794494e-05
1.310867e+01	-2.826869e-05
1.318439e+01	-2.859619e-05
1.326054e+01	-2.892749e-05
1.333713e+01	-2.926262e-05
1.341417e+01	-2.960163e-05
1.349165e+01	-2.994458e-05
1.356958e+01	-3.029149e-05
1.364795e+01	-3.064242e-05
1.372678e+01	-3.099742e-05
1.380607e+01	-3.135654e-05
1.388581e+01	-3.171981e-05
1.396602e+01	-3.208729e-05
1.404668e+01	-3.245903e-05
1.412782e+01	-3.283508e-05
1.420942e+01	-3.321548e-05
1.429149e+01	-3.360029e-05
1.437404e+01	-3.398955e-05
1.445706e+01	-3.438333e-05
1.454057e+01	-3.478167e-05
1.462455e+01	-3.518462e-05
1.470902e+01	-3.559225e-05
1.479398e+01	-3.600459e-05
1.487943e+01	-3.642171e-05
1.496537e+01	-3.684367e-05
1.505181e+01	-3.727051e-05
1.513875e+01	-3.770230e-05
1.522619e+01	-3.813908e-05
1.531414e+01	-3.858094e-05
1.540259e+01	-3.902790e-05
1.549156e+01	-3.948005e-05
1.558103e+01	-3.993744e-05
1.567103e+01	-4.040012e-05
1.576155e+01	-4.086817e-05
1.585258e+01	-4.134163e-05
1.594415e+01	-4.182058e-05
1.603624e+01	-4.230508e-05
1.612886e+01	-4.279520e-05
1.622202e+01	-4.329099e-05
1.631572e+01	-4.379253e-05
1.640996e+01	-4.429987e-05
1.650474e+01	-4.481310e-05
1.660008e+01	-4.533227e-05
1.669596e+01	-4.585745e-05
1.679239e+01	-4.638872e-05
1.688938e+01	-4.692614e-05
1.698694e+01	-4.746979e-05
1.708505e+01	-4.801974e-05
1.718373e+01	-4.857606e-05
1.728299e+01	-4.913882e-05
1.738281e+01	-4.970811e-05
1.748322e+01	-5.028398e-05
1.758420e+01	-5.086654e-05
1.768576e+01	-5.145584e-05
1.778792e+01	-5.205196e-05
1.789066e+01	-5.265499e-05
1.799399e+01	-5.326501e-05
1.809793e+01	-5.388210e-05
1.820246e+01	-5.450634e-05
1.830760e+01	-5.513780e-05
1.841334e+01	-5.577659e-05
1.851969e+01	-5.642277e-05
1.862666e+01	-5.707644e-05
1.873425e+01	-5.773768e-05
1.884246e+01	-5.840658e-05
1.895129e+01	-5.908323e-05
1.906075e+01	-5.976773e-05
1.917085e+01	-6.046015e-05
1.928158e+01	-6.116059e-05
1.939295e+01	-6.186915e-05
1.950496e+01	-6.258591e-05
1.961762e+01	-6.331098e-05
1.973093e+01	-6.404445e-05
1.984490e+01	-6.478642e-05
1.995952e+01	-6.553698e-05
2.007480e+01	-6.629624e-05
2.019076e+01	-6.706430e-05
2.030738e+01	-6.784125e-05
2.042467e+01	-6.862720e-05
2.054264e+01	-6.942226e-05
2.066130e+01	-7.022653e-05
2.078064e+01	-7.104012e-05
2.090066e+01	-7.186313e-05
2.102139e+01	-7.269568e-05
2.114280e+01	-7.353787e-05
2.126492e+01	-7.438982e-05
2.138775e+01	-7.525164e-05
2.151128e+01	-7.612344e-05
2.163553e+01	-7.700535e-05
2.176050e+01	-7.789747e-05
2.188619e+01	-7.879992e-05
2.201260e+01	-7.971284e-05
2.213974e+01	-8.063632e-05
2.226762e+01	-8.157051e-05
2.239624e+01	-8.251552e-05
2.252560e+01	-8.347147e-05
2.265571e+01	-8.443850e-05
2.278656e+01	-8.541674e-05
2.291818e+01	-8.640630e-05
2.305055e+01	-8.740734e-05
2.318369e+01	-8.841996e-05
2.331760e+01	-8.944432e-05
2.345228e+01	-9.048055e-05
2.358774e+01	-9.152878e-05
2.372398e+01	-9.258916e-05
2.386101e+01	-9.366182e-05
2.399883e+01	-9.474690e-05
2.413745e+01	-9.584456e-05
2.427686e+01	-9.695493e-05
2.441709e+01	-9.807817e-05
2.455812e+01	-9.921442e-05
2.469997e+01	-1.003638e-04
2.484263e+01	-1.015266e-04
2.498612e+01	-1.027028e-04
2.513044e+01	-1.038926e-04
2.527559e+01	-1.050962e-04
2.542158e+01	-1.063138e-04
2.556842e+01	-1.075454e-04
2.571610e+01	-1.087913e-04
2.586463e+01	-1.100517e-04
2.601403e+01	-1.113267e-04
2.616428e+01	-1.126164e-04
2.631541e+01	-1.139211e-04
2.646740e+01	-1.152409e-04
2.662028e+01	-1.165759e-04
2.677404e+01	-1.179265e-04
2.692868e+01	-1.192927e-04
2.708422e+01	-1.206747e-04
2.724066e+01	-1.220727e-04
2.739800e+01	-1.234870e-04
2.755625e+01	-1.249176e-04
2.771541e+01	-1.263648e-04
2.787550e+01	-1.278287e-04
2.803650e+01	-1.293096e-04
2.819844e+01	-1.308077e-04
2.836131e+01	-1.323231e-04
2.852513e+01	-1.338561e-04
2.868989e+01	-1.354068e-04
2.885560e+01	-1.369755e-04
2.902227e+01	-1.385624e-04
2.918990e+01	-1.401676e-04
2.935850e+01	-1.417915e-04
2.952807e+01	-1.434342e-04
2.969863e+01	-1.450959e-04
2.987016e+01	-1.467768e-04
3.004269e+01	-1.484772e-04
3.021622e+01	-1.501974e-04
3.039075e+01	-1.519374e-04
3.056628e+01	-1.536976e-04
3.074283e+01	-1.554782e-04
3.092040e+01	-1.572794e-04
3.109900e+01	-1.591015e-04
3.127862e+01	-1.609447e-04
3.145929e+01	-1.628093e-04
3.164099e+01	-1.646954e-04
3.182375e+01	-1.666034e-04
3.200756e+01	-1.685336e-04
3.219244e+01	-1.704860e-04
3.237838e+01	-1.724611e-04
3.256540e+01	-1.744591e-04
3.275349e+01	-1.764802e-04
3.294268e+01	-1.785247e-04
3.313295e+01	-1.805929e-04
3.332433e+01	-1.826851e-04
3.351681e+01	-1.848015e-04
3.371040e+01	-1.869425e-04
3.390511e+01	-1.891082e-04
3.410094e+01	-1.912990e-04
3.429791e+01	-1.935152e-04
3.449601e+01	-1.957571e-04
3.469526e+01	-1.980249e-04
3.489566e+01	-2.003191e-04
3.509721e+01	-2.026398e-04
3.529993e+01	-2.049873e-04
3.550382e+01	-2.073621e-04
3.570889e+01	-2.097644e-04
3.591515e+01	-2.121945e-04
3.612259e+01	-2.146528e-04
3.633123e+01	-2.171396e-04
3.654108e+01	-2.196551e-04
3.675214e+01	-2.221998e-04
3.696442e+01	-2.247740e-04
3.717792e+01	-2.273780e-04
3.739266e+01	-2.300122e-04
3.760864e+01	-2.326769e-04
3.782587e+01	-2.353724e-04
3.804435e+01	-2.380992e-04
3.826409e+01	-2.408576e-04
3.848510e+01	-2.436479e-04
3.870739e+01	-2.464705e-04
3.893096e+01	-2.493259e-04
3.915583e+01	-2.522143e-04
3.938199e+01	-2.551362e-04
3.960946e+01	-2.580919e-04
3.983824e+01	-2.610819e-04
4.006834e+01	-2.641065e-04
4.029978e+01	-2.671662e-04
4.053255e+01	-2.702613e-04
4.076666e+01	-2.733922e-04
4.100213e+01	-2.765594e-04
4.123896e+01	-2.797634e-04
4.147715e+01	-2.830044e-04
4.171672e+01	-2.862830e-04
4.195767e+01	-2.895995e-04
4.220002e+01	-2.929545e-04
4.244377e+01	-2.963483e-04
4.268892e+01	-2.997815e-04
4.293549e+01	-3.032544e-04
4.318348e+01	-3.067676e-04
4.343291e+01	-3.103215e-04
4.368377e+01	-3.139165e-04
4.393609e+01	-3.175532e-04
4.418986e+01	-3.212320e-04
4.444510e+01	-3.249534e-04
4.470182e+01	-3.287179e-04
4.496001e+01	-3.325261e-04
4.521970e+01	-3.363783e-04
4.548089e+01	-3.402752e-04
4.574358e+01	-3.442172e-04
4.600779e+01	-3.482049e-04
4.627353e+01	-3.522388e-04
4.654081e+01	-3.563194e-04
4.680963e+01	-3.604473e-04
4.708000e+01	-3.646230e-04
4.735193e+01	-3.688471e-04
4.762543e+01	-3.731201e-04
4.790051e+01	-3.774426e-04
4.817719e+01	-3.818152e-04
4.845545e+01	-3.862385e-04
4.873533e+01	-3.907129e-04
4.901682e+01	-3.952392e-04
4.929994e+01	-3.998180e-04
4.958470e+01	-4.044498e-04
4.987110e+01	-4.091352e-04
5.015915e+01	-4.138749e-04
5.044887e+01	-4.186696e-04
5.074026e+01	-4.235197e-04
5.103333e+01	-4.284261e-04
5.132810e+01	-4.333893e-04
5.162457e+01	-4.384099e-04
5.192275e+01	-4.434888e-04
5.222265e+01	-4.486265e-04
5.252429e+01	-4.538236e-04
5.282767e+01	-4.590810e-04
5.313280e+01	-4.643993e-04
5.343969e+01	-4.697792e-04
5.374836e+01	-4.752215e-04
5.405880e+01	-4.807267e-04
5.437105e+01	-4.862958e-04
5.468509e+01	-4.919293e-04
5.500095e+01	-4.976281e-04
5.531863e+01	-5.033930e-04
5.563815e+01	-5.092246e-04
5.595951e+01	-5.151237e-04
5.628273e+01	-5.210912e-04
5.660782e+01	-5.271278e-04
5.693479e+01	-5.332344e-04
5.726364e+01	-5.394117e-04
5.759439e+01	-5.456605e-04
5.792705e+01	-5.519817e-04
5.826164e+01	-5.583762e-04
5.859815e+01	-5.648447e-04
5.893662e+01	-5.713882e-04
5.927703e+01	-5.780074e-04
5.961941e+01	-5.847033e-04
5.996377e+01	-5.914768e-04
6.031012e+01	-5.983288e-04
6.065847e+01	-6.052601e-04
6.100883e+01	-6.122717e-04
6.136121e+01	-6.193645e-04
6.171563e+01	-6.265395e-04
6.207210e+01	-6.337976e-04
6.243063e+01	-6.411398e-04
6.279122e+01	-6.485670e-04
6.315390e+01	-6.560803e-04
6.351868e+01	-6.636806e-04
6.388556e+01	-6.713689e-04
6.425456e+01	-6.791463e-04
6.462569e+01	-6.870138e-04
6.499897e+01	-6.949724e-04
6.537440e+01	-7.030232e-04
6.575200e+01	-7.111672e-04
6.613178e+01	-7.194056e-04
6.651375e+01	-7.277394e-04
6.689793e+01	-7.361698e-04
6.728433e+01	-7.446978e-04
6.767297e+01	-7.533245e-04
6.806384e+01	-7.620512e-04
6.845698e+01	-7.708790e-04
6.885238e+01	-7.798091e-04
6.925007e+01	-7.888425e-04
6.965005e+01	-7.979807e-04
7.005235e+01	-8.072246e-04
7.045697e+01	-8.165757e-04
7.086393e+01	-8.260350e-04
7.127323e+01	-8.356039e-04
7.168490e+01	-8.452837e-04
7.209895e+01	-8.550756e-04
7.251539e+01	-8.649809e-04
7.293424e+01	-8.750009e-04
7.335551e+01	-8.851370e-04
7.377920e+01	-8.953905e-04
7.420535e+01	-9.057628e-04
7.463396e+01	-9.162552e-04
7.506504e+01	-9.268691e-04
7.549861e+01	-9.376060e-04
7.593469e+01	-9.484672e-04
7.637328e+01	-9.594542e-04
7.681441e+01	-9.705685e-04
7.725809e+01	-9.818116e-04
7.770433e+01	-9.931848e-04
7.815315e+01	-1.004690e-03
7.860456e+01	-1.016328e-03
7.905857e+01	-1.028101e-03
7.951521e+01	-1.040010e-03
7.997449e+01	-1.052058e-03
8.043642e+01	-1.064245e-03
8.090102e+01	-1.076573e-03
8.136830e+01	-1.089044e-03
8.183828e+01	-1.101659e-03
8.231097e+01	-1.114420e-03
8.278640e+01	-1.127329e-03
8.326457e+01	-1.140388e-03
8.374550e+01	-1.153598e-03
8.422921e+01	-1.166961e-03
8.471572e+01	-1.180479e-03
8.520503e+01	-1.194153e-03
8.569717e+01	-1.207986e-03
8.619215e+01	-1.221979e-03
8.669000e+01	-1.236133e-03
8.719071e+01	-1.250452e-03
8.769432e+01	-1.264937e-03
8.820084e+01	-1.279590e-03
8.871029e+01	-1.294412e-03
8.922267e+01	-1.309406e-03
8.973802e+01	-1.324573e-03
9.025634e+01	-1.339916e-03
9.077766e+01	-1.355437e-03
9.130199e+01	-1.371138e-03
9.182935e+01	-1.387020e-03
9.235975e+01	-1.403087e-03
9.289321e+01	-1.419339e-03
9.342976e+01	-1.435780e-03
9.396941e+01	-1.452411e-03
9.451217e+01	-1.469235e-03
9.505807e+01	-1.486253e-03
9.560712e+01	-1.503469e-03
9.615934e+01	-1.520884e-03
9.671476e+01	-1.538501e-03
9.727338e+01	-1.556321e-03
9.783522e+01	-1.574349e-03
9.840032e+01	-1.592584e-03
9.896867e+01	-1.611032e-03
9.954031e+01	-1.629692e-03
1.001153e+02	-1.648569e-03
1.006935e+02	-1.667665e-03
1.012751e+02	-1.686981e-03
1.018601e+02	-1.706521e-03
1.024484e+02	-1.726288e-03
1.030402e+02	-1.746283e-03
1.036353e+02	-1.766511e-03
1.042339e+02	-1.786972e-03
1.048360e+02	-1.807670e-03
1.054415e+02	-1.828608e-03
1.060505e+02	-1.849788e-03
1.066631e+02	-1.871214e-03
1.072791e+02	-1.892888e-03
1.078988e+02	-1.914813e-03
1.085220e+02	-1.936991e-03
1.091488e+02	-1.959427e-03
1.097793e+02	-1.982122e-03
1.104133e+02	-2.005080e-03
1.110511e+02	-2.028304e-03
1.116925e+02	-2.051797e-03
1.123376e+02	-2.075562e-03
1.129865e+02	-2.099602e-03
1.136391e+02	-2.123921e-03
1.142955e+02	-2.148521e-03
1.149556e+02	-2.173406e-03
1.156196e+02	-2.198579e-03
1.162874e+02	-2.224043e-03
1.169591e+02	-2.249803e-03
1.176347e+02	-2.275860e-03
1.183141e+02	-2.302220e-03
1.189975e+02	-2.328885e-03
1.196848e+02	-2.355858e-03
1.203761e+02	-2.383144e-03
1.210714e+02	-2.410745e-03
1.217707e+02	-2.438667e-03
1.224740e+02	-2.466911e-03
1.231814e+02	-2.495483e-03
1.238929e+02	-2.524385e-03
1.246085e+02	-2.553622e-03
1.253283e+02	-2.583198e-03
1.260522e+02	-2.613116e-03
1.267802e+02	-2.643380e-03
1.275125e+02	-2.673995e-03
1.282490e+02	-2.704964e-03
1.289898e+02	-2.736292e-03
1.297348e+02	-2.767983e-03
1.304842e+02	-2.800040e-03
1.312378e+02	-2.832469e-03
1.319959e+02	-2.865273e-03
1.327583e+02	-2.898457e-03
1.335251e+02	-2.932025e-03
1.342963e+02	-2.965981e-03
1.350720e+02	-3.000331e-03
1.358522e+02	-3.035079e-03
1.366368e+02	-3.070228e-03
1.374260e+02	-3.105785e-03
1.382198e+02	-3.141753e-03
1.390182e+02	-3.178138e-03
1.398211e+02	-3.214944e-03
1.406287e+02	-3.252176e-03
1.414410e+02	-3.289839e-03
1.422579e+02	-3.327938e-03
1.430796e+02	-3.366478e-03
1.439060e+02	-3.405464e-03
1.447372e+02	-3.444902e-03
1.455732e+02	-3.484796e-03
1.464141e+02	-3.525152e-03
1.472597e+02	-3.565975e-03
1.481103e+02	-3.607270e-03
1.489658e+02	-3.649044e-03
1.498262e+02	-3.691301e-03
1.506916e+02	-3.734047e-03
1.515620e+02	-3.777288e-03
1.524374e+02	-3.821030e-03
1.533179e+02	-3.865278e-03
1.542034e+02	-3.910038e-03
1.550941e+02	-3.955316e-03
1.559899e+02	-4.001118e-03
1.568909e+02	-4.047450e-03
1.577971e+02	-4.094319e-03
1.587085e+02	-4.141730e-03
1.596252e+02	-4.189690e-03
1.605472e+02	-4.238205e-03
1.614745e+02	-4.287281e-03
1.624072e+02	-4.336926e-03
1.633453e+02	-4.387145e-03
1.642887e+02	-4.437945e-03
1.652377e+02	-4.489333e-03
1.661921e+02	-4.541316e-03
1.671520e+02	-4.593900e-03
1.681175e+02	-4.647093e-03
1.690885e+02	-4.700902e-03
1.700651e+02	-4.755333e-03
1.710474e+02	-4.810394e-03
1.720354e+02	-4.866093e-03
1.730291e+02	-4.922436e-03
1.740285e+02	-4.979430e-03
1.750337e+02	-5.037085e-03
1.760446e+02	-5.095406e-03
1.770615e+02	-5.154403e-03
1.780842e+02	-5.214082e-03
1.791128e+02	-5.274452e-03
1.801473e+02	-5.335520e-03
1.811878e+02	-5.397295e-03
1.822344e+02	-5.459785e-03
1.832870e+02	-5.522997e-03
1.843456e+02	-5.586941e-03
1.854104e+02	-5.651625e-03
1.864813e+02	-5.717058e-03
1.875584e+02	-5.783247e-03
1.886418e+02	-5.850202e-03
1.897313e+02	-5.917932e-03
1.908272e+02	-5.986445e-03
1.919294e+02	-6.055751e-03
1.930380e+02	-6.125859e-03
1.941530e+02	-6.196778e-03
1.952744e+02	-6.268517e-03
1.964023e+02	-6.341086e-03
1.975367e+02	-6.414495e-03
1.986777e+02	-6.488753e-03
1.998252e+02	-6.563870e-03
2.009794e+02	-6.639856e-03
2.021403e+02	-6.716720e-03
2.033078e+02	-6.794474e-03
2.044821e+02	-6.873128e-03
2.056632e+02	-6.952691e-03
2.068511e+02	-7.033174e-03
2.080459e+02	-7.114588e-03
2.092475e+02	-7.196944e-03
2.104561e+02	-7.280252e-03
2.116717e+02	-7.364524e-03
2.128943e+02	-7.449771e-03
2.141240e+02	-7.536003e-03
2.153608e+02	-7.623233e-03
2.166047e+02	-7.711471e-03
2.178558e+02	-7.800730e-03
2.191141e+02	-7.891021e-03
2.203797e+02	-7.982356e-03
2.216526e+02	-8.074748e-03
2.229329e+02	-8.168207e-03
2.242205e+02	-8.262748e-03
2.255156e+02	-8.358381e-03
2.268182e+02	-8.455121e-03
2.281283e+02	-8.552979e-03
2.294459e+02	-8.651968e-03
2.307712e+02	-8.752102e-03
2.321041e+02	-8.853394e-03
2.334447e+02	-8.955856e-03
2.347931e+02	-9.059504e-03
2.361493e+02	-9.164349e-03
2.375133e+02	-9.270407e-03
2.388851e+02	-9.377690e-03
2.402649e+02	-9.486214e-03
2.416527e+02	-9.595993e-03
2.430484e+02	-9.707040e-03
2.444523e+02	-9.819371e-03
2.458642e+02	-9.933000e-03
2.472843e+02	-1.004794e-02
2.487126e+02	-1.016421e-02
2.501492e+02	-1.028183e-02
2.515940e+02	-1.040080e-02
2.530472e+02	-1.052115e-02
2.545088e+02	-1.064289e-02
2.559789e+02	-1.076604e-02
2.574574e+02	-1.089061e-02
2.589444e+02	-1.101662e-02
2.604401e+02	-1.114409e-02
2.619444e+02	-1.127303e-02
2.634574e+02	-1.140346e-02
2.649791e+02	-1.153539e-02
2.665096e+02	-1.166885e-02
2.680489e+02	-1.180385e-02
2.695972e+02	-1.194042e-02
2.711544e+02	-1.207855e-02
2.727205e+02	-1.221829e-02
2.742958e+02	-1.235964e-02
2.758801e+02	-1.250262e-02
2.774736e+02	-1.264726e-02
2.790762e+02	-1.279356e-02
2.806882e+02	-1.294156e-02
2.823094e+02	-1.309126e-02
2.839400e+02	-1.324270e-02
2.855800e+02	-1.339588e-02
2.872295e+02	-1.355083e-02
2.888886e+02	-1.370757e-02
2.905572e+02	-1.386612e-02
2.922354e+02	-1.402650e-02
2.939234e+02	-1.418874e-02
2.956211e+02	-1.435285e-02
2.973286e+02	-1.451885e-02
2.990459e+02	-1.468677e-02
3.007732e+02	-1.485662e-02
3.025104e+02	-1.502844e-02
3.042577e+02	-1.520225e-02
3.060151e+02	-1.537806e-02
3.077826e+02	-1.555589e-02
3.095604e+02	-1.573578e-02
3.113484e+02	-1.591775e-02
3.131467e+02	-1.610182e-02
3.149554e+02	-1.628801e-02
3.167746e+02	-1.647635e-02
3.186043e+02	-1.666687e-02
3.204445e+02	-1.685958e-02
3.222954e+02	-1.705452e-02
3.241570e+02	-1.725171e-02
3.260293e+02	-1.745117e-02
3.279124e+02	-1.765293e-02
3.298064e+02	-1.785703e-02
3.317114e+02	-1.806347e-02
3.336273e+02	-1.827230e-02
3.355544e+02	-1.848354e-02
3.374925e+02	-1.869721e-02
3.394418e+02	-1.891335e-02
3.414024e+02	-1.913198e-02
3.433744e+02	-1.935313e-02
3.453577e+02	-1.957684e-02
3.473525e+02	-1.980312e-02
3.493588e+02	-2.003201e-02
3.513766e+02	-2.026355e-02
3.534062e+02	-2.049775e-02
3.554474e+02	-2.073465e-02
3.575005e+02	-2.097429e-02
3.595654e+02	-2.121668e-02
3.616422e+02	-2.146187e-02
3.637311e+02	-2.170989e-02
3.658320e+02	-2.196077e-02
3.679450e+02	-2.221454e-02
3.700702e+02	-2.247123e-02
3.722077e+02	-2.273088e-02
3.743576e+02	-2.299352e-02
3.765199e+02	-2.325919e-02
3.786946e+02	-2.352792e-02
3.808820e+02	-2.379975e-02
3.830819e+02	-2.407471e-02
3.852946e+02	-2.435284e-02
3.875200e+02	-2.463417e-02
3.897583e+02	-2.491874e-02
3.920096e+02	-2.520659e-02
3.942738e+02	-2.549775e-02
3.965511e+02	-2.579227e-02
3.988416e+02	-2.609018e-02
4.011452e+02	-2.639152e-02
4.034622e+02	-2.669633e-02
4.057926e+02	-2.700465e-02
4.081365e+02	-2.731652e-02
4.104938e+02	-2.763198e-02
4.128648e+02	-2.795107e-02
4.152495e+02	-2.827383e-02
4.176480e+02	-2.860031e-02
4.200603e+02	-2.893054e-02
4.224866e+02	-2.926457e-02
4.249268e+02	-2.960245e-02
4.273812e+02	-2.994422e-02
4.298497e+02	-3.028992e-02
4.323325e+02	-3.063959e-02
4.348297e+02	-3.099329e-02
4.373412e+02	-3.135105e-02
4.398673e+02	-3.171293e-02
4.424079e+02	-3.207897e-02
4.449633e+02	-3.244922e-02
4.475334e+02	-3.282373e-02
4.501183e+02	-3.320254e-02
4.527182e+02	-3.358571e-02
4.553330e+02	-3.397328e-02
4.579630e+02	-3.436531e-02
4.606082e+02	-3.476184e-02
4.632687e+02	-3.516293e-02
4.659445e+02	-3.556863e-02
4.686358e+02	-3.597899e-02
4.713426e+02	-3.639407e-02
4.740650e+02	-3.681391e-02
4.768032e+02	-3.723857e-02
4.795572e+02	-3.766811e-02
4.823271e+02	-3.810259e-02
4.851130e+02	-3.854205e-02
4.879150e+02	-3.898656e-02
4.907332e+02	-3.943618e-02
4.935676e+02	-3.989095e-02
4.964185e+02	-4.035094e-02
4.992858e+02	-4.081622e-02
5.021696e+02	-4.128683e-02
5.050701e+02	-4.176284e-02
5.079874e+02	-4.224432e-02
5.109215e+02	-4.273132e-02
5.138726e+02	-4.322390e-02
5.168407e+02	-4.372213e-02
5.198259e+02	-4.422608e-02
5.228284e+02	-4.473580e-02
5.258482e+02	-4.525137e-02
5.288855e+02	-4.577285e-02
5.319403e+02	-4.630031e-02
5.350128e+02	-4.683381e-02
5.381030e+02	-4.737343e-02
5.412111e+02	-4.791923e-02
5.443371e+02	-4.847128e-02
5.474812e+02	-4.902965e-02
5.506434e+02	-4.959442e-02
5.538239e+02	-5.016566e-02
5.570228e+02	-5.074344e-02
5.602401e+02	-5.132784e-02
5.634760e+02	-5.191892e-02
5.667306e+02	-5.251677e-02
5.700040e+02	-5.312147e-02
5.732964e+02	-5.373308e-02
5.766077e+02	-5.435169e-02
5.799382e+02	-5.497737e-02
5.832879e+02	-5.561021e-02
5.866569e+02	-5.625029e-02
5.900454e+02	-5.689769e-02
5.934535e+02	-5.755249e-02
5.968813e+02	-5.821478e-02
6.003288e+02	-5.888463e-02
6.037963e+02	-5.956214e-02
6.072838e+02	-6.024739e-02
6.107914e+02	-6.094047e-02
6.143194e+02	-6.164146e-02
6.178676e+02	-6.235046e-02
6.214364e+02	-6.306756e-02
6.250258e+02	-6.379284e-02
6.286359e+02	-6.452640e-02
6.322669e+02	-6.526833e-02
6.359189e+02	-6.601873e-02
6.395919e+02	-6.677769e-02
6.432862e+02	-6.754530e-02
6.470017e+02	-6.832167e-02
6.507388e+02	-6.910690e-02
6.544974e+02	-6.990107e-02
6.582778e+02	-7.070429e-02
6.620800e+02	-7.151667e-02
6.659041e+02	-7.233831e-02
6.697504e+02	-7.316930e-02
6.736188e+02	-7.400976e-02
6.775096e+02	-7.485979e-02
6.814229e+02	-7.571950e-02
6.853587e+02	-7.658900e-02
6.893173e+02	-7.746838e-02
6.932988e+02	-7.835778e-02
6.973033e+02	-7.925729e-02
7.013309e+02	-8.016703e-02
