Frequency(Hz)	Magnitude(dB)
1.000000e+01	-2.042397e+00
1.005776e+01	-2.061450e+00
1.011585e+01	-2.080357e+00
1.017428e+01	-2.099449e+00
1.023305e+01	-2.118460e+00
1.029215e+01	-2.137906e+00
1.035160e+01	-2.157352e+00
1.041139e+01	-2.177289e+00
1.047153e+01	-2.197017e+00
1.053201e+01	-2.216707e+00
1.059284e+01	-2.236911e+00
1.065403e+01	-2.256960e+00
1.071556e+01	-2.277366e+00
1.077746e+01	-2.297951e+00
1.083971e+01	-2.318568e+00
1.090232e+01	-2.339364e+00
1.096529e+01	-2.360364e+00
1.102862e+01	-2.381444e+00
1.109232e+01	-2.402413e+00
1.115639e+01	-2.423896e+00
1.122083e+01	-2.445422e+00
1.128564e+01	-2.466951e+00
1.135083e+01	-2.488628e+00
1.141639e+01	-2.510794e+00
1.148233e+01	-2.532469e+00
1.154865e+01	-2.554682e+00
1.161536e+01	-2.577097e+00
1.168245e+01	-2.599480e+00
1.174992e+01	-2.622161e+00
1.181779e+01	-2.644837e+00
1.188605e+01	-2.667667e+00
1.195470e+01	-2.690909e+00
1.202375e+01	-2.714020e+00
1.209320e+01	-2.737572e+00
1.216305e+01	-2.760866e+00
1.223330e+01	-2.784378e+00
1.230396e+01	-2.808067e+00
1.237503e+01	-2.832041e+00
1.244651e+01	-2.856077e+00
1.251840e+01	-2.880200e+00
1.259070e+01	-2.904637e+00
1.266343e+01	-2.929209e+00
1.273657e+01	-2.953425e+00
1.281014e+01	-2.978588e+00
1.288413e+01	-3.003424e+00
1.295855e+01	-3.028159e+00
1.303339e+01	-3.053543e+00
1.310867e+01	-3.078884e+00
1.318439e+01	-3.104404e+00
1.326054e+01	-3.129871e+00
1.333713e+01	-3.155691e+00
1.341417e+01	-3.181598e+00
1.349165e+01	-3.207786e+00
1.356958e+01	-3.233827e+00
1.364795e+01	-3.260177e+00
1.372678e+01	-3.286765e+00
1.380607e+01	-3.313176e+00
1.388581e+01	-3.339980e+00
1.396602e+01	-3.367027e+00
1.404668e+01	-3.393993e+00
1.412782e+01	-3.421013e+00
1.420942e+01	-3.448390e+00
1.429149e+01	-3.476137e+00
1.437404e+01	-3.503768e+00
1.445706e+01	-3.531294e+00
1.454057e+01	-3.559340e+00
1.462455e+01	-3.587465e+00
1.470902e+01	-3.615599e+00
1.479398e+01	-3.643905e+00
1.487943e+01	-3.672216e+00
1.496537e+01	-3.701055e+00
1.505181e+01	-3.729576e+00
1.513875e+01	-3.758916e+00
1.522619e+01	-3.787722e+00
1.531414e+01	-3.816891e+00
1.540259e+01	-3.846363e+00
1.549156e+01	-3.875613e+00
1.558103e+01	-3.905281e+00
1.567103e+01	-3.935047e+00
1.576155e+01	-3.964974e+00
1.585258e+01	-3.994644e+00
1.594415e+01	-4.025058e+00
1.603624e+01	-4.055512e+00
1.612886e+01	-4.085898e+00
1.622202e+01	-4.116404e+00
1.631572e+01	-4.147395e+00
1.640996e+01	-4.177593e+00
1.650474e+01	-4.208632e+00
1.660008e+01	-4.239813e+00
1.669596e+01	-4.271342e+00
1.679239e+01	-4.303104e+00
1.688938e+01	-4.334332e+00
1.698694e+01	-4.365911e+00
1.708505e+01	-4.397799e+00
1.718373e+01	-4.429543e+00
1.728299e+01	-4.461469e+00
1.738281e+01	-4.493762e+00
1.748322e+01	-4.526019e+00
1.758420e+01	-4.558776e+00
1.768576e+01	-4.591002e+00
1.778792e+01	-4.623757e+00
1.789066e+01	-4.656733e+00
1.799399e+01	-4.689559e+00
1.809793e+01	-4.722610e+00
1.820246e+01	-4.755895e+00
1.830760e+01	-4.789432e+00
1.841334e+01	-4.822865e+00
1.851969e+01	-4.856558e+00
1.862666e+01	-4.890224e+00
1.873425e+01	-4.924105e+00
1.884246e+01	-4.958079e+00
1.895129e+01	-4.992155e+00
1.906075e+01	-5.026354e+00
1.917085e+01	-5.060767e+00
1.928158e+01	-5.095137e+00
1.939295e+01	-5.129826e+00
1.950496e+01	-5.164392e+00
1.961762e+01	-5.199263e+00
1.973093e+01	-5.234380e+00
1.984490e+01	-5.269673e+00
1.995952e+01	-5.304914e+00
2.007480e+01	-5.339809e+00
2.019076e+01	-5.375361e+00
2.030738e+01	-5.411036e+00
2.042467e+01	-5.446778e+00
2.054264e+01	-5.482660e+00
2.066130e+01	-5.518839e+00
2.078064e+01	-5.554798e+00
2.090066e+01	-5.590306e+00
2.102139e+01	-5.627003e+00
2.114280e+01	-5.663328e+00
2.126492e+01	-5.700125e+00
2.138775e+01	-5.736290e+00
2.151128e+01	-5.773282e+00
2.163553e+01	-5.809970e+00
2.176050e+01	-5.847042e+00
2.188619e+01	-5.884177e+00
2.201260e+01	-5.921249e+00
2.213974e+01	-5.958414e+00
2.226762e+01	-5.995735e+00
2.239624e+01	-6.033391e+00
2.252560e+01	-6.070941e+00
2.265571e+01	-6.109030e+00
2.278656e+01	-6.146628e+00
2.291818e+01	-6.184423e+00
2.305055e+01	-6.222450e+00
2.318369e+01	-6.260794e+00
2.331760e+01	-6.298834e+00
2.345228e+01	-6.337226e+00
2.358774e+01	-6.375778e+00
2.372398e+01	-6.413986e+00
2.386101e+01	-6.452882e+00
2.399883e+01	-6.491568e+00
2.413745e+01	-6.530329e+00
2.427686e+01	-6.569433e+00
2.441709e+01	-6.608550e+00
2.455812e+01	-6.647627e+00
2.469997e+01	-6.687205e+00
2.484263e+01	-6.726133e+00
2.498612e+01	-6.765985e+00
2.513044e+01	-6.805109e+00
2.527559e+01	-6.845079e+00
2.542158e+01	-6.884679e+00
2.556842e+01	-6.924174e+00
2.571610e+01	-6.964671e+00
2.586463e+01	-7.004714e+00
2.601403e+01	-7.044325e+00
2.616428e+01	-7.084843e+00
2.631541e+01	-7.124779e+00
2.646740e+01	-7.165160e+00
2.662028e+01	-7.206024e+00
2.677404e+01	-7.246434e+00
2.692868e+01	-7.287053e+00
2.708422e+01	-7.327727e+00
2.724066e+01	-7.368499e+00
2.739800e+01	-7.409881e+00
2.755625e+01	-7.450559e+00
2.771541e+01	-7.491166e+00
2.787550e+01	-7.532588e+00
2.803650e+01	-7.573887e+00
2.819844e+01	-7.615667e+00
2.836131e+01	-7.656400e+00
2.852513e+01	-7.698145e+00
2.868989e+01	-7.739506e+00
2.885560e+01	-7.781349e+00
2.902227e+01	-7.823029e+00
2.918990e+01	-7.864765e+00
2.935850e+01	-7.906819e+00
2.952807e+01	-7.948929e+00
2.969863e+01	-7.990929e+00
2.987016e+01	-8.033177e+00
3.004269e+01	-8.075234e+00
3.021622e+01	-8.117544e+00
3.039075e+01	-8.159250e+00
3.056628e+01	-8.201938e+00
3.074283e+01	-8.244031e+00
3.092040e+01	-8.287095e+00
3.109900e+01	-8.329603e+00
3.127862e+01	-8.372528e+00
3.145929e+01	-8.415595e+00
3.164099e+01	-8.457770e+00
3.182375e+01	-8.501228e+00
3.200756e+01	-8.544010e+00
3.219244e+01	-8.587088e+00
3.237838e+01	-8.630576e+00
3.256540e+01	-8.673122e+00
3.275349e+01	-8.716708e+00
3.294268e+01	-8.760118e+00
3.313295e+01	-8.803222e+00
3.332433e+01	-8.847065e+00
3.351681e+01	-8.890512e+00
3.371040e+01	-8.933770e+00
3.390511e+01	-8.978128e+00
3.410094e+01	-9.021830e+00
3.429791e+01	-9.064966e+00
3.449601e+01	-9.109181e+00
3.469526e+01	-9.153228e+00
3.489566e+01	-9.196996e+00
3.509721e+01	-9.241332e+00
3.529993e+01	-9.285218e+00
3.550382e+01	-9.329333e+00
3.570889e+01	-9.373044e+00
3.591515e+01	-9.417946e+00
3.612259e+01	-9.462332e+00
3.633123e+01	-9.506573e+00
3.654108e+01	-9.550791e+00
3.675214e+01	-9.595512e+00
3.696442e+01	-9.640008e+00
3.717792e+01	-9.684553e+00
3.739266e+01	-9.729380e+00
3.760864e+01	-9.773682e+00
3.782587e+01	-9.818558e+00
3.804435e+01	-9.863551e+00
3.826409e+01	-9.908449e+00
3.848510e+01	-9.953502e+00
3.870739e+01	-9.998434e+00
3.893096e+01	-1.004307e+01
3.915583e+01	-1.008801e+01
3.938199e+01	-1.013301e+01
3.960946e+01	-1.017916e+01
3.983824e+01	-1.022388e+01
4.006834e+01	-1.026950e+01
4.029978e+01	-1.031519e+01
4.053255e+01	-1.036066e+01
4.076666e+01	-1.040613e+01
4.100213e+01	-1.045093e+01
4.123896e+01	-1.049686e+01
4.147715e+01	-1.054226e+01
4.171672e+01	-1.058792e+01
4.195767e+01	-1.063388e+01
4.220002e+01	-1.067904e+01
4.244377e+01	-1.072492e+01
4.268892e+01	-1.077068e+01
4.293549e+01	-1.081675e+01
4.318348e+01	-1.086283e+01
4.343291e+01	-1.090876e+01
4.368377e+01	-1.095471e+01
4.393609e+01	-1.100076e+01
4.418986e+01	-1.104665e+01
4.444510e+01	-1.109329e+01
4.470182e+01	-1.113924e+01
4.496001e+01	-1.118570e+01
4.521970e+01	-1.123172e+01
4.548089e+01	-1.127801e+01
4.574358e+01	-1.132474e+01
4.600779e+01	-1.137052e+01
4.627353e+01	-1.141710e+01
4.654081e+01	-1.146337e+01
4.680963e+01	-1.150980e+01
4.708000e+01	-1.155636e+01
4.735193e+01	-1.160265e+01
4.762543e+01	-1.164968e+01
4.790051e+01	-1.169611e+01
4.817719e+01	-1.174298e+01
4.845545e+01	-1.178957e+01
4.873533e+01	-1.183595e+01
4.901682e+01	-1.188301e+01
4.929994e+01	-1.192950e+01
4.958470e+01	-1.197673e+01
4.987110e+01	-1.202326e+01
5.015915e+01	-1.206975e+01
5.044887e+01	-1.211738e+01
5.074026e+01	-1.216428e+01
5.103333e+01	-1.221099e+01
5.132810e+01	-1.225844e+01
5.162457e+01	-1.230530e+01
5.192275e+01	-1.235167e+01
5.222265e+01	-1.239931e+01
5.252429e+01	-1.244695e+01
5.282767e+01	-1.249395e+01
5.313280e+01	-1.254088e+01
5.343969e+01	-1.258829e+01
5.374836e+01	-1.263542e+01
5.405880e+01	-1.268296e+01
5.437105e+01	-1.273086e+01
5.468509e+01	-1.277786e+01
5.500095e+01	-1.282540e+01
5.531863e+01	-1.287240e+01
5.563815e+01	-1.291978e+01
5.595951e+01	-1.296750e+01
5.628273e+01	-1.301502e+01
5.660782e+01	-1.306267e+01
5.693479e+01	-1.311010e+01
5.726364e+01	-1.315876e+01
5.759439e+01	-1.320561e+01
5.792705e+01	-1.325301e+01
5.826164e+01	-1.330106e+01
5.859815e+01	-1.334786e+01
5.893662e+01	-1.339598e+01
5.927703e+01	-1.344454e+01
5.961941e+01	-1.349155e+01
5.996377e+01	-1.353964e+01
6.031012e+01	-1.358682e+01
6.065847e+01	-1.363614e+01
6.100883e+01	-1.368327e+01
6.136121e+01	-1.373079e+01
6.171563e+01	-1.377851e+01
6.207210e+01	-1.382744e+01
6.243063e+01	-1.387532e+01
6.279122e+01	-1.392270e+01
6.315390e+01	-1.397047e+01
6.351868e+01	-1.401881e+01
6.388556e+01	-1.406670e+01
6.425456e+01	-1.411425e+01
6.462569e+01	-1.416301e+01
6.499897e+01	-1.421119e+01
6.537440e+01	-1.425913e+01
6.575200e+01	-1.430700e+01
6.613178e+01	-1.435448e+01
6.651375e+01	-1.440364e+01
6.689793e+01	-1.445240e+01
6.728433e+01	-1.450021e+01
6.767297e+01	-1.454831e+01
6.806384e+01	-1.459653e+01
6.845698e+01	-1.464396e+01
6.885238e+01	-1.469208e+01
6.925007e+01	-1.474132e+01
6.965005e+01	-1.479115e+01
7.005235e+01	-1.483859e+01
7.045697e+01	-1.488678e+01
7.086393e+01	-1.493567e+01
7.127323e+01	-1.498352e+01
7.168490e+01	-1.503215e+01
7.209895e+01	-1.508068e+01
7.251539e+01	-1.512862e+01
7.293424e+01	-1.517759e+01
7.335551e+01	-1.522604e+01
7.377920e+01	-1.527515e+01
7.420535e+01	-1.532383e+01
7.463396e+01	-1.537175e+01
7.506504e+01	-1.542071e+01
7.549861e+01	-1.546884e+01
7.593469e+01	-1.551725e+01
7.637328e+01	-1.556648e+01
7.681441e+01	-1.561449e+01
7.725809e+01	-1.566397e+01
7.770433e+01	-1.571217e+01
7.815315e+01	-1.576114e+01
7.860456e+01	-1.580881e+01
7.905857e+01	-1.585798e+01
7.951521e+01	-1.590803e+01
7.997449e+01	-1.595597e+01
8.043642e+01	-1.600425e+01
8.090102e+01	-1.605411e+01
8.136830e+01	-1.610302e+01
8.183828e+01	-1.615090e+01
8.231097e+01	-1.620023e+01
8.278640e+01	-1.624911e+01
8.326457e+01	-1.629719e+01
8.374550e+01	-1.634673e+01
8.422921e+01	-1.639538e+01
8.471572e+01	-1.644379e+01
8.520503e+01	-1.649284e+01
8.569717e+01	-1.654194e+01
8.619215e+01	-1.659166e+01
8.669000e+01	-1.663974e+01
8.719071e+01	-1.668930e+01
8.769432e+01	-1.673723e+01
8.820084e+01	-1.678739e+01
8.871029e+01	-1.683642e+01
8.922267e+01	-1.688425e+01
8.973802e+01	-1.693452e+01
9.025634e+01	-1.698366e+01
9.077766e+01	-1.703261e+01
9.130199e+01	-1.708083e+01
9.182935e+01	-1.713092e+01
9.235975e+01	-1.717850e+01
9.289321e+01	-1.722799e+01
9.342976e+01	-1.727857e+01
9.396941e+01	-1.732627e+01
9.451217e+01	-1.737546e+01
9.505807e+01	-1.742542e+01
9.560712e+01	-1.747305e+01
9.615934e+01	-1.752244e+01
9.671476e+01	-1.757059e+01
9.727338e+01	-1.762174e+01
9.783522e+01	-1.767049e+01
9.840032e+01	-1.771952e+01
9.896867e+01	-1.776824e+01
9.954031e+01	-1.781743e+01
1.001153e+02	-1.786651e+01
1.006935e+02	-1.791611e+01
1.012751e+02	-1.796598e+01
1.018601e+02	-1.801341e+01
1.024484e+02	-1.806430e+01
1.030402e+02	-1.811454e+01
1.036353e+02	-1.816235e+01
1.042339e+02	-1.821168e+01
1.048360e+02	-1.826178e+01
1.054415e+02	-1.830976e+01
1.060505e+02	-1.835988e+01
1.066631e+02	-1.840718e+01
1.072791e+02	-1.845820e+01
1.078988e+02	-1.850655e+01
1.085220e+02	-1.855603e+01
1.091488e+02	-1.860654e+01
1.097793e+02	-1.865670e+01
1.104133e+02	-1.870671e+01
1.110511e+02	-1.875404e+01
1.116925e+02	-1.880459e+01
1.123376e+02	-1.885299e+01
1.129865e+02	-1.890253e+01
1.136391e+02	-1.895163e+01
1.142955e+02	-1.900058e+01
1.149556e+02	-1.905057e+01
1.156196e+02	-1.909948e+01
1.162874e+02	-1.914917e+01
1.169591e+02	-1.920036e+01
1.176347e+02	-1.924782e+01
1.183141e+02	-1.929846e+01
1.189975e+02	-1.934846e+01
1.196848e+02	-1.939657e+01
1.203761e+02	-1.944694e+01
1.210714e+02	-1.949440e+01
1.217707e+02	-1.954384e+01
1.224740e+02	-1.959395e+01
1.231814e+02	-1.964369e+01
1.238929e+02	-1.969361e+01
1.246085e+02	-1.974303e+01
1.253283e+02	-1.979252e+01
1.260522e+02	-1.984206e+01
1.267802e+02	-1.989240e+01
1.275125e+02	-1.994059e+01
1.282490e+02	-1.998980e+01
1.289898e+02	-2.003960e+01
1.297348e+02	-2.008976e+01
1.304842e+02	-2.013752e+01
1.312378e+02	-2.018785e+01
1.319959e+02	-2.023881e+01
1.327583e+02	-2.028645e+01
1.335251e+02	-2.033671e+01
1.342963e+02	-2.038698e+01
1.350720e+02	-2.043698e+01
1.358522e+02	-2.048605e+01
1.366368e+02	-2.053616e+01
1.374260e+02	-2.058740e+01
1.382198e+02	-2.063464e+01
1.390182e+02	-2.068445e+01
1.398211e+02	-2.073444e+01
1.406287e+02	-2.078387e+01
1.414410e+02	-2.083300e+01
1.422579e+02	-2.088270e+01
1.430796e+02	-2.093331e+01
1.439060e+02	-2.098161e+01
1.447372e+02	-2.103301e+01
1.455732e+02	-2.108265e+01
1.464141e+02	-2.113088e+01
1.472597e+02	-2.117927e+01
1.481103e+02	-2.123195e+01
1.489658e+02	-2.128161e+01
1.498262e+02	-2.132909e+01
1.506916e+02	-2.137947e+01
1.515620e+02	-2.142984e+01
1.524374e+02	-2.148024e+01
1.533179e+02	-2.152999e+01
1.542034e+02	-2.157843e+01
1.550941e+02	-2.162692e+01
1.559899e+02	-2.167826e+01
1.568909e+02	-2.173036e+01
1.577971e+02	-2.177697e+01
1.587085e+02	-2.182409e+01
1.596252e+02	-2.187602e+01
1.605472e+02	-2.192738e+01
1.614745e+02	-2.197630e+01
1.624072e+02	-2.202673e+01
1.633453e+02	-2.207448e+01
1.642887e+02	-2.212718e+01
1.652377e+02	-2.217619e+01
1.661921e+02	-2.222579e+01
1.671520e+02	-2.227410e+01
1.681175e+02	-2.232309e+01
1.690885e+02	-2.237345e+01
1.700651e+02	-2.242316e+01
1.710474e+02	-2.247398e+01
1.720354e+02	-2.252232e+01
1.730291e+02	-2.257340e+01
1.740285e+02	-2.262494e+01
1.750337e+02	-2.267191e+01
1.760446e+02	-2.272043e+01
1.770615e+02	-2.277139e+01
1.780842e+02	-2.282205e+01
1.791128e+02	-2.287431e+01
1.801473e+02	-2.292170e+01
1.811878e+02	-2.297175e+01
1.822344e+02	-2.302030e+01
1.832870e+02	-2.307125e+01
1.843456e+02	-2.311989e+01
1.854104e+02	-2.317134e+01
1.864813e+02	-2.322040e+01
1.875584e+02	-2.326937e+01
1.886418e+02	-2.332026e+01
1.897313e+02	-2.337108e+01
1.908272e+02	-2.342051e+01
1.919294e+02	-2.347169e+01
1.930380e+02	-2.352010e+01
1.941530e+02	-2.357082e+01
1.952744e+02	-2.361771e+01
1.964023e+02	-2.367112e+01
1.975367e+02	-2.372093e+01
1.986777e+02	-2.376869e+01
1.998252e+02	-2.381945e+01
2.009794e+02	-2.386876e+01
2.021403e+02	-2.391785e+01
2.033078e+02	-2.396900e+01
2.044821e+02	-2.401917e+01
2.056632e+02	-2.406786e+01
2.068511e+02	-2.411819e+01
2.080459e+02	-2.416855e+01
2.092475e+02	-2.421538e+01
2.104561e+02	-2.426570e+01
2.116717e+02	-2.431909e+01
2.128943e+02	-2.436846e+01
2.141240e+02	-2.441597e+01
2.153608e+02	-2.446626e+01
2.166047e+02	-2.451612e+01
2.178558e+02	-2.456622e+01
2.191141e+02	-2.461469e+01
2.203797e+02	-2.466564e+01
2.216526e+02	-2.471539e+01
2.229329e+02	-2.476714e+01
2.242205e+02	-2.481484e+01
2.255156e+02	-2.486680e+01
2.268182e+02	-2.491616e+01
2.281283e+02	-2.496473e+01
2.294459e+02	-2.501445e+01
2.307712e+02	-2.506593e+01
2.321041e+02	-2.511560e+01
2.334447e+02	-2.516490e+01
2.347931e+02	-2.521568e+01
2.361493e+02	-2.526657e+01
2.375133e+02	-2.531290e+01
2.388851e+02	-2.536582e+01
2.402649e+02	-2.541745e+01
2.416527e+02	-2.546397e+01
2.430484e+02	-2.551383e+01
2.444523e+02	-2.556596e+01
2.458642e+02	-2.561471e+01
2.472843e+02	-2.566571e+01
2.487126e+02	-2.571201e+01
2.501492e+02	-2.576603e+01
2.515940e+02	-2.581335e+01
2.530472e+02	-2.586513e+01
2.545088e+02	-2.591602e+01
2.559789e+02	-2.596846e+01
2.574574e+02	-2.601700e+01
2.589444e+02	-2.606426e+01
2.604401e+02	-2.611692e+01
2.619444e+02	-2.616449e+01
2.634574e+02	-2.621252e+01
2.649791e+02	-2.626485e+01
2.665096e+02	-2.631649e+01
2.680489e+02	-2.636683e+01
2.695972e+02	-2.641336e+01
2.711544e+02	-2.646494e+01
2.727205e+02	-2.651315e+01
2.742958e+02	-2.656112e+01
2.758801e+02	-2.661524e+01
2.774736e+02	-2.666170e+01
2.790762e+02	-2.671206e+01
2.806882e+02	-2.676203e+01
2.823094e+02	-2.681505e+01
2.839400e+02	-2.686249e+01
2.855800e+02	-2.691240e+01
2.872295e+02	-2.696318e+01
2.888886e+02	-2.701164e+01
2.905572e+02	-2.706669e+01
2.922354e+02	-2.711391e+01
2.939234e+02	-2.716441e+01
2.956211e+02	-2.721388e+01
2.973286e+02	-2.726423e+01
2.990459e+02	-2.731052e+01
3.007732e+02	-2.736138e+01
3.025104e+02	-2.741094e+01
3.042577e+02	-2.746497e+01
3.060151e+02	-2.751427e+01
3.077826e+02	-2.756389e+01
3.095604e+02	-2.761612e+01
3.113484e+02	-2.766255e+01
3.131467e+02	-2.771316e+01
3.149554e+02	-2.775982e+01
3.167746e+02	-2.781698e+01
3.186043e+02	-2.786502e+01
3.204445e+02	-2.791510e+01
3.222954e+02	-2.796519e+01
3.241570e+02	-2.801471e+01
3.260293e+02	-2.806183e+01
3.279124e+02	-2.811371e+01
3.298064e+02	-2.816178e+01
3.317114e+02	-2.821379e+01
3.336273e+02	-2.826406e+01
3.355544e+02	-2.830957e+01
3.374925e+02	-2.836685e+01
3.394418e+02	-2.841654e+01
3.414024e+02	-2.846680e+01
3.433744e+02	-2.851443e+01
3.453577e+02	-2.856258e+01
3.473525e+02	-2.861226e+01
3.493588e+02	-2.866787e+01
3.513766e+02	-2.871419e+01
3.534062e+02	-2.876457e+01
3.554474e+02	-2.881325e+01
3.575005e+02	-2.886666e+01
3.595654e+02	-2.891270e+01
3.616422e+02	-2.896529e+01
3.637311e+02	-2.901774e+01
3.658320e+02	-2.906712e+01
3.679450e+02	-2.911478e+01
3.700702e+02	-2.916469e+01
3.722077e+02	-2.921494e+01
3.743576e+02	-2.926211e+01
3.765199e+02	-2.931265e+01
3.786946e+02	-2.936518e+01
3.808820e+02	-2.941447e+01
3.830819e+02	-2.946549e+01
3.852946e+02	-2.951247e+01
3.875200e+02	-2.956876e+01
3.897583e+02	-2.961429e+01
3.920096e+02	-2.966957e+01
3.942738e+02	-2.971800e+01
3.965511e+02	-2.976903e+01
3.988416e+02	-2.981604e+01
4.011452e+02	-2.986759e+01
4.034622e+02	-2.991753e+01
4.057926e+02	-2.996606e+01
4.081365e+02	-3.001689e+01
4.104938e+02	-3.006383e+01
4.128648e+02	-3.011645e+01
4.152495e+02	-3.016840e+01
4.176480e+02	-3.021221e+01
4.200603e+02	-3.026720e+01
4.224866e+02	-3.031516e+01
4.249268e+02	-3.036835e+01
4.273812e+02	-3.041498e+01
4.298497e+02	-3.046074e+01
4.323325e+02	-3.051232e+01
4.348297e+02	-3.056818e+01
4.373412e+02	-3.061836e+01
4.398673e+02	-3.066534e+01
4.424079e+02	-3.071628e+01
4.449633e+02	-3.077117e+01
4.475334e+02	-3.081512e+01
4.501183e+02	-3.086814e+01
4.527182e+02	-3.092121e+01
4.553330e+02	-3.097167e+01
4.579630e+02	-3.102300e+01
4.606082e+02	-3.106808e+01
4.632687e+02	-3.112060e+01
4.659445e+02	-3.117103e+01
4.686358e+02	-3.122047e+01
4.713426e+02	-3.127022e+01
4.740650e+02	-3.131952e+01
4.768032e+02	-3.136763e+01
4.795572e+02	-3.141812e+01
4.823271e+02	-3.147495e+01
4.851130e+02	-3.151936e+01
4.879150e+02	-3.157072e+01
4.907332e+02	-3.161783e+01
4.935676e+02	-3.166695e+01
4.964185e+02	-3.172246e+01
4.992858e+02	-3.177603e+01
5.021696e+02	-3.182182e+01
5.050701e+02	-3.187415e+01
5.079874e+02	-3.192254e+01
5.109215e+02	-3.197156e+01
5.138726e+02	-3.202242e+01
5.168407e+02	-3.206957e+01
5.198259e+02	-3.212336e+01
5.228284e+02	-3.217601e+01
5.258482e+02	-3.222171e+01
5.288855e+02	-3.227836e+01
5.319403e+02	-3.232817e+01
5.350128e+02	-3.237244e+01
5.381030e+02	-3.242089e+01
5.412111e+02	-3.247518e+01
5.443371e+02	-3.252790e+01
5.474812e+02	-3.258307e+01
5.506434e+02	-3.262553e+01
5.538239e+02	-3.267252e+01
5.570228e+02	-3.272441e+01
5.602401e+02	-3.277976e+01
5.634760e+02	-3.282561e+01
5.667306e+02	-3.288339e+01
5.700040e+02	-3.292717e+01
5.732964e+02	-3.297624e+01
5.766077e+02	-3.303463e+01
5.799382e+02	-3.306998e+01
5.832879e+02	-3.311973e+01
5.866569e+02	-3.317575e+01
5.900454e+02	-3.322687e+01
5.934535e+02	-3.327735e+01
5.968813e+02	-3.332503e+01
6.003288e+02	-3.337658e+01
6.037963e+02	-3.343452e+01
6.072838e+02	-3.348483e+01
6.107914e+02	-3.352917e+01
6.143194e+02	-3.358263e+01
6.178676e+02	-3.362420e+01
6.214364e+02	-3.368386e+01
6.250258e+02	-3.373436e+01
6.286359e+02	-3.378293e+01
6.322669e+02	-3.382373e+01
6.359189e+02	-3.388281e+01
6.395919e+02	-3.392601e+01
6.432862e+02	-3.397662e+01
6.470017e+02	-3.402900e+01
6.507388e+02	-3.408791e+01
6.544974e+02	-3.413047e+01
6.582778e+02	-3.418384e+01
6.620800e+02	-3.423518e+01
6.659041e+02	-3.428663e+01
6.697504e+02	-3.433598e+01
6.736188e+02	-3.438654e+01
6.775096e+02	-3.443281e+01
6.814229e+02	-3.448665e+01
6.853587e+02	-3.453140e+01
6.893173e+02	-3.459412e+01
6.932988e+02	-3.464138e+01
6.973033e+02	-3.468442e+01
7.013309e+02	-3.473050e+01
