Frequency(Hz)	Magnitude(dB)
1.000000e+01	-2.077556e+00
1.005776e+01	-2.096836e+00
1.011585e+01	-2.115930e+00
1.017428e+01	-2.135526e+00
1.023305e+01	-2.154852e+00
1.029215e+01	-2.174530e+00
1.035160e+01	-2.194209e+00
1.041139e+01	-2.214194e+00
1.047153e+01	-2.234118e+00
1.053201e+01	-2.254301e+00
1.059284e+01	-2.274629e+00
1.065403e+01	-2.295069e+00
1.071556e+01	-2.315830e+00
1.077746e+01	-2.336557e+00
1.083971e+01	-2.357444e+00
1.090232e+01	-2.378322e+00
1.096529e+01	-2.399635e+00
1.102862e+01	-2.420900e+00
1.109232e+01	-2.442401e+00
1.115639e+01	-2.464012e+00
1.122083e+01	-2.485591e+00
1.128564e+01	-2.507496e+00
1.135083e+01	-2.529523e+00
1.141639e+01	-2.551437e+00
1.148233e+01	-2.574159e+00
1.154865e+01	-2.596662e+00
1.161536e+01	-2.619182e+00
1.168245e+01	-2.641677e+00
1.174992e+01	-2.664587e+00
1.181779e+01	-2.687629e+00
1.188605e+01	-2.710828e+00
1.195470e+01	-2.733919e+00
1.202375e+01	-2.757498e+00
1.209320e+01	-2.781142e+00
1.216305e+01	-2.804933e+00
1.223330e+01	-2.828613e+00
1.230396e+01	-2.852685e+00
1.237503e+01	-2.877063e+00
1.244651e+01	-2.901304e+00
1.251840e+01	-2.925586e+00
1.259070e+01	-2.950276e+00
1.266343e+01	-2.975003e+00
1.273657e+01	-3.000026e+00
1.281014e+01	-3.024821e+00
1.288413e+01	-3.050129e+00
1.295855e+01	-3.075243e+00
1.303339e+01	-3.100847e+00
1.310867e+01	-3.126603e+00
1.318439e+01	-3.152160e+00
1.326054e+01	-3.178253e+00
1.333713e+01	-3.204104e+00
1.341417e+01	-3.230644e+00
1.349165e+01	-3.256837e+00
1.356958e+01	-3.283126e+00
1.364795e+01	-3.309749e+00
1.372678e+01	-3.336501e+00
1.380607e+01	-3.363269e+00
1.388581e+01	-3.390517e+00
1.396602e+01	-3.417680e+00
1.404668e+01	-3.444840e+00
1.412782e+01	-3.472294e+00
1.420942e+01	-3.499903e+00
1.429149e+01	-3.527491e+00
1.437404e+01	-3.555615e+00
1.445706e+01	-3.583442e+00
1.454057e+01	-3.611550e+00
1.462455e+01	-3.640167e+00
1.470902e+01	-3.668692e+00
1.479398e+01	-3.697047e+00
1.487943e+01	-3.725792e+00
1.496537e+01	-3.754836e+00
1.505181e+01	-3.783877e+00
1.513875e+01	-3.812951e+00
1.522619e+01	-3.842391e+00
1.531414e+01	-3.871650e+00
1.540259e+01	-3.901423e+00
1.549156e+01	-3.931199e+00
1.558103e+01	-3.960846e+00
1.567103e+01	-3.990846e+00
1.576155e+01	-4.020974e+00
1.585258e+01	-4.051481e+00
1.594415e+01	-4.081616e+00
1.603624e+01	-4.112327e+00
1.612886e+01	-4.142868e+00
1.622202e+01	-4.173828e+00
1.631572e+01	-4.204819e+00
1.640996e+01	-4.235813e+00
1.650474e+01	-4.267165e+00
1.660008e+01	-4.298560e+00
1.669596e+01	-4.329958e+00
1.679239e+01	-4.361223e+00
1.688938e+01	-4.393378e+00
1.698694e+01	-4.425234e+00
1.708505e+01	-4.457261e+00
1.718373e+01	-4.489512e+00
1.728299e+01	-4.521740e+00
1.738281e+01	-4.554120e+00
1.748322e+01	-4.586288e+00
1.758420e+01	-4.619474e+00
1.768576e+01	-4.652483e+00
1.778792e+01	-4.685314e+00
1.789066e+01	-4.718375e+00
1.799399e+01	-4.751607e+00
1.809793e+01	-4.784926e+00
1.820246e+01	-4.818323e+00
1.830760e+01	-4.851798e+00
1.841334e+01	-4.885590e+00
1.851969e+01	-4.919448e+00
1.862666e+01	-4.953615e+00
1.873425e+01	-4.987707e+00
1.884246e+01	-5.022061e+00
1.895129e+01	-5.056087e+00
1.906075e+01	-5.090564e+00
1.917085e+01	-5.125153e+00
1.928158e+01	-5.160046e+00
1.939295e+01	-5.195027e+00
1.950496e+01	-5.229753e+00
1.961762e+01	-5.264625e+00
1.973093e+01	-5.299938e+00
1.984490e+01	-5.335427e+00
1.995952e+01	-5.370843e+00
2.007480e+01	-5.406331e+00
2.019076e+01	-5.441743e+00
2.030738e+01	-5.478082e+00
2.042467e+01	-5.513430e+00
2.054264e+01	-5.549431e+00
2.066130e+01	-5.585862e+00
2.078064e+01	-5.621914e+00
2.090066e+01	-5.658379e+00
2.102139e+01	-5.695107e+00
2.114280e+01	-5.731747e+00
2.126492e+01	-5.768284e+00
2.138775e+01	-5.805005e+00
2.151128e+01	-5.842094e+00
2.163553e+01	-5.879063e+00
2.176050e+01	-5.916219e+00
2.188619e+01	-5.953280e+00
2.201260e+01	-5.990891e+00
2.213974e+01	-6.028217e+00
2.226762e+01	-6.065942e+00
2.239624e+01	-6.103826e+00
2.252560e+01	-6.141605e+00
2.265571e+01	-6.179126e+00
2.278656e+01	-6.217432e+00
2.291818e+01	-6.255748e+00
2.305055e+01	-6.294103e+00
2.318369e+01	-6.332240e+00
2.331760e+01	-6.370320e+00
2.345228e+01	-6.409278e+00
2.358774e+01	-6.447675e+00
2.372398e+01	-6.486645e+00
2.386101e+01	-6.525415e+00
2.399883e+01	-6.563895e+00
2.413745e+01	-6.603088e+00
2.427686e+01	-6.642358e+00
2.441709e+01	-6.681722e+00
2.455812e+01	-6.720977e+00
2.469997e+01	-6.760320e+00
2.484263e+01	-6.799992e+00
2.498612e+01	-6.839450e+00
2.513044e+01	-6.879192e+00
2.527559e+01	-6.919038e+00
2.542158e+01	-6.958998e+00
2.556842e+01	-6.998918e+00
2.571610e+01	-7.039072e+00
2.586463e+01	-7.079323e+00
2.601403e+01	-7.119629e+00
2.616428e+01	-7.159690e+00
2.631541e+01	-7.199950e+00
2.646740e+01	-7.241087e+00
2.662028e+01	-7.281486e+00
2.677404e+01	-7.322270e+00
2.692868e+01	-7.363093e+00
2.708422e+01	-7.403983e+00
2.724066e+01	-7.444905e+00
2.739800e+01	-7.485689e+00
2.755625e+01	-7.527248e+00
2.771541e+01	-7.568277e+00
2.787550e+01	-7.609318e+00
2.803650e+01	-7.650815e+00
2.819844e+01	-7.692292e+00
2.836131e+01	-7.733997e+00
2.852513e+01	-7.775185e+00
2.868989e+01	-7.817472e+00
2.885560e+01	-7.859556e+00
2.902227e+01	-7.901118e+00
2.918990e+01	-7.942860e+00
2.935850e+01	-7.985349e+00
2.952807e+01	-8.027004e+00
2.969863e+01	-8.069334e+00
2.987016e+01	-8.111675e+00
3.004269e+01	-8.153871e+00
3.021622e+01	-8.196695e+00
3.039075e+01	-8.238722e+00
3.056628e+01	-8.281385e+00
3.074283e+01	-8.324094e+00
3.092040e+01	-8.366870e+00
3.109900e+01	-8.409164e+00
3.127862e+01	-8.452277e+00
3.145929e+01	-8.495531e+00
3.164099e+01	-8.538602e+00
3.182375e+01	-8.581242e+00
3.200756e+01	-8.624233e+00
3.219244e+01	-8.667401e+00
3.237838e+01	-8.711287e+00
3.256540e+01	-8.754765e+00
3.275349e+01	-8.797168e+00
3.294268e+01	-8.840643e+00
3.313295e+01	-8.884272e+00
3.332433e+01	-8.928158e+00
3.351681e+01	-8.971847e+00
3.371040e+01	-9.015294e+00
3.390511e+01	-9.059099e+00
3.410094e+01	-9.102766e+00
3.429791e+01	-9.147570e+00
3.449601e+01	-9.191048e+00
3.469526e+01	-9.235123e+00
3.489566e+01	-9.279131e+00
3.509721e+01	-9.323798e+00
3.529993e+01	-9.367290e+00
3.550382e+01	-9.412086e+00
3.570889e+01	-9.455763e+00
3.591515e+01	-9.500761e+00
3.612259e+01	-9.544871e+00
3.633123e+01	-9.589303e+00
3.654108e+01	-9.633782e+00
3.675214e+01	-9.678338e+00
3.696442e+01	-9.723158e+00
3.717792e+01	-9.768170e+00
3.739266e+01	-9.812817e+00
3.760864e+01	-9.857222e+00
3.782587e+01	-9.902050e+00
3.804435e+01	-9.947416e+00
3.826409e+01	-9.992634e+00
3.848510e+01	-1.003732e+01
3.870739e+01	-1.008239e+01
3.893096e+01	-1.012752e+01
3.915583e+01	-1.017279e+01
3.938199e+01	-1.021806e+01
3.960946e+01	-1.026294e+01
3.983824e+01	-1.030909e+01
4.006834e+01	-1.035359e+01
4.029978e+01	-1.039928e+01
4.053255e+01	-1.044517e+01
4.076666e+01	-1.049136e+01
4.100213e+01	-1.053573e+01
4.123896e+01	-1.058220e+01
4.147715e+01	-1.062759e+01
4.171672e+01	-1.067373e+01
4.195767e+01	-1.071921e+01
4.220002e+01	-1.076511e+01
4.244377e+01	-1.081062e+01
4.268892e+01	-1.085668e+01
4.293549e+01	-1.090292e+01
4.318348e+01	-1.094864e+01
4.343291e+01	-1.099413e+01
4.368377e+01	-1.103985e+01
4.393609e+01	-1.108743e+01
4.418986e+01	-1.113276e+01
4.444510e+01	-1.117886e+01
4.470182e+01	-1.122538e+01
4.496001e+01	-1.127088e+01
4.521970e+01	-1.131812e+01
4.548089e+01	-1.136445e+01
4.574358e+01	-1.141099e+01
4.600779e+01	-1.145629e+01
4.627353e+01	-1.150391e+01
4.654081e+01	-1.155016e+01
4.680963e+01	-1.159615e+01
4.708000e+01	-1.164326e+01
4.735193e+01	-1.168966e+01
4.762543e+01	-1.173617e+01
4.790051e+01	-1.178331e+01
4.817719e+01	-1.183036e+01
4.845545e+01	-1.187683e+01
4.873533e+01	-1.192354e+01
4.901682e+01	-1.197050e+01
4.929994e+01	-1.201725e+01
4.958470e+01	-1.206413e+01
4.987110e+01	-1.211142e+01
5.015915e+01	-1.215822e+01
5.044887e+01	-1.220479e+01
5.074026e+01	-1.225208e+01
5.103333e+01	-1.229936e+01
5.132810e+01	-1.234557e+01
5.162457e+01	-1.239302e+01
5.192275e+01	-1.244077e+01
5.222265e+01	-1.248725e+01
5.252429e+01	-1.253494e+01
5.282767e+01	-1.258232e+01
5.313280e+01	-1.263007e+01
5.343969e+01	-1.267634e+01
5.374836e+01	-1.272414e+01
5.405880e+01	-1.277166e+01
5.437105e+01	-1.281882e+01
5.468509e+01	-1.286595e+01
5.500095e+01	-1.291294e+01
5.531863e+01	-1.296075e+01
5.563815e+01	-1.300840e+01
5.595951e+01	-1.305634e+01
5.628273e+01	-1.310369e+01
5.660782e+01	-1.315065e+01
5.693479e+01	-1.319908e+01
5.726364e+01	-1.324651e+01
5.759439e+01	-1.329416e+01
5.792705e+01	-1.334248e+01
5.826164e+01	-1.338930e+01
5.859815e+01	-1.343768e+01
5.893662e+01	-1.348507e+01
5.927703e+01	-1.353292e+01
5.961941e+01	-1.358033e+01
5.996377e+01	-1.362884e+01
6.031012e+01	-1.367636e+01
6.065847e+01	-1.372379e+01
6.100883e+01	-1.377281e+01
6.136121e+01	-1.382052e+01
6.171563e+01	-1.386825e+01
6.207210e+01	-1.391612e+01
6.243063e+01	-1.396521e+01
6.279122e+01	-1.401253e+01
6.315390e+01	-1.406033e+01
6.351868e+01	-1.410799e+01
6.388556e+01	-1.415726e+01
6.425456e+01	-1.420469e+01
6.462569e+01	-1.425215e+01
6.499897e+01	-1.430075e+01
6.537440e+01	-1.434921e+01
6.575200e+01	-1.439699e+01
6.613178e+01	-1.444640e+01
6.651375e+01	-1.449454e+01
6.689793e+01	-1.454134e+01
6.728433e+01	-1.458950e+01
6.767297e+01	-1.463897e+01
6.806384e+01	-1.468726e+01
6.845698e+01	-1.473445e+01
6.885238e+01	-1.478380e+01
6.925007e+01	-1.483216e+01
6.965005e+01	-1.488003e+01
7.005235e+01	-1.492858e+01
7.045697e+01	-1.497656e+01
7.086393e+01	-1.502559e+01
7.127323e+01	-1.507286e+01
7.168490e+01	-1.512180e+01
7.209895e+01	-1.517093e+01
7.251539e+01	-1.522002e+01
7.293424e+01	-1.526837e+01
7.335551e+01	-1.531679e+01
7.377920e+01	-1.536583e+01
7.420535e+01	-1.541349e+01
7.463396e+01	-1.546233e+01
7.506504e+01	-1.551146e+01
7.549861e+01	-1.555981e+01
7.593469e+01	-1.560821e+01
7.637328e+01	-1.565698e+01
7.681441e+01	-1.570531e+01
7.725809e+01	-1.575415e+01
7.770433e+01	-1.580327e+01
7.815315e+01	-1.585219e+01
7.860456e+01	-1.590052e+01
7.905857e+01	-1.594904e+01
7.951521e+01	-1.599756e+01
7.997449e+01	-1.604698e+01
8.043642e+01	-1.609568e+01
8.090102e+01	-1.614485e+01
8.136830e+01	-1.619377e+01
8.183828e+01	-1.624162e+01
8.231097e+01	-1.629068e+01
8.278640e+01	-1.633906e+01
8.326457e+01	-1.638908e+01
8.374550e+01	-1.643779e+01
8.422921e+01	-1.648704e+01
8.471572e+01	-1.653520e+01
8.520503e+01	-1.658494e+01
8.569717e+01	-1.663358e+01
8.619215e+01	-1.668219e+01
8.669000e+01	-1.673189e+01
8.719071e+01	-1.678030e+01
8.769432e+01	-1.682975e+01
8.820084e+01	-1.687745e+01
8.871029e+01	-1.692739e+01
8.922267e+01	-1.697698e+01
8.973802e+01	-1.702625e+01
9.025634e+01	-1.707536e+01
9.077766e+01	-1.712261e+01
9.130199e+01	-1.717295e+01
9.182935e+01	-1.722256e+01
9.235975e+01	-1.727078e+01
9.289321e+01	-1.731952e+01
9.342976e+01	-1.736835e+01
9.396941e+01	-1.741815e+01
9.451217e+01	-1.746554e+01
9.505807e+01	-1.751592e+01
9.560712e+01	-1.756523e+01
9.615934e+01	-1.761410e+01
9.671476e+01	-1.766401e+01
9.727338e+01	-1.771291e+01
9.783522e+01	-1.776123e+01
9.840032e+01	-1.781164e+01
9.896867e+01	-1.785998e+01
9.954031e+01	-1.790930e+01
1.001153e+02	-1.795852e+01
1.006935e+02	-1.800846e+01
1.012751e+02	-1.805742e+01
1.018601e+02	-1.810643e+01
1.024484e+02	-1.815474e+01
1.030402e+02	-1.820585e+01
1.036353e+02	-1.825389e+01
1.042339e+02	-1.830381e+01
1.048360e+02	-1.835237e+01
1.054415e+02	-1.840389e+01
1.060505e+02	-1.845211e+01
1.066631e+02	-1.850150e+01
1.072791e+02	-1.854975e+01
1.078988e+02	-1.860002e+01
1.085220e+02	-1.864962e+01
1.091488e+02	-1.869920e+01
1.097793e+02	-1.874794e+01
1.104133e+02	-1.879717e+01
1.110511e+02	-1.884653e+01
1.116925e+02	-1.889591e+01
1.123376e+02	-1.894568e+01
1.129865e+02	-1.899364e+01
1.136391e+02	-1.904377e+01
1.142955e+02	-1.909377e+01
1.149556e+02	-1.914299e+01
1.156196e+02	-1.919113e+01
1.162874e+02	-1.924089e+01
1.169591e+02	-1.929270e+01
1.176347e+02	-1.934064e+01
1.183141e+02	-1.938891e+01
1.189975e+02	-1.944102e+01
1.196848e+02	-1.948963e+01
1.203761e+02	-1.953920e+01
1.210714e+02	-1.958792e+01
1.217707e+02	-1.963603e+01
1.224740e+02	-1.968740e+01
1.231814e+02	-1.973515e+01
1.238929e+02	-1.978652e+01
1.246085e+02	-1.983564e+01
1.253283e+02	-1.988434e+01
1.260522e+02	-1.993463e+01
1.267802e+02	-1.998196e+01
1.275125e+02	-2.003473e+01
1.282490e+02	-2.008239e+01
1.289898e+02	-2.013364e+01
1.297348e+02	-2.018379e+01
1.304842e+02	-2.023241e+01
1.312378e+02	-2.027946e+01
1.319959e+02	-2.033038e+01
1.327583e+02	-2.038215e+01
1.335251e+02	-2.042974e+01
1.342963e+02	-2.048041e+01
1.350720e+02	-2.052885e+01
1.358522e+02	-2.057894e+01
1.366368e+02	-2.062637e+01
1.374260e+02	-2.067881e+01
1.382198e+02	-2.072838e+01
1.390182e+02	-2.077774e+01
1.398211e+02	-2.082688e+01
1.406287e+02	-2.087450e+01
1.414410e+02	-2.092741e+01
1.422579e+02	-2.097440e+01
1.430796e+02	-2.102680e+01
1.439060e+02	-2.107416e+01
1.447372e+02	-2.112497e+01
1.455732e+02	-2.117452e+01
1.464141e+02	-2.122298e+01
1.472597e+02	-2.127474e+01
1.481103e+02	-2.132189e+01
1.489658e+02	-2.137327e+01
1.498262e+02	-2.142216e+01
1.506916e+02	-2.147231e+01
1.515620e+02	-2.152160e+01
1.524374e+02	-2.157196e+01
1.533179e+02	-2.162179e+01
1.542034e+02	-2.167065e+01
1.550941e+02	-2.172117e+01
1.559899e+02	-2.177162e+01
1.568909e+02	-2.182166e+01
1.577971e+02	-2.186974e+01
1.587085e+02	-2.192036e+01
1.596252e+02	-2.197054e+01
1.605472e+02	-2.201905e+01
1.614745e+02	-2.206937e+01
1.624072e+02	-2.211943e+01
1.633453e+02	-2.216654e+01
1.642887e+02	-2.221747e+01
1.652377e+02	-2.226722e+01
1.661921e+02	-2.231912e+01
1.671520e+02	-2.236673e+01
1.681175e+02	-2.241662e+01
1.690885e+02	-2.246498e+01
1.700651e+02	-2.251432e+01
1.710474e+02	-2.256693e+01
1.720354e+02	-2.261857e+01
1.730291e+02	-2.266422e+01
1.740285e+02	-2.271550e+01
1.750337e+02	-2.276517e+01
1.760446e+02	-2.281618e+01
1.770615e+02	-2.286359e+01
1.780842e+02	-2.291546e+01
1.791128e+02	-2.296348e+01
1.801473e+02	-2.301460e+01
1.811878e+02	-2.306331e+01
1.822344e+02	-2.311344e+01
1.832870e+02	-2.316295e+01
1.843456e+02	-2.321272e+01
1.854104e+02	-2.326353e+01
1.864813e+02	-2.331406e+01
1.875584e+02	-2.336486e+01
1.886418e+02	-2.341231e+01
1.897313e+02	-2.346398e+01
1.908272e+02	-2.351286e+01
1.919294e+02	-2.356115e+01
1.930380e+02	-2.361264e+01
1.941530e+02	-2.366239e+01
1.952744e+02	-2.371063e+01
1.964023e+02	-2.376065e+01
1.975367e+02	-2.381052e+01
1.986777e+02	-2.386175e+01
1.998252e+02	-2.391016e+01
2.009794e+02	-2.396115e+01
2.021403e+02	-2.401136e+01
2.033078e+02	-2.406127e+01
2.044821e+02	-2.411094e+01
2.056632e+02	-2.416224e+01
2.068511e+02	-2.420959e+01
2.080459e+02	-2.426138e+01
2.092475e+02	-2.431025e+01
2.104561e+02	-2.436030e+01
2.116717e+02	-2.440846e+01
2.128943e+02	-2.445849e+01
2.141240e+02	-2.451149e+01
2.153608e+02	-2.456256e+01
2.166047e+02	-2.460796e+01
2.178558e+02	-2.465845e+01
2.191141e+02	-2.471014e+01
2.203797e+02	-2.476041e+01
2.216526e+02	-2.480805e+01
2.229329e+02	-2.485910e+01
2.242205e+02	-2.490911e+01
2.255156e+02	-2.496016e+01
2.268182e+02	-2.500698e+01
2.281283e+02	-2.505770e+01
2.294459e+02	-2.510736e+01
2.307712e+02	-2.515791e+01
2.321041e+02	-2.520914e+01
2.334447e+02	-2.525879e+01
2.347931e+02	-2.530917e+01
2.361493e+02	-2.536059e+01
2.375133e+02	-2.540821e+01
2.388851e+02	-2.545866e+01
2.402649e+02	-2.550680e+01
2.416527e+02	-2.555742e+01
2.430484e+02	-2.560686e+01
2.444523e+02	-2.565603e+01
2.458642e+02	-2.570835e+01
2.472843e+02	-2.575848e+01
2.487126e+02	-2.580696e+01
2.501492e+02	-2.585971e+01
2.515940e+02	-2.590813e+01
2.530472e+02	-2.595601e+01
2.545088e+02	-2.600935e+01
2.559789e+02	-2.605686e+01
2.574574e+02	-2.610681e+01
2.589444e+02	-2.615947e+01
2.604401e+02	-2.620705e+01
2.619444e+02	-2.625647e+01
2.634574e+02	-2.630752e+01
2.649791e+02	-2.635738e+01
2.665096e+02	-2.640372e+01
2.680489e+02	-2.645623e+01
2.695972e+02	-2.650818e+01
2.711544e+02	-2.655689e+01
2.727205e+02	-2.660590e+01
2.742958e+02	-2.665485e+01
2.758801e+02	-2.670464e+01
2.774736e+02	-2.675503e+01
2.790762e+02	-2.680282e+01
2.806882e+02	-2.685496e+01
2.823094e+02	-2.690598e+01
2.839400e+02	-2.695527e+01
2.855800e+02	-2.700751e+01
2.872295e+02	-2.705612e+01
2.888886e+02	-2.710536e+01
2.905572e+02	-2.715527e+01
2.922354e+02	-2.720252e+01
2.939234e+02	-2.725895e+01
2.956211e+02	-2.730559e+01
2.973286e+02	-2.735674e+01
2.990459e+02	-2.740738e+01
3.007732e+02	-2.745656e+01
3.025104e+02	-2.750617e+01
3.042577e+02	-2.755755e+01
3.060151e+02	-2.760501e+01
3.077826e+02	-2.766042e+01
3.095604e+02	-2.770557e+01
3.113484e+02	-2.775819e+01
3.131467e+02	-2.780489e+01
3.149554e+02	-2.786110e+01
3.167746e+02	-2.790931e+01
3.186043e+02	-2.795843e+01
3.204445e+02	-2.800650e+01
3.222954e+02	-2.806019e+01
3.241570e+02	-2.810335e+01
3.260293e+02	-2.815769e+01
3.279124e+02	-2.820976e+01
3.298064e+02	-2.825904e+01
3.317114e+02	-2.830570e+01
3.336273e+02	-2.835731e+01
3.355544e+02	-2.840847e+01
3.374925e+02	-2.845996e+01
3.394418e+02	-2.850338e+01
3.414024e+02	-2.855684e+01
3.433744e+02	-2.860989e+01
3.453577e+02	-2.865856e+01
3.473525e+02	-2.870778e+01
3.493588e+02	-2.876193e+01
3.513766e+02	-2.881002e+01
3.534062e+02	-2.885652e+01
3.554474e+02	-2.890788e+01
3.575005e+02	-2.895580e+01
3.595654e+02	-2.900767e+01
3.616422e+02	-2.905818e+01
3.637311e+02	-2.911206e+01
3.658320e+02	-2.915809e+01
3.679450e+02	-2.920836e+01
3.700702e+02	-2.925639e+01
3.722077e+02	-2.930857e+01
3.743576e+02	-2.935594e+01
3.765199e+02	-2.940854e+01
3.786946e+02	-2.945816e+01
3.808820e+02	-2.950968e+01
3.830819e+02	-2.955583e+01
3.852946e+02	-2.960789e+01
3.875200e+02	-2.965429e+01
3.897583e+02	-2.971172e+01
3.920096e+02	-2.975990e+01
3.942738e+02	-2.980921e+01
3.965511e+02	-2.985650e+01
3.988416e+02	-2.990997e+01
4.011452e+02	-2.995918e+01
4.034622e+02	-3.001092e+01
4.057926e+02	-3.005860e+01
4.081365e+02	-3.011309e+01
4.104938e+02	-3.016203e+01
4.128648e+02	-3.020764e+01
4.152495e+02	-3.025771e+01
4.176480e+02	-3.030404e+01
4.200603e+02	-3.036098e+01
4.224866e+02	-3.041154e+01
4.249268e+02	-3.045846e+01
4.273812e+02	-3.050936e+01
4.298497e+02	-3.055682e+01
4.323325e+02	-3.060739e+01
4.348297e+02	-3.065846e+01
4.373412e+02	-3.070940e+01
4.398673e+02	-3.076026e+01
4.424079e+02	-3.081010e+01
4.449633e+02	-3.085736e+01
4.475334e+02	-3.091487e+01
4.501183e+02	-3.096369e+01
4.527182e+02	-3.100798e+01
4.553330e+02	-3.106566e+01
4.579630e+02	-3.111211e+01
4.606082e+02	-3.115889e+01
4.632687e+02	-3.120936e+01
4.659445e+02	-3.125582e+01
4.686358e+02	-3.130905e+01
4.713426e+02	-3.135840e+01
4.740650e+02	-3.140881e+01
4.768032e+02	-3.146672e+01
4.795572e+02	-3.151371e+01
4.823271e+02	-3.156340e+01
4.851130e+02	-3.160876e+01
4.879150e+02	-3.166322e+01
4.907332e+02	-3.171760e+01
4.935676e+02	-3.175538e+01
4.964185e+02	-3.181446e+01
4.992858e+02	-3.186820e+01
5.021696e+02	-3.190927e+01
5.050701e+02	-3.196334e+01
5.079874e+02	-3.201837e+01
5.109215e+02	-3.206053e+01
5.138726e+02	-3.211294e+01
5.168407e+02	-3.216529e+01
5.198259e+02	-3.221461e+01
5.228284e+02	-3.225639e+01
5.258482e+02	-3.231544e+01
5.288855e+02	-3.236495e+01
5.319403e+02	-3.241063e+01
5.350128e+02	-3.246147e+01
5.381030e+02	-3.251590e+01
5.412111e+02	-3.256705e+01
5.443371e+02	-3.261233e+01
5.474812e+02	-3.266252e+01
5.506434e+02	-3.271812e+01
5.538239e+02	-3.276923e+01
5.570228e+02	-3.281489e+01
5.602401e+02	-3.287166e+01
5.634760e+02	-3.292146e+01
5.667306e+02	-3.296499e+01
5.700040e+02	-3.301941e+01
5.732964e+02	-3.307267e+01
5.766077e+02	-3.312417e+01
5.799382e+02	-3.316372e+01
5.832879e+02	-3.322864e+01
5.866569e+02	-3.327311e+01
5.900454e+02	-3.332352e+01
5.934535e+02	-3.337185e+01
5.968813e+02	-3.341530e+01
6.003288e+02	-3.346853e+01
6.037963e+02	-3.351298e+01
6.072838e+02	-3.357630e+01
6.107914e+02	-3.362119e+01
6.143194e+02	-3.367522e+01
6.178676e+02	-3.372501e+01
6.214364e+02	-3.377727e+01
6.250258e+02	-3.382393e+01
6.286359e+02	-3.386776e+01
6.322669e+02	-3.392076e+01
6.359189e+02	-3.396511e+01
6.395919e+02	-3.402844e+01
6.432862e+02	-3.406967e+01
6.470017e+02	-3.412607e+01
6.507388e+02	-3.417681e+01
6.544974e+02	-3.422261e+01
6.582778e+02	-3.426879e+01
6.620800e+02	-3.432264e+01
6.659041e+02	-3.437714e+01
6.697504e+02	-3.443255e+01
6.736188e+02	-3.448233e+01
6.775096e+02	-3.452097e+01
6.814229e+02	-3.457227e+01
6.853587e+02	-3.462948e+01
6.893173e+02	-3.467552e+01
6.932988e+02	-3.472415e+01
6.973033e+02	-3.477635e+01
7.013309e+02	-3.482812e+01
