Frequency(Hz)	Magnitude(dB)
1.000000e+01	-1.698635e-05
1.005776e+01	-1.718314e-05
1.011585e+01	-1.738221e-05
1.017428e+01	-1.758359e-05
1.023305e+01	-1.778730e-05
1.029215e+01	-1.799337e-05
1.035160e+01	-1.820183e-05
1.041139e+01	-1.841270e-05
1.047153e+01	-1.862602e-05
1.053201e+01	-1.884180e-05
1.059284e+01	-1.906009e-05
1.065403e+01	-1.928091e-05
1.071556e+01	-1.950428e-05
1.077746e+01	-1.973024e-05
1.083971e+01	-1.995882e-05
1.090232e+01	-2.019005e-05
1.096529e+01	-2.042396e-05
1.102862e+01	-2.066057e-05
1.109232e+01	-2.089993e-05
1.115639e+01	-2.114206e-05
1.122083e+01	-2.138700e-05
1.128564e+01	-2.163477e-05
1.135083e+01	-2.188542e-05
1.141639e+01	-2.213897e-05
1.148233e+01	-2.239545e-05
1.154865e+01	-2.265491e-05
1.161536e+01	-2.291737e-05
1.168245e+01	-2.318287e-05
1.174992e+01	-2.345145e-05
1.181779e+01	-2.372314e-05
1.188605e+01	-2.399798e-05
1.195470e+01	-2.427601e-05
1.202375e+01	-2.455725e-05
1.209320e+01	-2.484175e-05
1.216305e+01	-2.512955e-05
1.223330e+01	-2.542068e-05
1.230396e+01	-2.571518e-05
1.237503e+01	-2.601310e-05
1.244651e+01	-2.631447e-05
1.251840e+01	-2.661933e-05
1.259070e+01	-2.692772e-05
1.266343e+01	-2.723969e-05
1.273657e+01	-2.755526e-05
1.281014e+01	-2.787450e-05
1.288413e+01	-2.819743e-05
1.295855e+01	-2.852410e-05
1.303339e+01	-2.885456e-05
1.310867e+01	-2.918885e-05
1.318439e+01	-2.952701e-05
1.326054e+01	-2.986909e-05
1.333713e+01	-3.021513e-05
1.341417e+01	-3.056518e-05
1.349165e+01	-3.091928e-05
1.356958e+01	-3.127749e-05
1.364795e+01	-3.163985e-05
1.372678e+01	-3.200640e-05
1.380607e+01	-3.237720e-05
1.388581e+01	-3.275230e-05
1.396602e+01	-3.313174e-05
1.404668e+01	-3.351558e-05
1.412782e+01	-3.390387e-05
1.420942e+01	-3.429665e-05
1.429149e+01	-3.469399e-05
1.437404e+01	-3.509593e-05
1.445706e+01	-3.550252e-05
1.454057e+01	-3.591383e-05
1.462455e+01	-3.632990e-05
1.470902e+01	-3.675079e-05
1.479398e+01	-3.717655e-05
1.487943e+01	-3.760725e-05
1.496537e+01	-3.804294e-05
1.505181e+01	-3.848368e-05
1.513875e+01	-3.892952e-05
1.522619e+01	-3.938053e-05
1.531414e+01	-3.983676e-05
1.540259e+01	-4.029828e-05
1.549156e+01	-4.076514e-05
1.558103e+01	-4.123741e-05
1.567103e+01	-4.171516e-05
1.576155e+01	-4.219844e-05
1.585258e+01	-4.268732e-05
1.594415e+01	-4.318186e-05
1.603624e+01	-4.368213e-05
1.612886e+01	-4.418820e-05
1.622202e+01	-4.470013e-05
1.631572e+01	-4.521799e-05
1.640996e+01	-4.574185e-05
1.650474e+01	-4.627178e-05
1.660008e+01	-4.680785e-05
1.669596e+01	-4.735013e-05
1.679239e+01	-4.789869e-05
1.688938e+01	-4.845360e-05
1.698694e+01	-4.901495e-05
1.708505e+01	-4.958280e-05
1.718373e+01	-5.015722e-05
1.728299e+01	-5.073831e-05
1.738281e+01	-5.132612e-05
1.748322e+01	-5.192074e-05
1.758420e+01	-5.252226e-05
1.768576e+01	-5.313074e-05
1.778792e+01	-5.374627e-05
1.789066e+01	-5.436893e-05
1.799399e+01	-5.499881e-05
1.809793e+01	-5.563598e-05
1.820246e+01	-5.628053e-05
1.830760e+01	-5.693255e-05
1.841334e+01	-5.759213e-05
1.851969e+01	-5.825935e-05
1.862666e+01	-5.893429e-05
1.873425e+01	-5.961706e-05
1.884246e+01	-6.030773e-05
1.895129e+01	-6.100641e-05
1.906075e+01	-6.171318e-05
1.917085e+01	-6.242814e-05
1.928158e+01	-6.315138e-05
1.939295e+01	-6.388300e-05
1.950496e+01	-6.462310e-05
1.961762e+01	-6.537177e-05
1.973093e+01	-6.612912e-05
1.984490e+01	-6.689524e-05
1.995952e+01	-6.767023e-05
2.007480e+01	-6.845420e-05
2.019076e+01	-6.924726e-05
2.030738e+01	-7.004950e-05
2.042467e+01	-7.086104e-05
2.054264e+01	-7.168197e-05
2.066130e+01	-7.251242e-05
2.078064e+01	-7.335249e-05
2.090066e+01	-7.420229e-05
2.102139e+01	-7.506194e-05
2.114280e+01	-7.593155e-05
2.126492e+01	-7.681123e-05
2.138775e+01	-7.770110e-05
2.151128e+01	-7.860128e-05
2.163553e+01	-7.951189e-05
2.176050e+01	-8.043305e-05
2.188619e+01	-8.136488e-05
2.201260e+01	-8.230750e-05
2.213974e+01	-8.326105e-05
2.226762e+01	-8.422564e-05
2.239624e+01	-8.520141e-05
2.252560e+01	-8.618848e-05
2.265571e+01	-8.718699e-05
2.278656e+01	-8.819707e-05
2.291818e+01	-8.921884e-05
2.305055e+01	-9.025246e-05
2.318369e+01	-9.129805e-05
2.331760e+01	-9.235575e-05
2.345228e+01	-9.342571e-05
2.358774e+01	-9.450806e-05
2.372398e+01	-9.560295e-05
2.386101e+01	-9.671052e-05
2.399883e+01	-9.783093e-05
2.413745e+01	-9.896431e-05
2.427686e+01	-1.001108e-04
2.441709e+01	-1.012706e-04
2.455812e+01	-1.024439e-04
2.469997e+01	-1.036307e-04
2.484263e+01	-1.048313e-04
2.498612e+01	-1.060458e-04
2.513044e+01	-1.072743e-04
2.527559e+01	-1.085171e-04
2.542158e+01	-1.097743e-04
2.556842e+01	-1.110460e-04
2.571610e+01	-1.123325e-04
2.586463e+01	-1.136339e-04
2.601403e+01	-1.149504e-04
2.616428e+01	-1.162821e-04
2.631541e+01	-1.176292e-04
2.646740e+01	-1.189920e-04
2.662028e+01	-1.203705e-04
2.677404e+01	-1.217650e-04
2.692868e+01	-1.231757e-04
2.708422e+01	-1.246027e-04
2.724066e+01	-1.260462e-04
2.739800e+01	-1.275065e-04
2.755625e+01	-1.289836e-04
2.771541e+01	-1.304779e-04
2.787550e+01	-1.319895e-04
2.803650e+01	-1.335186e-04
2.819844e+01	-1.350655e-04
2.836131e+01	-1.366302e-04
2.852513e+01	-1.382131e-04
2.868989e+01	-1.398143e-04
2.885560e+01	-1.414341e-04
2.902227e+01	-1.430726e-04
2.918990e+01	-1.447301e-04
2.935850e+01	-1.464068e-04
2.952807e+01	-1.481029e-04
2.969863e+01	-1.498187e-04
2.987016e+01	-1.515544e-04
3.004269e+01	-1.533102e-04
3.021622e+01	-1.550863e-04
3.039075e+01	-1.568830e-04
3.056628e+01	-1.587005e-04
3.074283e+01	-1.605390e-04
3.092040e+01	-1.623989e-04
3.109900e+01	-1.642803e-04
3.127862e+01	-1.661835e-04
3.145929e+01	-1.681087e-04
3.164099e+01	-1.700563e-04
3.182375e+01	-1.720264e-04
3.200756e+01	-1.740193e-04
3.219244e+01	-1.760353e-04
3.237838e+01	-1.780747e-04
3.256540e+01	-1.801377e-04
3.275349e+01	-1.822246e-04
3.294268e+01	-1.843357e-04
3.313295e+01	-1.864712e-04
3.332433e+01	-1.886315e-04
3.351681e+01	-1.908168e-04
3.371040e+01	-1.930274e-04
3.390511e+01	-1.952636e-04
3.410094e+01	-1.975258e-04
3.429791e+01	-1.998141e-04
3.449601e+01	-2.021289e-04
3.469526e+01	-2.044706e-04
3.489566e+01	-2.068394e-04
3.509721e+01	-2.092356e-04
3.529993e+01	-2.116596e-04
3.550382e+01	-2.141117e-04
3.570889e+01	-2.165922e-04
3.591515e+01	-2.191014e-04
3.612259e+01	-2.216397e-04
3.633123e+01	-2.242074e-04
3.654108e+01	-2.268048e-04
3.675214e+01	-2.294323e-04
3.696442e+01	-2.320903e-04
3.717792e+01	-2.347791e-04
3.739266e+01	-2.374990e-04
3.760864e+01	-2.402504e-04
3.782587e+01	-2.430337e-04
3.804435e+01	-2.458492e-04
3.826409e+01	-2.486974e-04
3.848510e+01	-2.515785e-04
3.870739e+01	-2.544930e-04
3.893096e+01	-2.574413e-04
3.915583e+01	-2.604238e-04
3.938199e+01	-2.634408e-04
3.960946e+01	-2.664927e-04
3.983824e+01	-2.695800e-04
4.006834e+01	-2.727030e-04
4.029978e+01	-2.758623e-04
4.053255e+01	-2.790581e-04
4.076666e+01	-2.822910e-04
4.100213e+01	-2.855613e-04
4.123896e+01	-2.888695e-04
4.147715e+01	-2.922160e-04
4.171672e+01	-2.956013e-04
4.195767e+01	-2.990258e-04
4.220002e+01	-3.024900e-04
4.244377e+01	-3.059943e-04
4.268892e+01	-3.095392e-04
4.293549e+01	-3.131252e-04
4.318348e+01	-3.167527e-04
4.343291e+01	-3.204222e-04
4.368377e+01	-3.241343e-04
4.393609e+01	-3.278893e-04
4.418986e+01	-3.316878e-04
4.444510e+01	-3.355304e-04
4.470182e+01	-3.394174e-04
4.496001e+01	-3.433495e-04
4.521970e+01	-3.473272e-04
4.548089e+01	-3.513509e-04
4.574358e+01	-3.554212e-04
4.600779e+01	-3.595387e-04
4.627353e+01	-3.637039e-04
4.654081e+01	-3.679173e-04
4.680963e+01	-3.721796e-04
4.708000e+01	-3.764912e-04
4.735193e+01	-3.808527e-04
4.762543e+01	-3.852648e-04
4.790051e+01	-3.897280e-04
4.817719e+01	-3.942429e-04
4.845545e+01	-3.988101e-04
4.873533e+01	-4.034303e-04
4.901682e+01	-4.081039e-04
4.929994e+01	-4.128317e-04
4.958470e+01	-4.176142e-04
4.987110e+01	-4.224521e-04
5.015915e+01	-4.273461e-04
5.044887e+01	-4.322968e-04
5.074026e+01	-4.373048e-04
5.103333e+01	-4.423709e-04
5.132810e+01	-4.474956e-04
5.162457e+01	-4.526797e-04
5.192275e+01	-4.579238e-04
5.222265e+01	-4.632287e-04
5.252429e+01	-4.685951e-04
5.282767e+01	-4.740236e-04
5.313280e+01	-4.795150e-04
5.343969e+01	-4.850700e-04
5.374836e+01	-4.906893e-04
5.405880e+01	-4.963738e-04
5.437105e+01	-5.021241e-04
5.468509e+01	-5.079410e-04
5.500095e+01	-5.138252e-04
5.531863e+01	-5.197777e-04
5.563815e+01	-5.257991e-04
5.595951e+01	-5.318903e-04
5.628273e+01	-5.380520e-04
5.660782e+01	-5.442851e-04
5.693479e+01	-5.505904e-04
5.726364e+01	-5.569687e-04
5.759439e+01	-5.634209e-04
5.792705e+01	-5.699479e-04
5.826164e+01	-5.765504e-04
5.859815e+01	-5.832295e-04
5.893662e+01	-5.899859e-04
5.927703e+01	-5.968206e-04
5.961941e+01	-6.037344e-04
5.996377e+01	-6.107284e-04
6.031012e+01	-6.178033e-04
6.065847e+01	-6.249602e-04
6.100883e+01	-6.322000e-04
6.136121e+01	-6.395237e-04
6.171563e+01	-6.469322e-04
6.207210e+01	-6.544265e-04
6.243063e+01	-6.620077e-04
6.279122e+01	-6.696766e-04
6.315390e+01	-6.774344e-04
6.351868e+01	-6.852820e-04
6.388556e+01	-6.932206e-04
6.425456e+01	-7.012511e-04
6.462569e+01	-7.093746e-04
6.499897e+01	-7.175922e-04
6.537440e+01	-7.259050e-04
6.575200e+01	-7.343141e-04
6.613178e+01	-7.428206e-04
6.651375e+01	-7.514257e-04
6.689793e+01	-7.601304e-04
6.728433e+01	-7.689359e-04
6.767297e+01	-7.778435e-04
6.806384e+01	-7.868542e-04
6.845698e+01	-7.959693e-04
6.885238e+01	-8.051899e-04
6.925007e+01	-8.145174e-04
6.965005e+01	-8.239529e-04
7.005235e+01	-8.334977e-04
7.045697e+01	-8.431531e-04
7.086393e+01	-8.529203e-04
7.127323e+01	-8.628006e-04
7.168490e+01	-8.727954e-04
7.209895e+01	-8.829059e-04
7.251539e+01	-8.931336e-04
7.293424e+01	-9.034797e-04
7.335551e+01	-9.139457e-04
7.377920e+01	-9.245329e-04
7.420535e+01	-9.352427e-04
7.463396e+01	-9.460765e-04
7.506504e+01	-9.570359e-04
7.549861e+01	-9.681222e-04
7.593469e+01	-9.793369e-04
7.637328e+01	-9.906815e-04
7.681441e+01	-1.002157e-03
7.725809e+01	-1.013766e-03
7.770433e+01	-1.025510e-03
7.815315e+01	-1.037389e-03
7.860456e+01	-1.049406e-03
7.905857e+01	-1.061562e-03
7.951521e+01	-1.073859e-03
7.997449e+01	-1.086299e-03
8.043642e+01	-1.098882e-03
8.090102e+01	-1.111611e-03
8.136830e+01	-1.124488e-03
8.183828e+01	-1.137514e-03
8.231097e+01	-1.150690e-03
8.278640e+01	-1.164020e-03
8.326457e+01	-1.177503e-03
8.374550e+01	-1.191143e-03
8.422921e+01	-1.204941e-03
8.471572e+01	-1.218899e-03
8.520503e+01	-1.233018e-03
8.569717e+01	-1.247301e-03
8.619215e+01	-1.261749e-03
8.669000e+01	-1.276364e-03
8.719071e+01	-1.291149e-03
8.769432e+01	-1.306105e-03
8.820084e+01	-1.321235e-03
8.871029e+01	-1.336539e-03
8.922267e+01	-1.352021e-03
8.973802e+01	-1.367682e-03
9.025634e+01	-1.383524e-03
9.077766e+01	-1.399550e-03
9.130199e+01	-1.415762e-03
9.182935e+01	-1.432161e-03
9.235975e+01	-1.448750e-03
9.289321e+01	-1.465532e-03
9.342976e+01	-1.482507e-03
9.396941e+01	-1.499680e-03
9.451217e+01	-1.517051e-03
9.505807e+01	-1.534623e-03
9.560712e+01	-1.552399e-03
9.615934e+01	-1.570381e-03
9.671476e+01	-1.588571e-03
9.727338e+01	-1.606971e-03
9.783522e+01	-1.625585e-03
9.840032e+01	-1.644414e-03
9.896867e+01	-1.663462e-03
9.954031e+01	-1.682729e-03
1.001153e+02	-1.702221e-03
1.006935e+02	-1.721937e-03
1.012751e+02	-1.741882e-03
1.018601e+02	-1.762058e-03
1.024484e+02	-1.782468e-03
1.030402e+02	-1.803114e-03
1.036353e+02	-1.823999e-03
1.042339e+02	-1.845126e-03
1.048360e+02	-1.866498e-03
1.054415e+02	-1.888117e-03
1.060505e+02	-1.909987e-03
1.066631e+02	-1.932110e-03
1.072791e+02	-1.954489e-03
1.078988e+02	-1.977127e-03
1.085220e+02	-2.000027e-03
1.091488e+02	-2.023192e-03
1.097793e+02	-2.046626e-03
1.104133e+02	-2.070331e-03
1.110511e+02	-2.094311e-03
1.116925e+02	-2.118568e-03
1.123376e+02	-2.143106e-03
1.129865e+02	-2.167928e-03
1.136391e+02	-2.193038e-03
1.142955e+02	-2.218439e-03
1.149556e+02	-2.244133e-03
1.156196e+02	-2.270125e-03
1.162874e+02	-2.296418e-03
1.169591e+02	-2.323016e-03
1.176347e+02	-2.349921e-03
1.183141e+02	-2.377138e-03
1.189975e+02	-2.404670e-03
1.196848e+02	-2.432521e-03
1.203761e+02	-2.460695e-03
1.210714e+02	-2.489194e-03
1.217707e+02	-2.518024e-03
1.224740e+02	-2.547187e-03
1.231814e+02	-2.576688e-03
1.238929e+02	-2.606531e-03
1.246085e+02	-2.636719e-03
1.253283e+02	-2.667257e-03
1.260522e+02	-2.698148e-03
1.267802e+02	-2.729397e-03
1.275125e+02	-2.761008e-03
1.282490e+02	-2.792985e-03
1.289898e+02	-2.825331e-03
1.297348e+02	-2.858053e-03
1.304842e+02	-2.891153e-03
1.312378e+02	-2.924637e-03
1.319959e+02	-2.958508e-03
1.327583e+02	-2.992771e-03
1.335251e+02	-3.027431e-03
1.342963e+02	-3.062492e-03
1.350720e+02	-3.097959e-03
1.358522e+02	-3.133837e-03
1.366368e+02	-3.170130e-03
1.374260e+02	-3.206843e-03
1.382198e+02	-3.243982e-03
1.390182e+02	-3.281550e-03
1.398211e+02	-3.319553e-03
1.406287e+02	-3.357996e-03
1.414410e+02	-3.396884e-03
1.422579e+02	-3.436222e-03
1.430796e+02	-3.476016e-03
1.439060e+02	-3.516270e-03
1.447372e+02	-3.556990e-03
1.455732e+02	-3.598182e-03
1.464141e+02	-3.639850e-03
1.472597e+02	-3.682001e-03
1.481103e+02	-3.724639e-03
1.489658e+02	-3.767771e-03
1.498262e+02	-3.811403e-03
1.506916e+02	-3.855539e-03
1.515620e+02	-3.900187e-03
1.524374e+02	-3.945351e-03
1.533179e+02	-3.991038e-03
1.542034e+02	-4.037253e-03
1.550941e+02	-4.084004e-03
1.559899e+02	-4.131296e-03
1.568909e+02	-4.179135e-03
1.577971e+02	-4.227528e-03
1.587085e+02	-4.276480e-03
1.596252e+02	-4.326000e-03
1.605472e+02	-4.376092e-03
1.614745e+02	-4.426765e-03
1.624072e+02	-4.478023e-03
1.633453e+02	-4.529875e-03
1.642887e+02	-4.582327e-03
1.652377e+02	-4.635386e-03
1.661921e+02	-4.689060e-03
1.671520e+02	-4.743354e-03
1.681175e+02	-4.798276e-03
1.690885e+02	-4.853835e-03
1.700651e+02	-4.910036e-03
1.710474e+02	-4.966887e-03
1.720354e+02	-5.024396e-03
1.730291e+02	-5.082571e-03
1.740285e+02	-5.141419e-03
1.750337e+02	-5.200948e-03
1.760446e+02	-5.261166e-03
1.770615e+02	-5.322080e-03
1.780842e+02	-5.383700e-03
1.791128e+02	-5.446032e-03
1.801473e+02	-5.509086e-03
1.811878e+02	-5.572869e-03
1.822344e+02	-5.637390e-03
1.832870e+02	-5.702658e-03
1.843456e+02	-5.768680e-03
1.854104e+02	-5.835467e-03
1.864813e+02	-5.903026e-03
1.875584e+02	-5.971367e-03
1.886418e+02	-6.040499e-03
1.897313e+02	-6.110430e-03
1.908272e+02	-6.181171e-03
1.919294e+02	-6.252730e-03
1.930380e+02	-6.325116e-03
1.941530e+02	-6.398340e-03
1.952744e+02	-6.472411e-03
1.964023e+02	-6.547339e-03
1.975367e+02	-6.623134e-03
1.986777e+02	-6.699805e-03
1.998252e+02	-6.777363e-03
2.009794e+02	-6.855819e-03
2.021403e+02	-6.935182e-03
2.033078e+02	-7.015463e-03
2.044821e+02	-7.096672e-03
2.056632e+02	-7.178821e-03
2.068511e+02	-7.261919e-03
2.080459e+02	-7.345979e-03
2.092475e+02	-7.431011e-03
2.104561e+02	-7.517027e-03
2.116717e+02	-7.604037e-03
2.128943e+02	-7.692053e-03
2.141240e+02	-7.781088e-03
2.153608e+02	-7.871152e-03
2.166047e+02	-7.962257e-03
2.178558e+02	-8.054416e-03
2.191141e+02	-8.147641e-03
2.203797e+02	-8.241944e-03
2.216526e+02	-8.337337e-03
2.229329e+02	-8.433833e-03
2.242205e+02	-8.531445e-03
2.255156e+02	-8.630185e-03
2.268182e+02	-8.730068e-03
2.281283e+02	-8.831105e-03
2.294459e+02	-8.933310e-03
2.307712e+02	-9.036696e-03
2.321041e+02	-9.141278e-03
2.334447e+02	-9.247069e-03
2.347931e+02	-9.354083e-03
2.361493e+02	-9.462334e-03
2.375133e+02	-9.571837e-03
2.388851e+02	-9.682605e-03
2.402649e+02	-9.794653e-03
2.416527e+02	-9.907997e-03
2.430484e+02	-1.002265e-02
2.444523e+02	-1.013863e-02
2.458642e+02	-1.025595e-02
2.472843e+02	-1.037463e-02
2.487126e+02	-1.049467e-02
2.501492e+02	-1.061611e-02
2.515940e+02	-1.073894e-02
2.530472e+02	-1.086320e-02
2.545088e+02	-1.098890e-02
2.559789e+02	-1.111604e-02
2.574574e+02	-1.124466e-02
2.589444e+02	-1.137476e-02
2.604401e+02	-1.150636e-02
2.619444e+02	-1.163949e-02
2.634574e+02	-1.177415e-02
2.649791e+02	-1.191037e-02
2.665096e+02	-1.204816e-02
2.680489e+02	-1.218755e-02
2.695972e+02	-1.232854e-02
2.711544e+02	-1.247116e-02
2.727205e+02	-1.261543e-02
2.742958e+02	-1.276137e-02
2.758801e+02	-1.290900e-02
2.774736e+02	-1.305832e-02
2.790762e+02	-1.320938e-02
2.806882e+02	-1.336218e-02
2.823094e+02	-1.351674e-02
2.839400e+02	-1.367309e-02
2.855800e+02	-1.383124e-02
2.872295e+02	-1.399122e-02
2.888886e+02	-1.415305e-02
2.905572e+02	-1.431674e-02
2.922354e+02	-1.448233e-02
2.939234e+02	-1.464982e-02
2.956211e+02	-1.481926e-02
2.973286e+02	-1.499064e-02
2.990459e+02	-1.516401e-02
3.007732e+02	-1.533938e-02
3.025104e+02	-1.551677e-02
3.042577e+02	-1.569621e-02
3.060151e+02	-1.587772e-02
3.077826e+02	-1.606133e-02
3.095604e+02	-1.624705e-02
3.113484e+02	-1.643492e-02
3.131467e+02	-1.662496e-02
3.149554e+02	-1.681719e-02
3.167746e+02	-1.701164e-02
3.186043e+02	-1.720833e-02
3.204445e+02	-1.740729e-02
3.222954e+02	-1.760855e-02
3.241570e+02	-1.781213e-02
3.260293e+02	-1.801806e-02
3.279124e+02	-1.822636e-02
3.298064e+02	-1.843707e-02
3.317114e+02	-1.865021e-02
3.336273e+02	-1.886581e-02
3.355544e+02	-1.908389e-02
3.374925e+02	-1.930449e-02
3.394418e+02	-1.952763e-02
3.414024e+02	-1.975335e-02
3.433744e+02	-1.998167e-02
3.453577e+02	-2.021262e-02
3.473525e+02	-2.044623e-02
3.493588e+02	-2.068254e-02
3.513766e+02	-2.092158e-02
3.534062e+02	-2.116337e-02
3.554474e+02	-2.140794e-02
3.575005e+02	-2.165534e-02
3.595654e+02	-2.190559e-02
3.616422e+02	-2.215872e-02
3.637311e+02	-2.241477e-02
3.658320e+02	-2.267377e-02
3.679450e+02	-2.293576e-02
3.700702e+02	-2.320076e-02
3.722077e+02	-2.346882e-02
3.743576e+02	-2.373997e-02
3.765199e+02	-2.401424e-02
3.786946e+02	-2.429167e-02
3.808820e+02	-2.457230e-02
3.830819e+02	-2.485616e-02
3.852946e+02	-2.514328e-02
3.875200e+02	-2.543372e-02
3.897583e+02	-2.572750e-02
3.920096e+02	-2.602467e-02
3.942738e+02	-2.632525e-02
3.965511e+02	-2.662930e-02
3.988416e+02	-2.693685e-02
4.011452e+02	-2.724793e-02
4.034622e+02	-2.756260e-02
4.057926e+02	-2.788090e-02
4.081365e+02	-2.820285e-02
4.104938e+02	-2.852851e-02
4.128648e+02	-2.885792e-02
4.152495e+02	-2.919112e-02
4.176480e+02	-2.952816e-02
4.200603e+02	-2.986907e-02
4.224866e+02	-3.021390e-02
4.249268e+02	-3.056270e-02
4.273812e+02	-3.091552e-02
4.298497e+02	-3.127239e-02
4.323325e+02	-3.163336e-02
4.348297e+02	-3.199849e-02
4.373412e+02	-3.236782e-02
4.398673e+02	-3.274139e-02
4.424079e+02	-3.311926e-02
4.449633e+02	-3.350147e-02
4.475334e+02	-3.388807e-02
4.501183e+02	-3.427912e-02
4.527182e+02	-3.467467e-02
4.553330e+02	-3.507475e-02
4.579630e+02	-3.547944e-02
4.606082e+02	-3.588878e-02
4.632687e+02	-3.630282e-02
4.659445e+02	-3.672161e-02
4.686358e+02	-3.714522e-02
4.713426e+02	-3.757369e-02
4.740650e+02	-3.800708e-02
4.768032e+02	-3.844545e-02
4.795572e+02	-3.888885e-02
4.823271e+02	-3.933734e-02
4.851130e+02	-3.979099e-02
4.879150e+02	-4.024983e-02
4.907332e+02	-4.071395e-02
4.935676e+02	-4.118339e-02
4.964185e+02	-4.165822e-02
4.992858e+02	-4.213849e-02
5.021696e+02	-4.262428e-02
5.050701e+02	-4.311564e-02
5.079874e+02	-4.361263e-02
5.109215e+02	-4.411532e-02
5.138726e+02	-4.462378e-02
5.168407e+02	-4.513807e-02
5.198259e+02	-4.565825e-02
5.228284e+02	-4.618439e-02
5.258482e+02	-4.671657e-02
5.288855e+02	-4.725484e-02
5.319403e+02	-4.779929e-02
5.350128e+02	-4.834997e-02
5.381030e+02	-4.890695e-02
5.412111e+02	-4.947032e-02
5.443371e+02	-5.004014e-02
5.474812e+02	-5.061649e-02
5.506434e+02	-5.119943e-02
5.538239e+02	-5.178905e-02
5.570228e+02	-5.238542e-02
5.602401e+02	-5.298861e-02
5.634760e+02	-5.359870e-02
5.667306e+02	-5.421578e-02
5.700040e+02	-5.483991e-02
5.732964e+02	-5.547118e-02
5.766077e+02	-5.610968e-02
5.799382e+02	-5.675547e-02
5.832879e+02	-5.740865e-02
5.866569e+02	-5.806929e-02
5.900454e+02	-5.873749e-02
5.934535e+02	-5.941332e-02
5.968813e+02	-6.009687e-02
6.003288e+02	-6.078823e-02
6.037963e+02	-6.148749e-02
6.072838e+02	-6.219474e-02
6.107914e+02	-6.291006e-02
6.143194e+02	-6.363355e-02
6.178676e+02	-6.436529e-02
6.214364e+02	-6.510539e-02
6.250258e+02	-6.585393e-02
6.286359e+02	-6.661102e-02
6.322669e+02	-6.737674e-02
6.359189e+02	-6.815119e-02
6.395919e+02	-6.893447e-02
6.432862e+02	-6.972668e-02
6.470017e+02	-7.052793e-02
6.507388e+02	-7.133830e-02
6.544974e+02	-7.215791e-02
6.582778e+02	-7.298685e-02
6.620800e+02	-7.382524e-02
6.659041e+02	-7.467318e-02
6.697504e+02	-7.553077e-02
6.736188e+02	-7.639812e-02
6.775096e+02	-7.727534e-02
6.814229e+02	-7.816254e-02
6.853587e+02	-7.905984e-02
6.893173e+02	-7.996734e-02
6.932988e+02	-8.088516e-02
6.973033e+02	-8.181342e-02
7.013309e+02	-8.275223e-02
