Frequency(Hz)	Magnitude(dB)
1.000000e+01	-2.144523e+00
1.005776e+01	-2.164177e+00
1.011585e+01	-2.184013e+00
1.017428e+01	-2.203754e+00
1.023305e+01	-2.223614e+00
1.029215e+01	-2.243898e+00
1.035160e+01	-2.264090e+00
1.041139e+01	-2.284484e+00
1.047153e+01	-2.305117e+00
1.053201e+01	-2.325624e+00
1.059284e+01	-2.346582e+00
1.065403e+01	-2.367363e+00
1.071556e+01	-2.388432e+00
1.077746e+01	-2.409663e+00
1.083971e+01	-2.431153e+00
1.090232e+01	-2.452514e+00
1.096529e+01	-2.474463e+00
1.102862e+01	-2.496232e+00
1.109232e+01	-2.518060e+00
1.115639e+01	-2.540309e+00
1.122083e+01	-2.562457e+00
1.128564e+01	-2.584581e+00
1.135083e+01	-2.607276e+00
1.141639e+01	-2.629736e+00
1.148233e+01	-2.652822e+00
1.154865e+01	-2.675538e+00
1.161536e+01	-2.698791e+00
1.168245e+01	-2.721905e+00
1.174992e+01	-2.745139e+00
1.181779e+01	-2.768831e+00
1.188605e+01	-2.792561e+00
1.195470e+01	-2.816248e+00
1.202375e+01	-2.840211e+00
1.209320e+01	-2.864214e+00
1.216305e+01	-2.888543e+00
1.223330e+01	-2.912899e+00
1.230396e+01	-2.937341e+00
1.237503e+01	-2.962082e+00
1.244651e+01	-2.986848e+00
1.251840e+01	-3.011811e+00
1.259070e+01	-3.036848e+00
1.266343e+01	-3.062203e+00
1.273657e+01	-3.087559e+00
1.281014e+01	-3.112980e+00
1.288413e+01	-3.138586e+00
1.295855e+01	-3.164401e+00
1.303339e+01	-3.190526e+00
1.310867e+01	-3.216563e+00
1.318439e+01	-3.242979e+00
1.326054e+01	-3.269337e+00
1.333713e+01	-3.295762e+00
1.341417e+01	-3.322203e+00
1.349165e+01	-3.349485e+00
1.356958e+01	-3.376207e+00
1.364795e+01	-3.403266e+00
1.372678e+01	-3.430586e+00
1.380607e+01	-3.457753e+00
1.388581e+01	-3.485722e+00
1.396602e+01	-3.513372e+00
1.404668e+01	-3.540971e+00
1.412782e+01	-3.569209e+00
1.420942e+01	-3.597116e+00
1.429149e+01	-3.625234e+00
1.437404e+01	-3.653754e+00
1.445706e+01	-3.682343e+00
1.454057e+01	-3.710919e+00
1.462455e+01	-3.739540e+00
1.470902e+01	-3.768547e+00
1.479398e+01	-3.797606e+00
1.487943e+01	-3.827183e+00
1.496537e+01	-3.855881e+00
1.505181e+01	-3.885729e+00
1.513875e+01	-3.915399e+00
1.522619e+01	-3.945118e+00
1.531414e+01	-3.975128e+00
1.540259e+01	-4.005548e+00
1.549156e+01	-4.035536e+00
1.558103e+01	-4.065891e+00
1.567103e+01	-4.096192e+00
1.576155e+01	-4.127008e+00
1.585258e+01	-4.157670e+00
1.594415e+01	-4.188629e+00
1.603624e+01	-4.219695e+00
1.612886e+01	-4.250871e+00
1.622202e+01	-4.281897e+00
1.631572e+01	-4.313457e+00
1.640996e+01	-4.344924e+00
1.650474e+01	-4.376484e+00
1.660008e+01	-4.408404e+00
1.669596e+01	-4.440470e+00
1.679239e+01	-4.472510e+00
1.688938e+01	-4.504949e+00
1.698694e+01	-4.537247e+00
1.708505e+01	-4.569826e+00
1.718373e+01	-4.602353e+00
1.728299e+01	-4.634845e+00
1.738281e+01	-4.668081e+00
1.748322e+01	-4.700896e+00
1.758420e+01	-4.734169e+00
1.768576e+01	-4.767268e+00
1.778792e+01	-4.800783e+00
1.789066e+01	-4.834221e+00
1.799399e+01	-4.868033e+00
1.809793e+01	-4.901899e+00
1.820246e+01	-4.935756e+00
1.830760e+01	-4.969744e+00
1.841334e+01	-5.003939e+00
1.851969e+01	-5.038024e+00
1.862666e+01	-5.072428e+00
1.873425e+01	-5.107209e+00
1.884246e+01	-5.141756e+00
1.895129e+01	-5.176361e+00
1.906075e+01	-5.211425e+00
1.917085e+01	-5.246306e+00
1.928158e+01	-5.281565e+00
1.939295e+01	-5.316796e+00
1.950496e+01	-5.352183e+00
1.961762e+01	-5.387328e+00
1.973093e+01	-5.423257e+00
1.984490e+01	-5.459179e+00
1.995952e+01	-5.494726e+00
2.007480e+01	-5.531058e+00
2.019076e+01	-5.566543e+00
2.030738e+01	-5.603121e+00
2.042467e+01	-5.639460e+00
2.054264e+01	-5.676089e+00
2.066130e+01	-5.712547e+00
2.078064e+01	-5.748996e+00
2.090066e+01	-5.785778e+00
2.102139e+01	-5.822571e+00
2.114280e+01	-5.859768e+00
2.126492e+01	-5.896916e+00
2.138775e+01	-5.934031e+00
2.151128e+01	-5.971246e+00
2.163553e+01	-6.008770e+00
2.176050e+01	-6.046064e+00
2.188619e+01	-6.083652e+00
2.201260e+01	-6.121741e+00
2.213974e+01	-6.159415e+00
2.226762e+01	-6.197147e+00
2.239624e+01	-6.235580e+00
2.252560e+01	-6.273577e+00
2.265571e+01	-6.311842e+00
2.278656e+01	-6.350199e+00
2.291818e+01	-6.388763e+00
2.305055e+01	-6.427231e+00
2.318369e+01	-6.465993e+00
2.331760e+01	-6.505158e+00
2.345228e+01	-6.544193e+00
2.358774e+01	-6.582950e+00
2.372398e+01	-6.621600e+00
2.386101e+01	-6.661182e+00
2.399883e+01	-6.700703e+00
2.413745e+01	-6.739944e+00
2.427686e+01	-6.779110e+00
2.441709e+01	-6.818736e+00
2.455812e+01	-6.858701e+00
2.469997e+01	-6.898665e+00
2.484263e+01	-6.938117e+00
2.498612e+01	-6.978103e+00
2.513044e+01	-7.017822e+00
2.527559e+01	-7.058200e+00
2.542158e+01	-7.098788e+00
2.556842e+01	-7.138719e+00
2.571610e+01	-7.179000e+00
2.586463e+01	-7.219806e+00
2.601403e+01	-7.259923e+00
2.616428e+01	-7.300753e+00
2.631541e+01	-7.341640e+00
2.646740e+01	-7.382450e+00
2.662028e+01	-7.423676e+00
2.677404e+01	-7.464072e+00
2.692868e+01	-7.505535e+00
2.708422e+01	-7.546615e+00
2.724066e+01	-7.587788e+00
2.739800e+01	-7.629533e+00
2.755625e+01	-7.670719e+00
2.771541e+01	-7.712180e+00
2.787550e+01	-7.754046e+00
2.803650e+01	-7.795828e+00
2.819844e+01	-7.837115e+00
2.836131e+01	-7.879349e+00
2.852513e+01	-7.921008e+00
2.868989e+01	-7.963022e+00
2.885560e+01	-8.005037e+00
2.902227e+01	-8.047589e+00
2.918990e+01	-8.089138e+00
2.935850e+01	-8.131846e+00
2.952807e+01	-8.174186e+00
2.969863e+01	-8.216706e+00
2.987016e+01	-8.259013e+00
3.004269e+01	-8.301650e+00
3.021622e+01	-8.344134e+00
3.039075e+01	-8.387063e+00
3.056628e+01	-8.430068e+00
3.074283e+01	-8.472892e+00
3.092040e+01	-8.515789e+00
3.109900e+01	-8.558800e+00
3.127862e+01	-8.602162e+00
3.145929e+01	-8.644991e+00
3.164099e+01	-8.688189e+00
3.182375e+01	-8.731216e+00
3.200756e+01	-8.774959e+00
3.219244e+01	-8.817964e+00
3.237838e+01	-8.861453e+00
3.256540e+01	-8.905679e+00
3.275349e+01	-8.949154e+00
3.294268e+01	-8.992945e+00
3.313295e+01	-9.036837e+00
3.332433e+01	-9.080360e+00
3.351681e+01	-9.124219e+00
3.371040e+01	-9.168112e+00
3.390511e+01	-9.212346e+00
3.410094e+01	-9.255903e+00
3.429791e+01	-9.300408e+00
3.449601e+01	-9.344179e+00
3.469526e+01	-9.389001e+00
3.489566e+01	-9.432159e+00
3.509721e+01	-9.477900e+00
3.529993e+01	-9.521826e+00
3.550382e+01	-9.566508e+00
3.570889e+01	-9.610620e+00
3.591515e+01	-9.655421e+00
3.612259e+01	-9.699851e+00
3.633123e+01	-9.744546e+00
3.654108e+01	-9.789447e+00
3.675214e+01	-9.834082e+00
3.696442e+01	-9.878893e+00
3.717792e+01	-9.924068e+00
3.739266e+01	-9.968711e+00
3.760864e+01	-1.001414e+01
3.782587e+01	-1.005949e+01
3.804435e+01	-1.010444e+01
3.826409e+01	-1.014957e+01
3.848510e+01	-1.019442e+01
3.870739e+01	-1.023934e+01
3.893096e+01	-1.028491e+01
3.915583e+01	-1.033045e+01
3.938199e+01	-1.037544e+01
3.960946e+01	-1.042151e+01
3.983824e+01	-1.046676e+01
4.006834e+01	-1.051229e+01
4.029978e+01	-1.055773e+01
4.053255e+01	-1.060304e+01
4.076666e+01	-1.064969e+01
4.100213e+01	-1.069535e+01
4.123896e+01	-1.074106e+01
4.147715e+01	-1.078663e+01
4.171672e+01	-1.083279e+01
4.195767e+01	-1.087839e+01
4.220002e+01	-1.092445e+01
4.244377e+01	-1.097040e+01
4.268892e+01	-1.101635e+01
4.293549e+01	-1.106240e+01
4.318348e+01	-1.110894e+01
4.343291e+01	-1.115483e+01
4.368377e+01	-1.120126e+01
4.393609e+01	-1.124712e+01
4.418986e+01	-1.129333e+01
4.444510e+01	-1.133988e+01
4.470182e+01	-1.138650e+01
4.496001e+01	-1.143245e+01
4.521970e+01	-1.147930e+01
4.548089e+01	-1.152588e+01
4.574358e+01	-1.157250e+01
4.600779e+01	-1.161851e+01
4.627353e+01	-1.166582e+01
4.654081e+01	-1.171204e+01
4.680963e+01	-1.175877e+01
4.708000e+01	-1.180583e+01
4.735193e+01	-1.185207e+01
4.762543e+01	-1.189924e+01
4.790051e+01	-1.194577e+01
4.817719e+01	-1.199202e+01
4.845545e+01	-1.203950e+01
4.873533e+01	-1.208614e+01
4.901682e+01	-1.213302e+01
4.929994e+01	-1.218041e+01
4.958470e+01	-1.222725e+01
4.987110e+01	-1.227431e+01
5.015915e+01	-1.232112e+01
5.044887e+01	-1.236895e+01
5.074026e+01	-1.241557e+01
5.103333e+01	-1.246286e+01
5.132810e+01	-1.250994e+01
5.162457e+01	-1.255697e+01
5.192275e+01	-1.260477e+01
5.222265e+01	-1.265156e+01
5.252429e+01	-1.269942e+01
5.282767e+01	-1.274633e+01
5.313280e+01	-1.279381e+01
5.343969e+01	-1.284131e+01
5.374836e+01	-1.288864e+01
5.405880e+01	-1.293647e+01
5.437105e+01	-1.298383e+01
5.468509e+01	-1.303050e+01
5.500095e+01	-1.307849e+01
5.531863e+01	-1.312593e+01
5.563815e+01	-1.317451e+01
5.595951e+01	-1.322146e+01
5.628273e+01	-1.326907e+01
5.660782e+01	-1.331724e+01
5.693479e+01	-1.336442e+01
5.726364e+01	-1.341230e+01
5.759439e+01	-1.345976e+01
5.792705e+01	-1.350731e+01
5.826164e+01	-1.355578e+01
5.859815e+01	-1.360360e+01
5.893662e+01	-1.365092e+01
5.927703e+01	-1.369948e+01
5.961941e+01	-1.374763e+01
5.996377e+01	-1.379486e+01
6.031012e+01	-1.384324e+01
6.065847e+01	-1.389041e+01
6.100883e+01	-1.393934e+01
6.136121e+01	-1.398707e+01
6.171563e+01	-1.403533e+01
6.207210e+01	-1.408232e+01
6.243063e+01	-1.413101e+01
6.279122e+01	-1.417984e+01
6.315390e+01	-1.422761e+01
6.351868e+01	-1.427570e+01
6.388556e+01	-1.432383e+01
6.425456e+01	-1.437189e+01
6.462569e+01	-1.441900e+01
6.499897e+01	-1.446872e+01
6.537440e+01	-1.451631e+01
6.575200e+01	-1.456527e+01
6.613178e+01	-1.461355e+01
6.651375e+01	-1.466118e+01
6.689793e+01	-1.471038e+01
6.728433e+01	-1.475868e+01
6.767297e+01	-1.480646e+01
6.806384e+01	-1.485514e+01
6.845698e+01	-1.490430e+01
6.885238e+01	-1.495280e+01
6.925007e+01	-1.500095e+01
6.965005e+01	-1.504876e+01
7.005235e+01	-1.509759e+01
7.045697e+01	-1.514558e+01
7.086393e+01	-1.519447e+01
7.127323e+01	-1.524261e+01
7.168490e+01	-1.529091e+01
7.209895e+01	-1.533949e+01
7.251539e+01	-1.538862e+01
7.293424e+01	-1.543669e+01
7.335551e+01	-1.548567e+01
7.377920e+01	-1.553436e+01
7.420535e+01	-1.558238e+01
7.463396e+01	-1.563081e+01
7.506504e+01	-1.567989e+01
7.549861e+01	-1.572882e+01
7.593469e+01	-1.577742e+01
7.637328e+01	-1.582659e+01
7.681441e+01	-1.587440e+01
7.725809e+01	-1.592401e+01
7.770433e+01	-1.597276e+01
7.815315e+01	-1.602057e+01
7.860456e+01	-1.606968e+01
7.905857e+01	-1.611920e+01
7.951521e+01	-1.616783e+01
7.997449e+01	-1.621715e+01
8.043642e+01	-1.626475e+01
8.090102e+01	-1.631432e+01
8.136830e+01	-1.636312e+01
8.183828e+01	-1.641158e+01
8.231097e+01	-1.646211e+01
8.278640e+01	-1.651023e+01
8.326457e+01	-1.655776e+01
8.374550e+01	-1.660802e+01
8.422921e+01	-1.665678e+01
8.471572e+01	-1.670550e+01
8.520503e+01	-1.675533e+01
8.569717e+01	-1.680474e+01
8.619215e+01	-1.685222e+01
8.669000e+01	-1.690206e+01
8.719071e+01	-1.695010e+01
8.769432e+01	-1.699894e+01
8.820084e+01	-1.704917e+01
8.871029e+01	-1.709754e+01
8.922267e+01	-1.714781e+01
8.973802e+01	-1.719467e+01
9.025634e+01	-1.724411e+01
9.077766e+01	-1.729373e+01
9.130199e+01	-1.734377e+01
9.182935e+01	-1.739131e+01
9.235975e+01	-1.744145e+01
9.289321e+01	-1.748982e+01
9.342976e+01	-1.753879e+01
9.396941e+01	-1.758912e+01
9.451217e+01	-1.763858e+01
9.505807e+01	-1.768674e+01
9.560712e+01	-1.773593e+01
9.615934e+01	-1.778506e+01
9.671476e+01	-1.783488e+01
9.727338e+01	-1.788331e+01
9.783522e+01	-1.793291e+01
9.840032e+01	-1.798193e+01
9.896867e+01	-1.802992e+01
9.954031e+01	-1.807953e+01
1.001153e+02	-1.813008e+01
1.006935e+02	-1.818033e+01
1.012751e+02	-1.823127e+01
1.018601e+02	-1.827705e+01
1.024484e+02	-1.832621e+01
1.030402e+02	-1.837590e+01
1.036353e+02	-1.842624e+01
1.042339e+02	-1.847639e+01
1.048360e+02	-1.852500e+01
1.054415e+02	-1.857416e+01
1.060505e+02	-1.862262e+01
1.066631e+02	-1.867292e+01
1.072791e+02	-1.872208e+01
1.078988e+02	-1.877063e+01
1.085220e+02	-1.882115e+01
1.091488e+02	-1.887124e+01
1.097793e+02	-1.891878e+01
1.104133e+02	-1.896932e+01
1.110511e+02	-1.901677e+01
1.116925e+02	-1.906692e+01
1.123376e+02	-1.911643e+01
1.129865e+02	-1.916744e+01
1.136391e+02	-1.921627e+01
1.142955e+02	-1.926588e+01
1.149556e+02	-1.931466e+01
1.156196e+02	-1.936482e+01
1.162874e+02	-1.941439e+01
1.169591e+02	-1.946155e+01
1.176347e+02	-1.951277e+01
1.183141e+02	-1.956200e+01
1.189975e+02	-1.961089e+01
1.196848e+02	-1.965987e+01
1.203761e+02	-1.971108e+01
1.210714e+02	-1.975854e+01
1.217707e+02	-1.980997e+01
1.224740e+02	-1.985846e+01
1.231814e+02	-1.990927e+01
1.238929e+02	-1.995977e+01
1.246085e+02	-2.000926e+01
1.253283e+02	-2.005748e+01
1.260522e+02	-2.010666e+01
1.267802e+02	-2.015537e+01
1.275125e+02	-2.020595e+01
1.282490e+02	-2.025454e+01
1.289898e+02	-2.030589e+01
1.297348e+02	-2.035642e+01
1.304842e+02	-2.040514e+01
1.312378e+02	-2.045292e+01
1.319959e+02	-2.050296e+01
1.327583e+02	-2.055278e+01
1.335251e+02	-2.060401e+01
1.342963e+02	-2.065072e+01
1.350720e+02	-2.070168e+01
1.358522e+02	-2.075128e+01
1.366368e+02	-2.080111e+01
1.374260e+02	-2.085048e+01
1.382198e+02	-2.090081e+01
1.390182e+02	-2.095046e+01
1.398211e+02	-2.099970e+01
1.406287e+02	-2.104736e+01
1.414410e+02	-2.109944e+01
1.422579e+02	-2.114699e+01
1.430796e+02	-2.119864e+01
1.439060e+02	-2.124683e+01
1.447372e+02	-2.129920e+01
1.455732e+02	-2.134520e+01
1.464141e+02	-2.139634e+01
1.472597e+02	-2.144710e+01
1.481103e+02	-2.149842e+01
1.489658e+02	-2.154788e+01
1.498262e+02	-2.159628e+01
1.506916e+02	-2.164515e+01
1.515620e+02	-2.169647e+01
1.524374e+02	-2.174523e+01
1.533179e+02	-2.179194e+01
1.542034e+02	-2.184419e+01
1.550941e+02	-2.189265e+01
1.559899e+02	-2.194388e+01
1.568909e+02	-2.199435e+01
1.577971e+02	-2.204373e+01
1.587085e+02	-2.209093e+01
1.596252e+02	-2.214173e+01
1.605472e+02	-2.219241e+01
1.614745e+02	-2.224156e+01
1.624072e+02	-2.229117e+01
1.633453e+02	-2.234285e+01
1.642887e+02	-2.238935e+01
1.652377e+02	-2.244169e+01
1.661921e+02	-2.248885e+01
1.671520e+02	-2.254142e+01
1.681175e+02	-2.258903e+01
1.690885e+02	-2.263941e+01
1.700651e+02	-2.269019e+01
1.710474e+02	-2.273826e+01
1.720354e+02	-2.278860e+01
1.730291e+02	-2.283867e+01
1.740285e+02	-2.288894e+01
1.750337e+02	-2.293643e+01
1.760446e+02	-2.298662e+01
1.770615e+02	-2.304076e+01
1.780842e+02	-2.308693e+01
1.791128e+02	-2.313598e+01
1.801473e+02	-2.318826e+01
1.811878e+02	-2.323576e+01
1.822344e+02	-2.328680e+01
1.832870e+02	-2.333484e+01
1.843456e+02	-2.338703e+01
1.854104e+02	-2.343734e+01
1.864813e+02	-2.348696e+01
1.875584e+02	-2.353479e+01
1.886418e+02	-2.358750e+01
1.897313e+02	-2.363704e+01
1.908272e+02	-2.368525e+01
1.919294e+02	-2.373495e+01
1.930380e+02	-2.378694e+01
1.941530e+02	-2.383546e+01
1.952744e+02	-2.388197e+01
1.964023e+02	-2.393415e+01
1.975367e+02	-2.398367e+01
1.986777e+02	-2.403285e+01
1.998252e+02	-2.408325e+01
2.009794e+02	-2.413571e+01
2.021403e+02	-2.418581e+01
2.033078e+02	-2.423480e+01
2.044821e+02	-2.428357e+01
2.056632e+02	-2.433424e+01
2.068511e+02	-2.438676e+01
2.080459e+02	-2.443032e+01
2.092475e+02	-2.448355e+01
2.104561e+02	-2.453289e+01
2.116717e+02	-2.458427e+01
2.128943e+02	-2.463412e+01
2.141240e+02	-2.468430e+01
2.153608e+02	-2.473438e+01
2.166047e+02	-2.478302e+01
2.178558e+02	-2.483271e+01
2.191141e+02	-2.488273e+01
2.203797e+02	-2.493390e+01
2.216526e+02	-2.498218e+01
2.229329e+02	-2.503248e+01
2.242205e+02	-2.508399e+01
2.255156e+02	-2.513018e+01
2.268182e+02	-2.518059e+01
2.281283e+02	-2.523237e+01
2.294459e+02	-2.528161e+01
2.307712e+02	-2.533093e+01
2.321041e+02	-2.538122e+01
2.334447e+02	-2.543044e+01
2.347931e+02	-2.548347e+01
2.361493e+02	-2.552928e+01
2.375133e+02	-2.558331e+01
2.388851e+02	-2.562978e+01
2.402649e+02	-2.568167e+01
2.416527e+02	-2.573130e+01
2.430484e+02	-2.578088e+01
2.444523e+02	-2.583073e+01
2.458642e+02	-2.587922e+01
2.472843e+02	-2.593313e+01
2.487126e+02	-2.598011e+01
2.501492e+02	-2.602906e+01
2.515940e+02	-2.608038e+01
2.530472e+02	-2.613219e+01
2.545088e+02	-2.618103e+01
2.559789e+02	-2.623178e+01
2.574574e+02	-2.627795e+01
2.589444e+02	-2.633120e+01
2.604401e+02	-2.637975e+01
2.619444e+02	-2.642806e+01
2.634574e+02	-2.648262e+01
2.649791e+02	-2.652767e+01
2.665096e+02	-2.658001e+01
2.680489e+02	-2.663131e+01
2.695972e+02	-2.667793e+01
2.711544e+02	-2.673057e+01
2.727205e+02	-2.677906e+01
2.742958e+02	-2.683282e+01
2.758801e+02	-2.688096e+01
2.774736e+02	-2.693063e+01
2.790762e+02	-2.698181e+01
2.806882e+02	-2.702786e+01
2.823094e+02	-2.708145e+01
2.839400e+02	-2.712878e+01
2.855800e+02	-2.717939e+01
2.872295e+02	-2.722940e+01
2.888886e+02	-2.728074e+01
2.905572e+02	-2.733017e+01
2.922354e+02	-2.737640e+01
2.939234e+02	-2.742738e+01
2.956211e+02	-2.747609e+01
2.973286e+02	-2.753128e+01
2.990459e+02	-2.758367e+01
3.007732e+02	-2.763310e+01
3.025104e+02	-2.767655e+01
3.042577e+02	-2.772729e+01
3.060151e+02	-2.778002e+01
3.077826e+02	-2.782759e+01
3.095604e+02	-2.788228e+01
3.113484e+02	-2.793036e+01
3.131467e+02	-2.797934e+01
3.149554e+02	-2.802686e+01
3.167746e+02	-2.808059e+01
3.186043e+02	-2.813058e+01
3.204445e+02	-2.818122e+01
3.222954e+02	-2.823045e+01
3.241570e+02	-2.828034e+01
3.260293e+02	-2.833181e+01
3.279124e+02	-2.837707e+01
3.298064e+02	-2.842945e+01
3.317114e+02	-2.847776e+01
3.336273e+02	-2.852535e+01
3.355544e+02	-2.858472e+01
3.374925e+02	-2.863417e+01
3.394418e+02	-2.867758e+01
3.414024e+02	-2.873214e+01
3.433744e+02	-2.877796e+01
3.453577e+02	-2.883391e+01
3.473525e+02	-2.888103e+01
3.493588e+02	-2.893199e+01
3.513766e+02	-2.898435e+01
3.534062e+02	-2.903120e+01
3.554474e+02	-2.908029e+01
3.575005e+02	-2.913139e+01
3.595654e+02	-2.918137e+01
3.616422e+02	-2.923060e+01
3.637311e+02	-2.928257e+01
3.658320e+02	-2.932838e+01
3.679450e+02	-2.938225e+01
3.700702e+02	-2.942888e+01
3.722077e+02	-2.948207e+01
3.743576e+02	-2.952452e+01
3.765199e+02	-2.958371e+01
3.786946e+02	-2.963355e+01
3.808820e+02	-2.968260e+01
3.830819e+02	-2.972937e+01
3.852946e+02	-2.978410e+01
3.875200e+02	-2.982734e+01
3.897583e+02	-2.988150e+01
3.920096e+02	-2.992653e+01
3.942738e+02	-2.998467e+01
3.965511e+02	-3.003229e+01
3.988416e+02	-3.008099e+01
4.011452e+02	-3.013327e+01
4.034622e+02	-3.018024e+01
4.057926e+02	-3.023252e+01
4.081365e+02	-3.028226e+01
4.104938e+02	-3.032934e+01
4.128648e+02	-3.037934e+01
4.152495e+02	-3.043413e+01
4.176480e+02	-3.048377e+01
4.200603e+02	-3.053213e+01
4.224866e+02	-3.058514e+01
4.249268e+02	-3.063481e+01
4.273812e+02	-3.068299e+01
4.298497e+02	-3.073389e+01
4.323325e+02	-3.078833e+01
4.348297e+02	-3.083535e+01
4.373412e+02	-3.088297e+01
4.398673e+02	-3.093476e+01
4.424079e+02	-3.098299e+01
4.449633e+02	-3.102927e+01
4.475334e+02	-3.107955e+01
4.501183e+02	-3.113306e+01
4.527182e+02	-3.117971e+01
4.553330e+02	-3.123890e+01
4.579630e+02	-3.127634e+01
4.606082e+02	-3.133842e+01
4.632687e+02	-3.138675e+01
4.659445e+02	-3.143581e+01
4.686358e+02	-3.148803e+01
4.713426e+02	-3.153917e+01
4.740650e+02	-3.158685e+01
4.768032e+02	-3.163864e+01
4.795572e+02	-3.168132e+01
4.823271e+02	-3.173482e+01
4.851130e+02	-3.178362e+01
4.879150e+02	-3.183337e+01
4.907332e+02	-3.188324e+01
4.935676e+02	-3.193727e+01
4.964185e+02	-3.198366e+01
4.992858e+02	-3.204156e+01
5.021696e+02	-3.209152e+01
5.050701e+02	-3.213906e+01
5.079874e+02	-3.219219e+01
5.109215e+02	-3.224035e+01
5.138726e+02	-3.229091e+01
5.168407e+02	-3.233018e+01
5.198259e+02	-3.239294e+01
5.228284e+02	-3.243489e+01
5.258482e+02	-3.248262e+01
5.288855e+02	-3.253657e+01
5.319403e+02	-3.259083e+01
5.350128e+02	-3.263211e+01
5.381030e+02	-3.269008e+01
5.412111e+02	-3.274607e+01
5.443371e+02	-3.278865e+01
5.474812e+02	-3.284324e+01
5.506434e+02	-3.288162e+01
5.538239e+02	-3.293996e+01
5.570228e+02	-3.299602e+01
5.602401e+02	-3.303870e+01
5.634760e+02	-3.309341e+01
5.667306e+02	-3.313381e+01
5.700040e+02	-3.318891e+01
5.732964e+02	-3.324113e+01
5.766077e+02	-3.329120e+01
5.799382e+02	-3.333981e+01
5.832879e+02	-3.338348e+01
5.866569e+02	-3.344343e+01
5.900454e+02	-3.348865e+01
5.934535e+02	-3.353588e+01
5.968813e+02	-3.358630e+01
6.003288e+02	-3.364254e+01
6.037963e+02	-3.369777e+01
6.072838e+02	-3.373467e+01
6.107914e+02	-3.379607e+01
6.143194e+02	-3.384763e+01
6.178676e+02	-3.389232e+01
6.214364e+02	-3.394781e+01
6.250258e+02	-3.398764e+01
6.286359e+02	-3.404998e+01
6.322669e+02	-3.410497e+01
6.359189e+02	-3.414469e+01
6.395919e+02	-3.420257e+01
6.432862e+02	-3.425573e+01
6.470017e+02	-3.430249e+01
6.507388e+02	-3.434758e+01
6.544974e+02	-3.439872e+01
6.582778e+02	-3.445366e+01
6.620800e+02	-3.449622e+01
6.659041e+02	-3.454736e+01
6.697504e+02	-3.460837e+01
6.736188e+02	-3.464340e+01
6.775096e+02	-3.471002e+01
6.814229e+02	-3.475196e+01
6.853587e+02	-3.479697e+01
6.893173e+02	-3.485288e+01
6.932988e+02	-3.489398e+01
6.973033e+02	-3.495148e+01
7.013309e+02	-3.500016e+01
