Frequency(Hz)	Magnitude(dB)
1.000000e+01	-2.144425e+00
1.005776e+01	-2.163976e+00
1.011585e+01	-2.183486e+00
1.017428e+01	-2.203607e+00
1.023305e+01	-2.223566e+00
1.029215e+01	-2.243540e+00
1.035160e+01	-2.263848e+00
1.041139e+01	-2.284334e+00
1.047153e+01	-2.304877e+00
1.053201e+01	-2.325552e+00
1.059284e+01	-2.346344e+00
1.065403e+01	-2.367144e+00
1.071556e+01	-2.388286e+00
1.077746e+01	-2.409705e+00
1.083971e+01	-2.430809e+00
1.090232e+01	-2.452538e+00
1.096529e+01	-2.474142e+00
1.102862e+01	-2.496086e+00
1.109232e+01	-2.517877e+00
1.115639e+01	-2.540100e+00
1.122083e+01	-2.562218e+00
1.128564e+01	-2.584694e+00
1.135083e+01	-2.607003e+00
1.141639e+01	-2.629806e+00
1.148233e+01	-2.652434e+00
1.154865e+01	-2.675655e+00
1.161536e+01	-2.698567e+00
1.168245e+01	-2.721758e+00
1.174992e+01	-2.745015e+00
1.181779e+01	-2.768639e+00
1.188605e+01	-2.792202e+00
1.195470e+01	-2.816160e+00
1.202375e+01	-2.840100e+00
1.209320e+01	-2.864255e+00
1.216305e+01	-2.888454e+00
1.223330e+01	-2.912711e+00
1.230396e+01	-2.937273e+00
1.237503e+01	-2.961981e+00
1.244651e+01	-2.986770e+00
1.251840e+01	-3.011454e+00
1.259070e+01	-3.037008e+00
1.266343e+01	-3.061750e+00
1.273657e+01	-3.087549e+00
1.281014e+01	-3.112993e+00
1.288413e+01	-3.138326e+00
1.295855e+01	-3.164576e+00
1.303339e+01	-3.190206e+00
1.310867e+01	-3.216489e+00
1.318439e+01	-3.242801e+00
1.326054e+01	-3.269034e+00
1.333713e+01	-3.295416e+00
1.341417e+01	-3.322322e+00
1.349165e+01	-3.349113e+00
1.356958e+01	-3.376185e+00
1.364795e+01	-3.403331e+00
1.372678e+01	-3.430280e+00
1.380607e+01	-3.457777e+00
1.388581e+01	-3.485491e+00
1.396602e+01	-3.512994e+00
1.404668e+01	-3.540572e+00
1.412782e+01	-3.568693e+00
1.420942e+01	-3.596913e+00
1.429149e+01	-3.625277e+00
1.437404e+01	-3.653437e+00
1.445706e+01	-3.681870e+00
1.454057e+01	-3.710735e+00
1.462455e+01	-3.739327e+00
1.470902e+01	-3.768380e+00
1.479398e+01	-3.797650e+00
1.487943e+01	-3.826679e+00
1.496537e+01	-3.856308e+00
1.505181e+01	-3.885689e+00
1.513875e+01	-3.915406e+00
1.522619e+01	-3.945050e+00
1.531414e+01	-3.974985e+00
1.540259e+01	-4.005182e+00
1.549156e+01	-4.035211e+00
1.558103e+01	-4.065814e+00
1.567103e+01	-4.096248e+00
1.576155e+01	-4.126750e+00
1.585258e+01	-4.157614e+00
1.594415e+01	-4.188332e+00
1.603624e+01	-4.219342e+00
1.612886e+01	-4.250566e+00
1.622202e+01	-4.281813e+00
1.631572e+01	-4.313280e+00
1.640996e+01	-4.344821e+00
1.650474e+01	-4.376638e+00
1.660008e+01	-4.408368e+00
1.669596e+01	-4.440154e+00
1.679239e+01	-4.472480e+00
1.688938e+01	-4.504439e+00
1.698694e+01	-4.536901e+00
1.708505e+01	-4.569607e+00
1.718373e+01	-4.602197e+00
1.728299e+01	-4.634819e+00
1.738281e+01	-4.667779e+00
1.748322e+01	-4.700735e+00
1.758420e+01	-4.733898e+00
1.768576e+01	-4.766977e+00
1.778792e+01	-4.800474e+00
1.789066e+01	-4.833817e+00
1.799399e+01	-4.867827e+00
1.809793e+01	-4.901501e+00
1.820246e+01	-4.935622e+00
1.830760e+01	-4.969244e+00
1.841334e+01	-5.003704e+00
1.851969e+01	-5.038132e+00
1.862666e+01	-5.072425e+00
1.873425e+01	-5.106930e+00
1.884246e+01	-5.141496e+00
1.895129e+01	-5.176092e+00
1.906075e+01	-5.211213e+00
1.917085e+01	-5.245922e+00
1.928158e+01	-5.281182e+00
1.939295e+01	-5.316574e+00
1.950496e+01	-5.351841e+00
1.961762e+01	-5.387387e+00
1.973093e+01	-5.422921e+00
1.984490e+01	-5.458712e+00
1.995952e+01	-5.494731e+00
2.007480e+01	-5.530824e+00
2.019076e+01	-5.566575e+00
2.030738e+01	-5.602696e+00
2.042467e+01	-5.639270e+00
2.054264e+01	-5.675561e+00
2.066130e+01	-5.712247e+00
2.078064e+01	-5.748807e+00
2.090066e+01	-5.785796e+00
2.102139e+01	-5.822510e+00
2.114280e+01	-5.859524e+00
2.126492e+01	-5.896498e+00
2.138775e+01	-5.933520e+00
2.151128e+01	-5.971273e+00
2.163553e+01	-6.008685e+00
2.176050e+01	-6.046127e+00
2.188619e+01	-6.083810e+00
2.201260e+01	-6.121712e+00
2.213974e+01	-6.159508e+00
2.226762e+01	-6.197300e+00
2.239624e+01	-6.234957e+00
2.252560e+01	-6.273551e+00
2.265571e+01	-6.311934e+00
2.278656e+01	-6.350385e+00
2.291818e+01	-6.388695e+00
2.305055e+01	-6.427188e+00
2.318369e+01	-6.465987e+00
2.331760e+01	-6.504678e+00
2.345228e+01	-6.543604e+00
2.358774e+01	-6.582325e+00
2.372398e+01	-6.622066e+00
2.386101e+01	-6.660928e+00
2.399883e+01	-6.700282e+00
2.413745e+01	-6.739339e+00
2.427686e+01	-6.778871e+00
2.441709e+01	-6.818449e+00
2.455812e+01	-6.858104e+00
2.469997e+01	-6.897777e+00
2.484263e+01	-6.937826e+00
2.498612e+01	-6.977546e+00
2.513044e+01	-7.018222e+00
2.527559e+01	-7.057821e+00
2.542158e+01	-7.098281e+00
2.556842e+01	-7.138333e+00
2.571610e+01	-7.179046e+00
2.586463e+01	-7.219472e+00
2.601403e+01	-7.259893e+00
2.616428e+01	-7.300865e+00
2.631541e+01	-7.341437e+00
2.646740e+01	-7.382328e+00
2.662028e+01	-7.423047e+00
2.677404e+01	-7.464586e+00
2.692868e+01	-7.505267e+00
2.708422e+01	-7.546778e+00
2.724066e+01	-7.587749e+00
2.739800e+01	-7.628919e+00
2.755625e+01	-7.670338e+00
2.771541e+01	-7.712068e+00
2.787550e+01	-7.753821e+00
2.803650e+01	-7.795387e+00
2.819844e+01	-7.836741e+00
2.836131e+01	-7.878412e+00
2.852513e+01	-7.920520e+00
2.868989e+01	-7.962929e+00
2.885560e+01	-8.004990e+00
2.902227e+01	-8.047089e+00
2.918990e+01	-8.089349e+00
2.935850e+01	-8.131145e+00
2.952807e+01	-8.173905e+00
2.969863e+01	-8.216244e+00
2.987016e+01	-8.259054e+00
3.004269e+01	-8.301469e+00
3.021622e+01	-8.344290e+00
3.039075e+01	-8.386688e+00
3.056628e+01	-8.429548e+00
3.074283e+01	-8.472814e+00
3.092040e+01	-8.515692e+00
3.109900e+01	-8.558327e+00
3.127862e+01	-8.601827e+00
3.145929e+01	-8.644791e+00
3.164099e+01	-8.687958e+00
3.182375e+01	-8.731285e+00
3.200756e+01	-8.774462e+00
3.219244e+01	-8.818578e+00
3.237838e+01	-8.861573e+00
3.256540e+01	-8.905415e+00
3.275349e+01	-8.948669e+00
3.294268e+01	-8.992275e+00
3.313295e+01	-9.036077e+00
3.332433e+01	-9.079776e+00
3.351681e+01	-9.124056e+00
3.371040e+01	-9.168118e+00
3.390511e+01	-9.212087e+00
3.410094e+01	-9.255468e+00
3.429791e+01	-9.299940e+00
3.449601e+01	-9.343722e+00
3.469526e+01	-9.388384e+00
3.489566e+01	-9.432433e+00
3.509721e+01	-9.477145e+00
3.529993e+01	-9.521482e+00
3.550382e+01	-9.565727e+00
3.570889e+01	-9.610784e+00
3.591515e+01	-9.655093e+00
3.612259e+01	-9.699447e+00
3.633123e+01	-9.744277e+00
3.654108e+01	-9.788853e+00
3.675214e+01	-9.833741e+00
3.696442e+01	-9.878537e+00
3.717792e+01	-9.923842e+00
3.739266e+01	-9.968873e+00
3.760864e+01	-1.001357e+01
3.782587e+01	-1.005878e+01
3.804435e+01	-1.010371e+01
3.826409e+01	-1.014862e+01
3.848510e+01	-1.019348e+01
3.870739e+01	-1.023942e+01
3.893096e+01	-1.028465e+01
3.915583e+01	-1.032987e+01
3.938199e+01	-1.037565e+01
3.960946e+01	-1.042098e+01
3.983824e+01	-1.046729e+01
4.006834e+01	-1.051183e+01
4.029978e+01	-1.055729e+01
4.053255e+01	-1.060336e+01
4.076666e+01	-1.064919e+01
4.100213e+01	-1.069504e+01
4.123896e+01	-1.074057e+01
4.147715e+01	-1.078661e+01
4.171672e+01	-1.083240e+01
4.195767e+01	-1.087831e+01
4.220002e+01	-1.092392e+01
4.244377e+01	-1.096951e+01
4.268892e+01	-1.101602e+01
4.293549e+01	-1.106200e+01
4.318348e+01	-1.110853e+01
4.343291e+01	-1.115436e+01
4.368377e+01	-1.120025e+01
4.393609e+01	-1.124706e+01
4.418986e+01	-1.129313e+01
4.444510e+01	-1.133958e+01
4.470182e+01	-1.138566e+01
4.496001e+01	-1.143218e+01
4.521970e+01	-1.147893e+01
4.548089e+01	-1.152549e+01
4.574358e+01	-1.157165e+01
4.600779e+01	-1.161794e+01
4.627353e+01	-1.166505e+01
4.654081e+01	-1.171217e+01
4.680963e+01	-1.175833e+01
4.708000e+01	-1.180486e+01
4.735193e+01	-1.185149e+01
4.762543e+01	-1.189852e+01
4.790051e+01	-1.194545e+01
4.817719e+01	-1.199281e+01
4.845545e+01	-1.203840e+01
4.873533e+01	-1.208633e+01
4.901682e+01	-1.213304e+01
4.929994e+01	-1.217999e+01
4.958470e+01	-1.222658e+01
4.987110e+01	-1.227390e+01
5.015915e+01	-1.232130e+01
5.044887e+01	-1.236840e+01
5.074026e+01	-1.241533e+01
5.103333e+01	-1.246218e+01
5.132810e+01	-1.250956e+01
5.162457e+01	-1.255748e+01
5.192275e+01	-1.260426e+01
5.222265e+01	-1.265106e+01
5.252429e+01	-1.269895e+01
5.282767e+01	-1.274549e+01
5.313280e+01	-1.279399e+01
5.343969e+01	-1.284101e+01
5.374836e+01	-1.288851e+01
5.405880e+01	-1.293603e+01
5.437105e+01	-1.298315e+01
5.468509e+01	-1.303070e+01
5.500095e+01	-1.307803e+01
5.531863e+01	-1.312648e+01
5.563815e+01	-1.317391e+01
5.595951e+01	-1.322101e+01
5.628273e+01	-1.326898e+01
5.660782e+01	-1.331662e+01
5.693479e+01	-1.336368e+01
5.726364e+01	-1.341175e+01
5.759439e+01	-1.346058e+01
5.792705e+01	-1.350714e+01
5.826164e+01	-1.355471e+01
5.859815e+01	-1.360376e+01
5.893662e+01	-1.365063e+01
5.927703e+01	-1.369853e+01
5.961941e+01	-1.374687e+01
5.996377e+01	-1.379518e+01
6.031012e+01	-1.384271e+01
6.065847e+01	-1.388999e+01
6.100883e+01	-1.393879e+01
6.136121e+01	-1.398727e+01
6.171563e+01	-1.403490e+01
6.207210e+01	-1.408294e+01
6.243063e+01	-1.413070e+01
6.279122e+01	-1.417905e+01
6.315390e+01	-1.422788e+01
6.351868e+01	-1.427531e+01
6.388556e+01	-1.432390e+01
6.425456e+01	-1.437194e+01
6.462569e+01	-1.442040e+01
6.499897e+01	-1.446884e+01
6.537440e+01	-1.451664e+01
6.575200e+01	-1.456395e+01
6.613178e+01	-1.461312e+01
6.651375e+01	-1.466050e+01
6.689793e+01	-1.470899e+01
6.728433e+01	-1.475817e+01
6.767297e+01	-1.480687e+01
6.806384e+01	-1.485403e+01
6.845698e+01	-1.490310e+01
6.885238e+01	-1.495104e+01
6.925007e+01	-1.500044e+01
6.965005e+01	-1.504911e+01
7.005235e+01	-1.509755e+01
7.045697e+01	-1.514515e+01
7.086393e+01	-1.519369e+01
7.127323e+01	-1.524244e+01
7.168490e+01	-1.529198e+01
7.209895e+01	-1.533936e+01
7.251539e+01	-1.538796e+01
7.293424e+01	-1.543658e+01
7.335551e+01	-1.548490e+01
7.377920e+01	-1.553386e+01
7.420535e+01	-1.558261e+01
7.463396e+01	-1.563216e+01
7.506504e+01	-1.568083e+01
7.549861e+01	-1.572791e+01
7.593469e+01	-1.577817e+01
7.637328e+01	-1.582596e+01
7.681441e+01	-1.587435e+01
7.725809e+01	-1.592424e+01
7.770433e+01	-1.597194e+01
7.815315e+01	-1.602135e+01
7.860456e+01	-1.607033e+01
7.905857e+01	-1.611802e+01
7.951521e+01	-1.616780e+01
7.997449e+01	-1.621608e+01
8.043642e+01	-1.626456e+01
8.090102e+01	-1.631362e+01
8.136830e+01	-1.636277e+01
8.183828e+01	-1.641156e+01
8.231097e+01	-1.646081e+01
8.278640e+01	-1.650803e+01
8.326457e+01	-1.655966e+01
8.374550e+01	-1.660753e+01
8.422921e+01	-1.665607e+01
8.471572e+01	-1.670528e+01
8.520503e+01	-1.675386e+01
8.569717e+01	-1.680308e+01
8.619215e+01	-1.685341e+01
8.669000e+01	-1.690133e+01
8.719071e+01	-1.695125e+01
8.769432e+01	-1.699955e+01
8.820084e+01	-1.704736e+01
8.871029e+01	-1.709619e+01
8.922267e+01	-1.714624e+01
8.973802e+01	-1.719585e+01
9.025634e+01	-1.724490e+01
9.077766e+01	-1.729462e+01
9.130199e+01	-1.734296e+01
9.182935e+01	-1.739075e+01
9.235975e+01	-1.744184e+01
9.289321e+01	-1.748934e+01
9.342976e+01	-1.753891e+01
9.396941e+01	-1.758902e+01
9.451217e+01	-1.763814e+01
9.505807e+01	-1.768693e+01
9.560712e+01	-1.773530e+01
9.615934e+01	-1.778510e+01
9.671476e+01	-1.783541e+01
9.727338e+01	-1.788383e+01
9.783522e+01	-1.793246e+01
9.840032e+01	-1.798209e+01
9.896867e+01	-1.803125e+01
9.954031e+01	-1.807953e+01
1.001153e+02	-1.813077e+01
1.006935e+02	-1.817766e+01
1.012751e+02	-1.822892e+01
1.018601e+02	-1.827743e+01
1.024484e+02	-1.832719e+01
1.030402e+02	-1.837651e+01
1.036353e+02	-1.842410e+01
1.042339e+02	-1.847404e+01
1.048360e+02	-1.852407e+01
1.054415e+02	-1.857378e+01
1.060505e+02	-1.862422e+01
1.066631e+02	-1.867202e+01
1.072791e+02	-1.872129e+01
1.078988e+02	-1.877150e+01
1.085220e+02	-1.881966e+01
1.091488e+02	-1.886877e+01
1.097793e+02	-1.891920e+01
1.104133e+02	-1.896914e+01
1.110511e+02	-1.901675e+01
1.116925e+02	-1.906820e+01
1.123376e+02	-1.911466e+01
1.129865e+02	-1.916433e+01
1.136391e+02	-1.921518e+01
1.142955e+02	-1.926393e+01
1.149556e+02	-1.931355e+01
1.156196e+02	-1.936347e+01
1.162874e+02	-1.941333e+01
1.169591e+02	-1.946412e+01
1.176347e+02	-1.951242e+01
1.183141e+02	-1.956282e+01
1.189975e+02	-1.960966e+01
1.196848e+02	-1.966069e+01
1.203761e+02	-1.970941e+01
1.210714e+02	-1.975999e+01
1.217707e+02	-1.981078e+01
1.224740e+02	-1.985850e+01
1.231814e+02	-1.990855e+01
1.238929e+02	-1.995790e+01
1.246085e+02	-2.000724e+01
1.253283e+02	-2.005560e+01
1.260522e+02	-2.010647e+01
1.267802e+02	-2.015704e+01
1.275125e+02	-2.020496e+01
1.282490e+02	-2.025515e+01
1.289898e+02	-2.030404e+01
1.297348e+02	-2.035524e+01
1.304842e+02	-2.040359e+01
1.312378e+02	-2.045364e+01
1.319959e+02	-2.050310e+01
1.327583e+02	-2.055006e+01
1.335251e+02	-2.060079e+01
1.342963e+02	-2.065112e+01
1.350720e+02	-2.070197e+01
1.358522e+02	-2.075274e+01
1.366368e+02	-2.079972e+01
1.374260e+02	-2.085161e+01
1.382198e+02	-2.089816e+01
1.390182e+02	-2.094782e+01
1.398211e+02	-2.099910e+01
1.406287e+02	-2.104820e+01
1.414410e+02	-2.109896e+01
1.422579e+02	-2.114804e+01
1.430796e+02	-2.119729e+01
1.439060e+02	-2.124781e+01
1.447372e+02	-2.129738e+01
1.455732e+02	-2.134739e+01
1.464141e+02	-2.139651e+01
1.472597e+02	-2.144526e+01
1.481103e+02	-2.149569e+01
1.489658e+02	-2.154571e+01
1.498262e+02	-2.159697e+01
1.506916e+02	-2.164318e+01
1.515620e+02	-2.169400e+01
1.524374e+02	-2.174500e+01
1.533179e+02	-2.179597e+01
1.542034e+02	-2.184364e+01
1.550941e+02	-2.189231e+01
1.559899e+02	-2.194292e+01
1.568909e+02	-2.199255e+01
1.577971e+02	-2.204023e+01
1.587085e+02	-2.209302e+01
1.596252e+02	-2.214161e+01
1.605472e+02	-2.219134e+01
1.614745e+02	-2.224190e+01
1.624072e+02	-2.229044e+01
1.633453e+02	-2.234165e+01
1.642887e+02	-2.239233e+01
1.652377e+02	-2.244177e+01
1.661921e+02	-2.248942e+01
1.671520e+02	-2.254123e+01
1.681175e+02	-2.259045e+01
1.690885e+02	-2.263989e+01
1.700651e+02	-2.269229e+01
1.710474e+02	-2.273807e+01
1.720354e+02	-2.278701e+01
1.730291e+02	-2.283931e+01
1.740285e+02	-2.288754e+01
1.750337e+02	-2.293759e+01
1.760446e+02	-2.298571e+01
1.770615e+02	-2.303655e+01
1.780842e+02	-2.308727e+01
1.791128e+02	-2.313738e+01
1.801473e+02	-2.318721e+01
1.811878e+02	-2.323720e+01
1.822344e+02	-2.328643e+01
1.832870e+02	-2.333608e+01
1.843456e+02	-2.338592e+01
1.854104e+02	-2.343570e+01
1.864813e+02	-2.348714e+01
1.875584e+02	-2.353693e+01
1.886418e+02	-2.358568e+01
1.897313e+02	-2.363508e+01
1.908272e+02	-2.368564e+01
1.919294e+02	-2.373449e+01
1.930380e+02	-2.378744e+01
1.941530e+02	-2.383566e+01
1.952744e+02	-2.388386e+01
1.964023e+02	-2.393545e+01
1.975367e+02	-2.398428e+01
1.986777e+02	-2.403318e+01
1.998252e+02	-2.408536e+01
2.009794e+02	-2.413301e+01
2.021403e+02	-2.418423e+01
2.033078e+02	-2.423460e+01
2.044821e+02	-2.428669e+01
2.056632e+02	-2.433407e+01
2.068511e+02	-2.438164e+01
2.080459e+02	-2.443442e+01
2.092475e+02	-2.448223e+01
2.104561e+02	-2.453413e+01
2.116717e+02	-2.458378e+01
2.128943e+02	-2.463292e+01
2.141240e+02	-2.468440e+01
2.153608e+02	-2.473421e+01
2.166047e+02	-2.478002e+01
2.178558e+02	-2.483348e+01
2.191141e+02	-2.487942e+01
2.203797e+02	-2.493569e+01
2.216526e+02	-2.498147e+01
2.229329e+02	-2.503303e+01
2.242205e+02	-2.508015e+01
2.255156e+02	-2.513338e+01
2.268182e+02	-2.518338e+01
2.281283e+02	-2.523305e+01
2.294459e+02	-2.528321e+01
2.307712e+02	-2.533209e+01
2.321041e+02	-2.538053e+01
2.334447e+02	-2.543065e+01
2.347931e+02	-2.548019e+01
2.361493e+02	-2.553074e+01
2.375133e+02	-2.558092e+01
2.388851e+02	-2.562984e+01
2.402649e+02	-2.568055e+01
2.416527e+02	-2.572850e+01
2.430484e+02	-2.578000e+01
2.444523e+02	-2.583007e+01
2.458642e+02	-2.588202e+01
2.472843e+02	-2.592864e+01
2.487126e+02	-2.597895e+01
2.501492e+02	-2.602974e+01
2.515940e+02	-2.608062e+01
2.530472e+02	-2.613490e+01
2.545088e+02	-2.618033e+01
2.559789e+02	-2.622925e+01
2.574574e+02	-2.627724e+01
2.589444e+02	-2.632901e+01
2.604401e+02	-2.638259e+01
2.619444e+02	-2.642985e+01
2.634574e+02	-2.648307e+01
2.649791e+02	-2.652930e+01
2.665096e+02	-2.657609e+01
2.680489e+02	-2.663044e+01
2.695972e+02	-2.668328e+01
2.711544e+02	-2.673193e+01
2.727205e+02	-2.678025e+01
2.742958e+02	-2.682789e+01
2.758801e+02	-2.687880e+01
2.774736e+02	-2.693102e+01
2.790762e+02	-2.697984e+01
2.806882e+02	-2.702855e+01
2.823094e+02	-2.707993e+01
2.839400e+02	-2.713369e+01
2.855800e+02	-2.717681e+01
2.872295e+02	-2.722674e+01
2.888886e+02	-2.727942e+01
2.905572e+02	-2.733041e+01
2.922354e+02	-2.737817e+01
2.939234e+02	-2.743101e+01
2.956211e+02	-2.748189e+01
2.973286e+02	-2.752889e+01
2.990459e+02	-2.758208e+01
3.007732e+02	-2.763316e+01
3.025104e+02	-2.768135e+01
3.042577e+02	-2.772885e+01
3.060151e+02	-2.778048e+01
3.077826e+02	-2.783160e+01
3.095604e+02	-2.787740e+01
3.113484e+02	-2.792838e+01
3.131467e+02	-2.798202e+01
3.149554e+02	-2.802499e+01
3.167746e+02	-2.808065e+01
3.186043e+02	-2.813221e+01
3.204445e+02	-2.817759e+01
3.222954e+02	-2.822996e+01
3.241570e+02	-2.827581e+01
3.260293e+02	-2.832992e+01
3.279124e+02	-2.837994e+01
3.298064e+02	-2.843034e+01
3.317114e+02	-2.847975e+01
3.336273e+02	-2.852772e+01
3.355544e+02	-2.857898e+01
3.374925e+02	-2.862692e+01
3.394418e+02	-2.868187e+01
3.414024e+02	-2.872710e+01
3.433744e+02	-2.877905e+01
3.453577e+02	-2.882695e+01
3.473525e+02	-2.887658e+01
3.493588e+02	-2.892832e+01
3.513766e+02	-2.898031e+01
3.534062e+02	-2.902790e+01
3.554474e+02	-2.908132e+01
3.575005e+02	-2.913456e+01
3.595654e+02	-2.918094e+01
3.616422e+02	-2.923051e+01
3.637311e+02	-2.927924e+01
3.658320e+02	-2.932662e+01
3.679450e+02	-2.937974e+01
3.700702e+02	-2.942776e+01
3.722077e+02	-2.948086e+01
3.743576e+02	-2.953529e+01
3.765199e+02	-2.958162e+01
3.786946e+02	-2.963061e+01
3.808820e+02	-2.968708e+01
3.830819e+02	-2.972945e+01
3.852946e+02	-2.978166e+01
3.875200e+02	-2.982816e+01
3.897583e+02	-2.988575e+01
3.920096e+02	-2.992842e+01
3.942738e+02	-2.998212e+01
3.965511e+02	-3.002870e+01
3.988416e+02	-3.008567e+01
4.011452e+02	-3.013441e+01
4.034622e+02	-3.018129e+01
4.057926e+02	-3.023258e+01
4.081365e+02	-3.028208e+01
4.104938e+02	-3.032722e+01
4.128648e+02	-3.038030e+01
4.152495e+02	-3.043053e+01
4.176480e+02	-3.048224e+01
4.200603e+02	-3.052848e+01
4.224866e+02	-3.058168e+01
4.249268e+02	-3.063151e+01
4.273812e+02	-3.067900e+01
4.298497e+02	-3.073494e+01
4.323325e+02	-3.078664e+01
4.348297e+02	-3.083129e+01
4.373412e+02	-3.088020e+01
4.398673e+02	-3.093288e+01
4.424079e+02	-3.098322e+01
4.449633e+02	-3.104052e+01
4.475334e+02	-3.108460e+01
4.501183e+02	-3.113732e+01
4.527182e+02	-3.118945e+01
4.553330e+02	-3.123493e+01
4.579630e+02	-3.128092e+01
4.606082e+02	-3.133730e+01
4.632687e+02	-3.138246e+01
4.659445e+02	-3.143768e+01
4.686358e+02	-3.148461e+01
4.713426e+02	-3.153415e+01
4.740650e+02	-3.158886e+01
4.768032e+02	-3.164193e+01
4.795572e+02	-3.168339e+01
4.823271e+02	-3.172894e+01
4.851130e+02	-3.178436e+01
4.879150e+02	-3.183236e+01
4.907332e+02	-3.188886e+01
4.935676e+02	-3.193876e+01
4.964185e+02	-3.198677e+01
4.992858e+02	-3.203942e+01
5.021696e+02	-3.208625e+01
5.050701e+02	-3.214051e+01
5.079874e+02	-3.218761e+01
5.109215e+02	-3.224172e+01
5.138726e+02	-3.228390e+01
5.168407e+02	-3.233420e+01
5.198259e+02	-3.238842e+01
5.228284e+02	-3.243627e+01
5.258482e+02	-3.248971e+01
5.288855e+02	-3.253744e+01
5.319403e+02	-3.259140e+01
5.350128e+02	-3.263699e+01
5.381030e+02	-3.269127e+01
5.412111e+02	-3.273979e+01
5.443371e+02	-3.279126e+01
5.474812e+02	-3.283857e+01
5.506434e+02	-3.288658e+01
5.538239e+02	-3.294002e+01
5.570228e+02	-3.298816e+01
5.602401e+02	-3.304228e+01
5.634760e+02	-3.309316e+01
5.667306e+02	-3.314302e+01
5.700040e+02	-3.318876e+01
5.732964e+02	-3.324239e+01
5.766077e+02	-3.329486e+01
5.799382e+02	-3.335009e+01
5.832879e+02	-3.339539e+01
5.866569e+02	-3.345039e+01
5.900454e+02	-3.349260e+01
5.934535e+02	-3.355058e+01
5.968813e+02	-3.359487e+01
6.003288e+02	-3.364259e+01
6.037963e+02	-3.369967e+01
6.072838e+02	-3.374597e+01
6.107914e+02	-3.379775e+01
6.143194e+02	-3.384312e+01
6.178676e+02	-3.389151e+01
6.214364e+02	-3.394578e+01
6.250258e+02	-3.399242e+01
6.286359e+02	-3.405179e+01
6.322669e+02	-3.409512e+01
6.359189e+02	-3.414568e+01
6.395919e+02	-3.419827e+01
6.432862e+02	-3.424411e+01
6.470017e+02	-3.429586e+01
6.507388e+02	-3.434211e+01
6.544974e+02	-3.439864e+01
6.582778e+02	-3.445209e+01
6.620800e+02	-3.450004e+01
6.659041e+02	-3.455786e+01
6.697504e+02	-3.459758e+01
6.736188e+02	-3.464858e+01
6.775096e+02	-3.469687e+01
6.814229e+02	-3.474306e+01
6.853587e+02	-3.480069e+01
6.893173e+02	-3.484714e+01
6.932988e+02	-3.490260e+01
6.973033e+02	-3.495620e+01
7.013309e+02	-3.499982e+01
