Frequency(Hz)	Magnitude(dB)
1.000000e+01	-1.647274e-05
1.005776e+01	-1.666358e-05
1.011585e+01	-1.685664e-05
1.017428e+01	-1.705192e-05
1.023305e+01	-1.724948e-05
1.029215e+01	-1.744932e-05
1.035160e+01	-1.765147e-05
1.041139e+01	-1.785597e-05
1.047153e+01	-1.806283e-05
1.053201e+01	-1.827210e-05
1.059284e+01	-1.848378e-05
1.065403e+01	-1.869792e-05
1.071556e+01	-1.891454e-05
1.077746e+01	-1.913367e-05
1.083971e+01	-1.935534e-05
1.090232e+01	-1.957958e-05
1.096529e+01	-1.980641e-05
1.102862e+01	-2.003587e-05
1.109232e+01	-2.026799e-05
1.115639e+01	-2.050280e-05
1.122083e+01	-2.074033e-05
1.128564e+01	-2.098062e-05
1.135083e+01	-2.122368e-05
1.141639e+01	-2.146956e-05
1.148233e+01	-2.171829e-05
1.154865e+01	-2.196991e-05
1.161536e+01	-2.222443e-05
1.168245e+01	-2.248191e-05
1.174992e+01	-2.274237e-05
1.181779e+01	-2.300584e-05
1.188605e+01	-2.327237e-05
1.195470e+01	-2.354199e-05
1.202375e+01	-2.381473e-05
1.209320e+01	-2.409063e-05
1.216305e+01	-2.436972e-05
1.223330e+01	-2.465205e-05
1.230396e+01	-2.493765e-05
1.237503e+01	-2.522656e-05
1.244651e+01	-2.551882e-05
1.251840e+01	-2.581446e-05
1.259070e+01	-2.611352e-05
1.266343e+01	-2.641606e-05
1.273657e+01	-2.672209e-05
1.281014e+01	-2.703168e-05
1.288413e+01	-2.734484e-05
1.295855e+01	-2.766164e-05
1.303339e+01	-2.798211e-05
1.310867e+01	-2.830629e-05
1.318439e+01	-2.863422e-05
1.326054e+01	-2.896596e-05
1.333713e+01	-2.930153e-05
1.341417e+01	-2.964100e-05
1.349165e+01	-2.998440e-05
1.356958e+01	-3.033177e-05
1.364795e+01	-3.068317e-05
1.372678e+01	-3.103865e-05
1.380607e+01	-3.139824e-05
1.388581e+01	-3.176199e-05
1.396602e+01	-3.212996e-05
1.404668e+01	-3.250220e-05
1.412782e+01	-3.287874e-05
1.420942e+01	-3.325965e-05
1.429149e+01	-3.364497e-05
1.437404e+01	-3.403476e-05
1.445706e+01	-3.442906e-05
1.454057e+01	-3.482792e-05
1.462455e+01	-3.523141e-05
1.470902e+01	-3.563958e-05
1.479398e+01	-3.605247e-05
1.487943e+01	-3.647015e-05
1.496537e+01	-3.689266e-05
1.505181e+01	-3.732007e-05
1.513875e+01	-3.775243e-05
1.522619e+01	-3.818980e-05
1.531414e+01	-3.863224e-05
1.540259e+01	-3.907981e-05
1.549156e+01	-3.953255e-05
1.558103e+01	-3.999055e-05
1.567103e+01	-4.045385e-05
1.576155e+01	-4.092251e-05
1.585258e+01	-4.139661e-05
1.594415e+01	-4.187620e-05
1.603624e+01	-4.236134e-05
1.612886e+01	-4.285211e-05
1.622202e+01	-4.334856e-05
1.631572e+01	-4.385076e-05
1.640996e+01	-4.435879e-05
1.650474e+01	-4.487269e-05
1.660008e+01	-4.539255e-05
1.669596e+01	-4.591843e-05
1.679239e+01	-4.645041e-05
1.688938e+01	-4.698855e-05
1.698694e+01	-4.753292e-05
1.708505e+01	-4.808360e-05
1.718373e+01	-4.864066e-05
1.728299e+01	-4.920417e-05
1.738281e+01	-4.977421e-05
1.748322e+01	-5.035086e-05
1.758420e+01	-5.093418e-05
1.768576e+01	-5.152426e-05
1.778792e+01	-5.212118e-05
1.789066e+01	-5.272502e-05
1.799399e+01	-5.333585e-05
1.809793e+01	-5.395376e-05
1.820246e+01	-5.457882e-05
1.830760e+01	-5.521113e-05
1.841334e+01	-5.585076e-05
1.851969e+01	-5.649780e-05
1.862666e+01	-5.715234e-05
1.873425e+01	-5.781446e-05
1.884246e+01	-5.848426e-05
1.895129e+01	-5.916181e-05
1.906075e+01	-5.984721e-05
1.917085e+01	-6.054055e-05
1.928158e+01	-6.124192e-05
1.939295e+01	-6.195142e-05
1.950496e+01	-6.266914e-05
1.961762e+01	-6.339518e-05
1.973093e+01	-6.412962e-05
1.984490e+01	-6.487258e-05
1.995952e+01	-6.562414e-05
2.007480e+01	-6.638441e-05
2.019076e+01	-6.715348e-05
2.030738e+01	-6.793147e-05
2.042467e+01	-6.871847e-05
2.054264e+01	-6.951458e-05
2.066130e+01	-7.031992e-05
2.078064e+01	-7.113459e-05
2.090066e+01	-7.195870e-05
2.102139e+01	-7.279235e-05
2.114280e+01	-7.363567e-05
2.126492e+01	-7.448875e-05
2.138775e+01	-7.535172e-05
2.151128e+01	-7.622468e-05
2.163553e+01	-7.710775e-05
2.176050e+01	-7.800106e-05
2.188619e+01	-7.890472e-05
2.201260e+01	-7.981884e-05
2.213974e+01	-8.074356e-05
2.226762e+01	-8.167899e-05
2.239624e+01	-8.262525e-05
2.252560e+01	-8.358248e-05
2.265571e+01	-8.455079e-05
2.278656e+01	-8.553033e-05
2.291818e+01	-8.652121e-05
2.305055e+01	-8.752357e-05
2.318369e+01	-8.853755e-05
2.331760e+01	-8.956327e-05
2.345228e+01	-9.060088e-05
2.358774e+01	-9.165050e-05
2.372398e+01	-9.271229e-05
2.386101e+01	-9.378637e-05
2.399883e+01	-9.487290e-05
2.413745e+01	-9.597202e-05
2.427686e+01	-9.708387e-05
2.441709e+01	-9.820860e-05
2.455812e+01	-9.934636e-05
2.469997e+01	-1.004973e-04
2.484263e+01	-1.016616e-04
2.498612e+01	-1.028393e-04
2.513044e+01	-1.040308e-04
2.527559e+01	-1.052360e-04
2.542158e+01	-1.064551e-04
2.556842e+01	-1.076884e-04
2.571610e+01	-1.089360e-04
2.586463e+01	-1.101981e-04
2.601403e+01	-1.114747e-04
2.616428e+01	-1.127662e-04
2.631541e+01	-1.140726e-04
2.646740e+01	-1.153941e-04
2.662028e+01	-1.167310e-04
2.677404e+01	-1.180833e-04
2.692868e+01	-1.194513e-04
2.708422e+01	-1.208352e-04
2.724066e+01	-1.222351e-04
2.739800e+01	-1.236512e-04
2.755625e+01	-1.250837e-04
2.771541e+01	-1.265328e-04
2.787550e+01	-1.279987e-04
2.803650e+01	-1.294816e-04
2.819844e+01	-1.309816e-04
2.836131e+01	-1.324991e-04
2.852513e+01	-1.340341e-04
2.868989e+01	-1.355869e-04
2.885560e+01	-1.371577e-04
2.902227e+01	-1.387467e-04
2.918990e+01	-1.403540e-04
2.935850e+01	-1.419801e-04
2.952807e+01	-1.436249e-04
2.969863e+01	-1.452888e-04
2.987016e+01	-1.469720e-04
3.004269e+01	-1.486747e-04
3.021622e+01	-1.503971e-04
3.039075e+01	-1.521395e-04
3.056628e+01	-1.539020e-04
3.074283e+01	-1.556850e-04
3.092040e+01	-1.574886e-04
3.109900e+01	-1.593131e-04
3.127862e+01	-1.611588e-04
3.145929e+01	-1.630258e-04
3.164099e+01	-1.649145e-04
3.182375e+01	-1.668250e-04
3.200756e+01	-1.687577e-04
3.219244e+01	-1.707127e-04
3.237838e+01	-1.726905e-04
3.256540e+01	-1.746911e-04
3.275349e+01	-1.767149e-04
3.294268e+01	-1.787621e-04
3.313295e+01	-1.808331e-04
3.332433e+01	-1.829281e-04
3.351681e+01	-1.850473e-04
3.371040e+01	-1.871911e-04
3.390511e+01	-1.893597e-04
3.410094e+01	-1.915534e-04
3.429791e+01	-1.937726e-04
3.449601e+01	-1.960174e-04
3.469526e+01	-1.982883e-04
3.489566e+01	-2.005855e-04
3.509721e+01	-2.029092e-04
3.529993e+01	-2.052600e-04
3.550382e+01	-2.076379e-04
3.570889e+01	-2.100434e-04
3.591515e+01	-2.124767e-04
3.612259e+01	-2.149383e-04
3.633123e+01	-2.174283e-04
3.654108e+01	-2.199472e-04
3.675214e+01	-2.224953e-04
3.696442e+01	-2.250729e-04
3.717792e+01	-2.276804e-04
3.739266e+01	-2.303180e-04
3.760864e+01	-2.329863e-04
3.782587e+01	-2.356854e-04
3.804435e+01	-2.384158e-04
3.826409e+01	-2.411779e-04
3.848510e+01	-2.439719e-04
3.870739e+01	-2.467983e-04
3.893096e+01	-2.496574e-04
3.915583e+01	-2.525497e-04
3.938199e+01	-2.554755e-04
3.960946e+01	-2.584351e-04
3.983824e+01	-2.614291e-04
4.006834e+01	-2.644577e-04
4.029978e+01	-2.675215e-04
4.053255e+01	-2.706207e-04
4.076666e+01	-2.737558e-04
4.100213e+01	-2.769272e-04
4.123896e+01	-2.801354e-04
4.147715e+01	-2.833807e-04
4.171672e+01	-2.866637e-04
4.195767e+01	-2.899846e-04
4.220002e+01	-2.933441e-04
4.244377e+01	-2.967424e-04
4.268892e+01	-3.001802e-04
4.293549e+01	-3.036577e-04
4.318348e+01	-3.071755e-04
4.343291e+01	-3.107341e-04
4.368377e+01	-3.143339e-04
4.393609e+01	-3.179755e-04
4.418986e+01	-3.216592e-04
4.444510e+01	-3.253855e-04
4.470182e+01	-3.291551e-04
4.496001e+01	-3.329683e-04
4.521970e+01	-3.368257e-04
4.548089e+01	-3.407277e-04
4.574358e+01	-3.446750e-04
4.600779e+01	-3.486680e-04
4.627353e+01	-3.527072e-04
4.654081e+01	-3.567933e-04
4.680963e+01	-3.609267e-04
4.708000e+01	-3.651079e-04
4.735193e+01	-3.693376e-04
4.762543e+01	-3.736163e-04
4.790051e+01	-3.779446e-04
4.817719e+01	-3.823230e-04
4.845545e+01	-3.867521e-04
4.873533e+01	-3.912325e-04
4.901682e+01	-3.957648e-04
4.929994e+01	-4.003497e-04
4.958470e+01	-4.049876e-04
4.987110e+01	-4.096793e-04
5.015915e+01	-4.144253e-04
5.044887e+01	-4.192263e-04
5.074026e+01	-4.240829e-04
5.103333e+01	-4.289958e-04
5.132810e+01	-4.339656e-04
5.162457e+01	-4.389930e-04
5.192275e+01	-4.440785e-04
5.222265e+01	-4.492231e-04
5.252429e+01	-4.544272e-04
5.282767e+01	-4.596915e-04
5.313280e+01	-4.650169e-04
5.343969e+01	-4.704040e-04
5.374836e+01	-4.758534e-04
5.405880e+01	-4.813660e-04
5.437105e+01	-4.869425e-04
5.468509e+01	-4.925835e-04
5.500095e+01	-4.982899e-04
5.531863e+01	-5.040624e-04
5.563815e+01	-5.099017e-04
5.595951e+01	-5.158087e-04
5.628273e+01	-5.217842e-04
5.660782e+01	-5.278288e-04
5.693479e+01	-5.339435e-04
5.726364e+01	-5.401290e-04
5.759439e+01	-5.463861e-04
5.792705e+01	-5.527158e-04
5.826164e+01	-5.591187e-04
5.859815e+01	-5.655958e-04
5.893662e+01	-5.721480e-04
5.927703e+01	-5.787760e-04
5.961941e+01	-5.854809e-04
5.996377e+01	-5.922634e-04
6.031012e+01	-5.991244e-04
6.065847e+01	-6.060650e-04
6.100883e+01	-6.130859e-04
6.136121e+01	-6.201882e-04
6.171563e+01	-6.273727e-04
6.207210e+01	-6.346405e-04
6.243063e+01	-6.419924e-04
6.279122e+01	-6.494295e-04
6.315390e+01	-6.569527e-04
6.351868e+01	-6.645631e-04
6.388556e+01	-6.722617e-04
6.425456e+01	-6.800494e-04
6.462569e+01	-6.879274e-04
6.499897e+01	-6.958965e-04
6.537440e+01	-7.039580e-04
6.575200e+01	-7.121129e-04
6.613178e+01	-7.203623e-04
6.651375e+01	-7.287072e-04
6.689793e+01	-7.371487e-04
6.728433e+01	-7.456881e-04
6.767297e+01	-7.543263e-04
6.806384e+01	-7.630646e-04
6.845698e+01	-7.719041e-04
6.885238e+01	-7.808461e-04
6.925007e+01	-7.898916e-04
6.965005e+01	-7.990418e-04
7.005235e+01	-8.082981e-04
7.045697e+01	-8.176616e-04
7.086393e+01	-8.271335e-04
7.127323e+01	-8.367151e-04
7.168490e+01	-8.464078e-04
7.209895e+01	-8.562127e-04
7.251539e+01	-8.661311e-04
7.293424e+01	-8.761645e-04
7.335551e+01	-8.863140e-04
7.377920e+01	-8.965812e-04
7.420535e+01	-9.069672e-04
7.463396e+01	-9.174736e-04
7.506504e+01	-9.281016e-04
7.549861e+01	-9.388528e-04
7.593469e+01	-9.497285e-04
7.637328e+01	-9.607301e-04
7.681441e+01	-9.718592e-04
7.725809e+01	-9.831172e-04
7.770433e+01	-9.945055e-04
7.815315e+01	-1.006026e-03
7.860456e+01	-1.017680e-03
7.905857e+01	-1.029468e-03
7.951521e+01	-1.041393e-03
7.997449e+01	-1.053457e-03
8.043642e+01	-1.065660e-03
8.090102e+01	-1.078004e-03
8.136830e+01	-1.090492e-03
8.183828e+01	-1.103124e-03
8.231097e+01	-1.115902e-03
8.278640e+01	-1.128828e-03
8.326457e+01	-1.141905e-03
8.374550e+01	-1.155132e-03
8.422921e+01	-1.168513e-03
8.471572e+01	-1.182048e-03
8.520503e+01	-1.195741e-03
8.569717e+01	-1.209592e-03
8.619215e+01	-1.223603e-03
8.669000e+01	-1.237777e-03
8.719071e+01	-1.252115e-03
8.769432e+01	-1.266619e-03
8.820084e+01	-1.281291e-03
8.871029e+01	-1.296133e-03
8.922267e+01	-1.311147e-03
8.973802e+01	-1.326334e-03
9.025634e+01	-1.341698e-03
9.077766e+01	-1.357240e-03
9.130199e+01	-1.372961e-03
9.182935e+01	-1.388865e-03
9.235975e+01	-1.404952e-03
9.289321e+01	-1.421226e-03
9.342976e+01	-1.437689e-03
9.396941e+01	-1.454342e-03
9.451217e+01	-1.471188e-03
9.505807e+01	-1.488230e-03
9.560712e+01	-1.505468e-03
9.615934e+01	-1.522906e-03
9.671476e+01	-1.540546e-03
9.727338e+01	-1.558391e-03
9.783522e+01	-1.576442e-03
9.840032e+01	-1.594702e-03
9.896867e+01	-1.613174e-03
9.954031e+01	-1.631859e-03
1.001153e+02	-1.650761e-03
1.006935e+02	-1.669882e-03
1.012751e+02	-1.689224e-03
1.018601e+02	-1.708791e-03
1.024484e+02	-1.728583e-03
1.030402e+02	-1.748606e-03
1.036353e+02	-1.768859e-03
1.042339e+02	-1.789348e-03
1.048360e+02	-1.810074e-03
1.054415e+02	-1.831039e-03
1.060505e+02	-1.852248e-03
1.066631e+02	-1.873702e-03
1.072791e+02	-1.895405e-03
1.078988e+02	-1.917359e-03
1.085220e+02	-1.939567e-03
1.091488e+02	-1.962032e-03
1.097793e+02	-1.984758e-03
1.104133e+02	-2.007746e-03
1.110511e+02	-2.031001e-03
1.116925e+02	-2.054525e-03
1.123376e+02	-2.078322e-03
1.129865e+02	-2.102394e-03
1.136391e+02	-2.126745e-03
1.142955e+02	-2.151377e-03
1.149556e+02	-2.176296e-03
1.156196e+02	-2.201502e-03
1.162874e+02	-2.227001e-03
1.169591e+02	-2.252794e-03
1.176347e+02	-2.278887e-03
1.183141e+02	-2.305281e-03
1.189975e+02	-2.331981e-03
1.196848e+02	-2.358990e-03
1.203761e+02	-2.386312e-03
1.210714e+02	-2.413951e-03
1.217707e+02	-2.441909e-03
1.224740e+02	-2.470191e-03
1.231814e+02	-2.498801e-03
1.238929e+02	-2.527742e-03
1.246085e+02	-2.557018e-03
1.253283e+02	-2.586633e-03
1.260522e+02	-2.616590e-03
1.267802e+02	-2.646895e-03
1.275125e+02	-2.677551e-03
1.282490e+02	-2.708561e-03
1.289898e+02	-2.739931e-03
1.297348e+02	-2.771663e-03
1.304842e+02	-2.803763e-03
1.312378e+02	-2.836235e-03
1.319959e+02	-2.869083e-03
1.327583e+02	-2.902311e-03
1.335251e+02	-2.935923e-03
1.342963e+02	-2.969925e-03
1.350720e+02	-3.004321e-03
1.358522e+02	-3.039114e-03
1.366368e+02	-3.074311e-03
1.374260e+02	-3.109915e-03
1.382198e+02	-3.145931e-03
1.390182e+02	-3.182364e-03
1.398211e+02	-3.219219e-03
1.406287e+02	-3.256500e-03
1.414410e+02	-3.294213e-03
1.422579e+02	-3.332363e-03
1.430796e+02	-3.370954e-03
1.439060e+02	-3.409992e-03
1.447372e+02	-3.449482e-03
1.455732e+02	-3.489429e-03
1.464141e+02	-3.529839e-03
1.472597e+02	-3.570716e-03
1.481103e+02	-3.612066e-03
1.489658e+02	-3.653895e-03
1.498262e+02	-3.696209e-03
1.506916e+02	-3.739012e-03
1.515620e+02	-3.782310e-03
1.524374e+02	-3.826110e-03
1.533179e+02	-3.870417e-03
1.542034e+02	-3.915236e-03
1.550941e+02	-3.960575e-03
1.559899e+02	-4.006438e-03
1.568909e+02	-4.052832e-03
1.577971e+02	-4.099763e-03
1.587085e+02	-4.147237e-03
1.596252e+02	-4.195260e-03
1.605472e+02	-4.243840e-03
1.614745e+02	-4.292981e-03
1.624072e+02	-4.342692e-03
1.633453e+02	-4.392977e-03
1.642887e+02	-4.443845e-03
1.652377e+02	-4.495302e-03
1.661921e+02	-4.547353e-03
1.671520e+02	-4.600008e-03
1.681175e+02	-4.653271e-03
1.690885e+02	-4.707152e-03
1.700651e+02	-4.761655e-03
1.710474e+02	-4.816789e-03
1.720354e+02	-4.872562e-03
1.730291e+02	-4.928980e-03
1.740285e+02	-4.986050e-03
1.750337e+02	-5.043781e-03
1.760446e+02	-5.102181e-03
1.770615e+02	-5.161255e-03
1.780842e+02	-5.221014e-03
1.791128e+02	-5.281464e-03
1.801473e+02	-5.342613e-03
1.811878e+02	-5.404470e-03
1.822344e+02	-5.467043e-03
1.832870e+02	-5.530340e-03
1.843456e+02	-5.594369e-03
1.854104e+02	-5.659138e-03
1.864813e+02	-5.724658e-03
1.875584e+02	-5.790935e-03
1.886418e+02	-5.857979e-03
1.897313e+02	-5.925799e-03
1.908272e+02	-5.994403e-03
1.919294e+02	-6.063802e-03
1.930380e+02	-6.134002e-03
1.941530e+02	-6.205016e-03
1.952744e+02	-6.276850e-03
1.964023e+02	-6.349516e-03
1.975367e+02	-6.423022e-03
1.986777e+02	-6.497379e-03
1.998252e+02	-6.572595e-03
2.009794e+02	-6.648682e-03
2.021403e+02	-6.725649e-03
2.033078e+02	-6.803506e-03
2.044821e+02	-6.882264e-03
2.056632e+02	-6.961933e-03
2.068511e+02	-7.042523e-03
2.080459e+02	-7.124045e-03
2.092475e+02	-7.206511e-03
2.104561e+02	-7.289930e-03
2.116717e+02	-7.374313e-03
2.128943e+02	-7.459673e-03
2.141240e+02	-7.546020e-03
2.153608e+02	-7.633366e-03
2.166047e+02	-7.721721e-03
2.178558e+02	-7.811099e-03
2.191141e+02	-7.901510e-03
2.203797e+02	-7.992966e-03
2.216526e+02	-8.085480e-03
2.229329e+02	-8.179064e-03
2.242205e+02	-8.273730e-03
2.255156e+02	-8.369491e-03
2.268182e+02	-8.466359e-03
2.281283e+02	-8.564347e-03
2.294459e+02	-8.663468e-03
2.307712e+02	-8.763735e-03
2.321041e+02	-8.865161e-03
2.334447e+02	-8.967760e-03
2.347931e+02	-9.071545e-03
2.361493e+02	-9.176529e-03
2.375133e+02	-9.282728e-03
2.388851e+02	-9.390154e-03
2.402649e+02	-9.498822e-03
2.416527e+02	-9.608746e-03
2.430484e+02	-9.719941e-03
2.444523e+02	-9.832421e-03
2.458642e+02	-9.946202e-03
2.472843e+02	-1.006130e-02
2.487126e+02	-1.017772e-02
2.501492e+02	-1.029549e-02
2.515940e+02	-1.041463e-02
2.530472e+02	-1.053514e-02
2.545088e+02	-1.065704e-02
2.559789e+02	-1.078035e-02
2.574574e+02	-1.090508e-02
2.589444e+02	-1.103126e-02
2.604401e+02	-1.115890e-02
2.619444e+02	-1.128801e-02
2.634574e+02	-1.141861e-02
2.649791e+02	-1.155072e-02
2.665096e+02	-1.168436e-02
2.680489e+02	-1.181954e-02
2.695972e+02	-1.195628e-02
2.711544e+02	-1.209461e-02
2.727205e+02	-1.223453e-02
2.742958e+02	-1.237606e-02
2.758801e+02	-1.251924e-02
2.774736e+02	-1.266406e-02
2.790762e+02	-1.281056e-02
2.806882e+02	-1.295875e-02
2.823094e+02	-1.310866e-02
2.839400e+02	-1.326029e-02
2.855800e+02	-1.341368e-02
2.872295e+02	-1.356883e-02
2.888886e+02	-1.372578e-02
2.905572e+02	-1.388455e-02
2.922354e+02	-1.404514e-02
2.939234e+02	-1.420759e-02
2.956211e+02	-1.437192e-02
2.973286e+02	-1.453814e-02
2.990459e+02	-1.470628e-02
3.007732e+02	-1.487636e-02
3.025104e+02	-1.504841e-02
3.042577e+02	-1.522244e-02
3.060151e+02	-1.539849e-02
3.077826e+02	-1.557656e-02
3.095604e+02	-1.575669e-02
3.113484e+02	-1.593890e-02
3.131467e+02	-1.612321e-02
3.149554e+02	-1.630965e-02
3.167746e+02	-1.649824e-02
3.186043e+02	-1.668901e-02
3.204445e+02	-1.688198e-02
3.222954e+02	-1.707718e-02
3.241570e+02	-1.727463e-02
3.260293e+02	-1.747435e-02
3.279124e+02	-1.767638e-02
3.298064e+02	-1.788075e-02
3.317114e+02	-1.808747e-02
3.336273e+02	-1.829657e-02
3.355544e+02	-1.850809e-02
3.374925e+02	-1.872205e-02
3.394418e+02	-1.893847e-02
3.414024e+02	-1.915739e-02
3.433744e+02	-1.937884e-02
3.453577e+02	-1.960284e-02
3.473525e+02	-1.982942e-02
3.493588e+02	-2.005862e-02
3.513766e+02	-2.029046e-02
3.534062e+02	-2.052497e-02
3.554474e+02	-2.076219e-02
3.575005e+02	-2.100214e-02
3.595654e+02	-2.124486e-02
3.616422e+02	-2.149038e-02
3.637311e+02	-2.173872e-02
3.658320e+02	-2.198993e-02
3.679450e+02	-2.224404e-02
3.700702e+02	-2.250107e-02
3.722077e+02	-2.276107e-02
3.743576e+02	-2.302406e-02
3.765199e+02	-2.329008e-02
3.786946e+02	-2.355917e-02
3.808820e+02	-2.383135e-02
3.830819e+02	-2.410668e-02
3.852946e+02	-2.438517e-02
3.875200e+02	-2.466688e-02
3.897583e+02	-2.495183e-02
3.920096e+02	-2.524006e-02
3.942738e+02	-2.553161e-02
3.965511e+02	-2.582652e-02
3.988416e+02	-2.612482e-02
4.011452e+02	-2.642656e-02
4.034622e+02	-2.673177e-02
4.057926e+02	-2.704050e-02
4.081365e+02	-2.735278e-02
4.104938e+02	-2.766866e-02
4.128648e+02	-2.798817e-02
4.152495e+02	-2.831136e-02
4.176480e+02	-2.863827e-02
4.200603e+02	-2.896894e-02
4.224866e+02	-2.930342e-02
4.249268e+02	-2.964175e-02
4.273812e+02	-2.998397e-02
4.298497e+02	-3.033012e-02
4.323325e+02	-3.068026e-02
4.348297e+02	-3.103442e-02
4.373412e+02	-3.139266e-02
4.398673e+02	-3.175502e-02
4.424079e+02	-3.212155e-02
4.449633e+02	-3.249229e-02
4.475334e+02	-3.286729e-02
4.501183e+02	-3.324661e-02
4.527182e+02	-3.363028e-02
4.553330e+02	-3.401837e-02
4.579630e+02	-3.441091e-02
4.606082e+02	-3.480797e-02
4.632687e+02	-3.520959e-02
4.659445e+02	-3.561583e-02
4.686358e+02	-3.602673e-02
4.713426e+02	-3.644235e-02
4.740650e+02	-3.686275e-02
4.768032e+02	-3.728798e-02
4.795572e+02	-3.771809e-02
4.823271e+02	-3.815314e-02
4.851130e+02	-3.859319e-02
4.879150e+02	-3.903828e-02
4.907332e+02	-3.948849e-02
4.935676e+02	-3.994387e-02
4.964185e+02	-4.040447e-02
4.992858e+02	-4.087036e-02
5.021696e+02	-4.134159e-02
5.050701e+02	-4.181824e-02
5.079874e+02	-4.230035e-02
5.109215e+02	-4.278799e-02
5.138726e+02	-4.328122e-02
5.168407e+02	-4.378012e-02
5.198259e+02	-4.428473e-02
5.228284e+02	-4.479513e-02
5.258482e+02	-4.531138e-02
5.288855e+02	-4.583355e-02
5.319403e+02	-4.636170e-02
5.350128e+02	-4.689591e-02
5.381030e+02	-4.743624e-02
5.412111e+02	-4.798276e-02
5.443371e+02	-4.853554e-02
5.474812e+02	-4.909466e-02
5.506434e+02	-4.966017e-02
5.538239e+02	-5.023217e-02
5.570228e+02	-5.081071e-02
5.602401e+02	-5.139588e-02
5.634760e+02	-5.198774e-02
5.667306e+02	-5.258638e-02
5.700040e+02	-5.319187e-02
5.732964e+02	-5.380429e-02
5.766077e+02	-5.442372e-02
5.799382e+02	-5.505023e-02
5.832879e+02	-5.568391e-02
5.866569e+02	-5.632484e-02
5.900454e+02	-5.697309e-02
5.934535e+02	-5.762875e-02
5.968813e+02	-5.829191e-02
6.003288e+02	-5.896265e-02
6.037963e+02	-5.964105e-02
6.072838e+02	-6.032721e-02
6.107914e+02	-6.102120e-02
6.143194e+02	-6.172312e-02
6.178676e+02	-6.243306e-02
6.214364e+02	-6.315110e-02
6.250258e+02	-6.387734e-02
6.286359e+02	-6.461186e-02
6.322669e+02	-6.535477e-02
6.359189e+02	-6.610616e-02
6.395919e+02	-6.686612e-02
6.432862e+02	-6.763475e-02
6.470017e+02	-6.841214e-02
6.507388e+02	-6.919840e-02
6.544974e+02	-6.999362e-02
6.582778e+02	-7.079791e-02
6.620800e+02	-7.161136e-02
6.659041e+02	-7.243407e-02
6.697504e+02	-7.326616e-02
6.736188e+02	-7.410773e-02
6.775096e+02	-7.495888e-02
6.814229e+02	-7.581972e-02
6.853587e+02	-7.669036e-02
6.893173e+02	-7.757091e-02
6.932988e+02	-7.846147e-02
6.973033e+02	-7.936217e-02
7.013309e+02	-8.027311e-02
