Frequency(Hz)	Magnitude(dB)
1.000000e+01	-1.560375e-05
1.005776e+01	-1.578452e-05
1.011585e+01	-1.596739e-05
1.017428e+01	-1.615238e-05
1.023305e+01	-1.633951e-05
1.029215e+01	-1.652880e-05
1.035160e+01	-1.672029e-05
1.041139e+01	-1.691400e-05
1.047153e+01	-1.710996e-05
1.053201e+01	-1.730818e-05
1.059284e+01	-1.750870e-05
1.065403e+01	-1.771154e-05
1.071556e+01	-1.791674e-05
1.077746e+01	-1.812431e-05
1.083971e+01	-1.833428e-05
1.090232e+01	-1.854669e-05
1.096529e+01	-1.876156e-05
1.102862e+01	-1.897891e-05
1.109232e+01	-1.919879e-05
1.115639e+01	-1.942121e-05
1.122083e+01	-1.964621e-05
1.128564e+01	-1.987382e-05
1.135083e+01	-2.010406e-05
1.141639e+01	-2.033697e-05
1.148233e+01	-2.057258e-05
1.154865e+01	-2.081092e-05
1.161536e+01	-2.105202e-05
1.168245e+01	-2.129591e-05
1.174992e+01	-2.154263e-05
1.181779e+01	-2.179221e-05
1.188605e+01	-2.204467e-05
1.195470e+01	-2.230007e-05
1.202375e+01	-2.255842e-05
1.209320e+01	-2.281976e-05
1.216305e+01	-2.308414e-05
1.223330e+01	-2.335157e-05
1.230396e+01	-2.362211e-05
1.237503e+01	-2.389577e-05
1.244651e+01	-2.417261e-05
1.251840e+01	-2.445266e-05
1.259070e+01	-2.473595e-05
1.266343e+01	-2.502252e-05
1.273657e+01	-2.531241e-05
1.281014e+01	-2.560566e-05
1.288413e+01	-2.590231e-05
1.295855e+01	-2.620240e-05
1.303339e+01	-2.650596e-05
1.310867e+01	-2.681303e-05
1.318439e+01	-2.712367e-05
1.326054e+01	-2.743790e-05
1.333713e+01	-2.775578e-05
1.341417e+01	-2.807734e-05
1.349165e+01	-2.840262e-05
1.356958e+01	-2.873167e-05
1.364795e+01	-2.906453e-05
1.372678e+01	-2.940125e-05
1.380607e+01	-2.974187e-05
1.388581e+01	-3.008644e-05
1.396602e+01	-3.043500e-05
1.404668e+01	-3.078760e-05
1.412782e+01	-3.114428e-05
1.420942e+01	-3.150509e-05
1.429149e+01	-3.187009e-05
1.437404e+01	-3.223931e-05
1.445706e+01	-3.261281e-05
1.454057e+01	-3.299064e-05
1.462455e+01	-3.337284e-05
1.470902e+01	-3.375947e-05
1.479398e+01	-3.415058e-05
1.487943e+01	-3.454623e-05
1.496537e+01	-3.494645e-05
1.505181e+01	-3.535131e-05
1.513875e+01	-3.576087e-05
1.522619e+01	-3.617517e-05
1.531414e+01	-3.659426e-05
1.540259e+01	-3.701822e-05
1.549156e+01	-3.744708e-05
1.558103e+01	-3.788091e-05
1.567103e+01	-3.831977e-05
1.576155e+01	-3.876372e-05
1.585258e+01	-3.921280e-05
1.594415e+01	-3.966709e-05
1.603624e+01	-4.012664e-05
1.612886e+01	-4.059152e-05
1.622202e+01	-4.106178e-05
1.631572e+01	-4.153749e-05
1.640996e+01	-4.201871e-05
1.650474e+01	-4.250551e-05
1.660008e+01	-4.299795e-05
1.669596e+01	-4.349609e-05
1.679239e+01	-4.400000e-05
1.688938e+01	-4.450975e-05
1.698694e+01	-4.502540e-05
1.708505e+01	-4.554703e-05
1.718373e+01	-4.607470e-05
1.728299e+01	-4.660849e-05
1.738281e+01	-4.714846e-05
1.748322e+01	-4.769468e-05
1.758420e+01	-4.824724e-05
1.768576e+01	-4.880619e-05
1.778792e+01	-4.937162e-05
1.789066e+01	-4.994360e-05
1.799399e+01	-5.052221e-05
1.809793e+01	-5.110752e-05
1.820246e+01	-5.169961e-05
1.830760e+01	-5.229856e-05
1.841334e+01	-5.290445e-05
1.851969e+01	-5.351736e-05
1.862666e+01	-5.413737e-05
1.873425e+01	-5.476456e-05
1.884246e+01	-5.539902e-05
1.895129e+01	-5.604083e-05
1.906075e+01	-5.669008e-05
1.917085e+01	-5.734684e-05
1.928158e+01	-5.801122e-05
1.939295e+01	-5.868329e-05
1.950496e+01	-5.936315e-05
1.961762e+01	-6.005088e-05
1.973093e+01	-6.074658e-05
1.984490e+01	-6.145034e-05
1.995952e+01	-6.216226e-05
2.007480e+01	-6.288242e-05
2.019076e+01	-6.361092e-05
2.030738e+01	-6.434787e-05
2.042467e+01	-6.509335e-05
2.054264e+01	-6.584747e-05
2.066130e+01	-6.661033e-05
2.078064e+01	-6.738202e-05
2.090066e+01	-6.816265e-05
2.102139e+01	-6.895233e-05
2.114280e+01	-6.975116e-05
2.126492e+01	-7.055924e-05
2.138775e+01	-7.137668e-05
2.151128e+01	-7.220359e-05
2.163553e+01	-7.304008e-05
2.176050e+01	-7.388626e-05
2.188619e+01	-7.474225e-05
2.201260e+01	-7.560815e-05
2.213974e+01	-7.648409e-05
2.226762e+01	-7.737017e-05
2.239624e+01	-7.826651e-05
2.252560e+01	-7.917325e-05
2.265571e+01	-8.009048e-05
2.278656e+01	-8.101834e-05
2.291818e+01	-8.195695e-05
2.305055e+01	-8.290644e-05
2.318369e+01	-8.386693e-05
2.331760e+01	-8.483854e-05
2.345228e+01	-8.582141e-05
2.358774e+01	-8.681566e-05
2.372398e+01	-8.782143e-05
2.386101e+01	-8.883886e-05
2.399883e+01	-8.986807e-05
2.413745e+01	-9.090921e-05
2.427686e+01	-9.196241e-05
2.441709e+01	-9.302780e-05
2.455812e+01	-9.410555e-05
2.469997e+01	-9.519577e-05
2.484263e+01	-9.629863e-05
2.498612e+01	-9.741426e-05
2.513044e+01	-9.854282e-05
2.527559e+01	-9.968446e-05
2.542158e+01	-1.008393e-04
2.556842e+01	-1.020076e-04
2.571610e+01	-1.031893e-04
2.586463e+01	-1.043848e-04
2.601403e+01	-1.055941e-04
2.616428e+01	-1.068174e-04
2.631541e+01	-1.080549e-04
2.646740e+01	-1.093067e-04
2.662028e+01	-1.105731e-04
2.677404e+01	-1.118541e-04
2.692868e+01	-1.131499e-04
2.708422e+01	-1.144608e-04
2.724066e+01	-1.157868e-04
2.739800e+01	-1.171282e-04
2.755625e+01	-1.184852e-04
2.771541e+01	-1.198578e-04
2.787550e+01	-1.212464e-04
2.803650e+01	-1.226511e-04
2.819844e+01	-1.240720e-04
2.836131e+01	-1.255094e-04
2.852513e+01	-1.269634e-04
2.868989e+01	-1.284343e-04
2.885560e+01	-1.299222e-04
2.902227e+01	-1.314274e-04
2.918990e+01	-1.329500e-04
2.935850e+01	-1.344902e-04
2.952807e+01	-1.360483e-04
2.969863e+01	-1.376244e-04
2.987016e+01	-1.392188e-04
3.004269e+01	-1.408317e-04
3.021622e+01	-1.424632e-04
3.039075e+01	-1.441137e-04
3.056628e+01	-1.457833e-04
3.074283e+01	-1.474722e-04
3.092040e+01	-1.491807e-04
3.109900e+01	-1.509089e-04
3.127862e+01	-1.526572e-04
3.145929e+01	-1.544258e-04
3.164099e+01	-1.562148e-04
3.182375e+01	-1.580245e-04
3.200756e+01	-1.598553e-04
3.219244e+01	-1.617072e-04
3.237838e+01	-1.635806e-04
3.256540e+01	-1.654757e-04
3.275349e+01	-1.673927e-04
3.294268e+01	-1.693320e-04
3.313295e+01	-1.712937e-04
3.332433e+01	-1.732781e-04
3.351681e+01	-1.752856e-04
3.371040e+01	-1.773163e-04
3.390511e+01	-1.793705e-04
3.410094e+01	-1.814485e-04
3.429791e+01	-1.835506e-04
3.449601e+01	-1.856770e-04
3.469526e+01	-1.878281e-04
3.489566e+01	-1.900041e-04
3.509721e+01	-1.922053e-04
3.529993e+01	-1.944320e-04
3.550382e+01	-1.966845e-04
3.570889e+01	-1.989631e-04
3.591515e+01	-2.012681e-04
3.612259e+01	-2.035998e-04
3.633123e+01	-2.059585e-04
3.654108e+01	-2.083445e-04
3.675214e+01	-2.107582e-04
3.696442e+01	-2.131998e-04
3.717792e+01	-2.156697e-04
3.739266e+01	-2.181683e-04
3.760864e+01	-2.206957e-04
3.782587e+01	-2.232525e-04
3.804435e+01	-2.258389e-04
3.826409e+01	-2.284552e-04
3.848510e+01	-2.311018e-04
3.870739e+01	-2.337792e-04
3.893096e+01	-2.364875e-04
3.915583e+01	-2.392272e-04
3.938199e+01	-2.419986e-04
3.960946e+01	-2.448022e-04
3.983824e+01	-2.476382e-04
4.006834e+01	-2.505071e-04
4.029978e+01	-2.534092e-04
4.053255e+01	-2.563449e-04
4.076666e+01	-2.593146e-04
4.100213e+01	-2.623188e-04
4.123896e+01	-2.653577e-04
4.147715e+01	-2.684319e-04
4.171672e+01	-2.715416e-04
4.195767e+01	-2.746874e-04
4.220002e+01	-2.778696e-04
4.244377e+01	-2.810887e-04
4.268892e+01	-2.843451e-04
4.293549e+01	-2.876392e-04
4.318348e+01	-2.909715e-04
4.343291e+01	-2.943424e-04
4.368377e+01	-2.977523e-04
4.393609e+01	-3.012017e-04
4.418986e+01	-3.046911e-04
4.444510e+01	-3.082209e-04
4.470182e+01	-3.117916e-04
4.496001e+01	-3.154036e-04
4.521970e+01	-3.190576e-04
4.548089e+01	-3.227538e-04
4.574358e+01	-3.264928e-04
4.600779e+01	-3.302752e-04
4.627353e+01	-3.341014e-04
4.654081e+01	-3.379719e-04
4.680963e+01	-3.418872e-04
4.708000e+01	-3.458479e-04
4.735193e+01	-3.498545e-04
4.762543e+01	-3.539075e-04
4.790051e+01	-3.580075e-04
4.817719e+01	-3.621549e-04
4.845545e+01	-3.663504e-04
4.873533e+01	-3.705945e-04
4.901682e+01	-3.748877e-04
4.929994e+01	-3.792307e-04
4.958470e+01	-3.836240e-04
4.987110e+01	-3.880682e-04
5.015915e+01	-3.925639e-04
5.044887e+01	-3.971116e-04
5.074026e+01	-4.017121e-04
5.103333e+01	-4.063658e-04
5.132810e+01	-4.110734e-04
5.162457e+01	-4.158356e-04
5.192275e+01	-4.206530e-04
5.222265e+01	-4.255261e-04
5.252429e+01	-4.304557e-04
5.282767e+01	-4.354424e-04
5.313280e+01	-4.404869e-04
5.343969e+01	-4.455898e-04
5.374836e+01	-4.507518e-04
5.405880e+01	-4.559736e-04
5.437105e+01	-4.612559e-04
5.468509e+01	-4.665994e-04
5.500095e+01	-4.720048e-04
5.531863e+01	-4.774728e-04
5.563815e+01	-4.830041e-04
5.595951e+01	-4.885995e-04
5.628273e+01	-4.942598e-04
5.660782e+01	-4.999856e-04
5.693479e+01	-5.057777e-04
5.726364e+01	-5.116369e-04
5.759439e+01	-5.175640e-04
5.792705e+01	-5.235598e-04
5.826164e+01	-5.296250e-04
5.859815e+01	-5.357605e-04
5.893662e+01	-5.419670e-04
5.927703e+01	-5.482455e-04
5.961941e+01	-5.545966e-04
5.996377e+01	-5.610214e-04
6.031012e+01	-5.675205e-04
6.065847e+01	-5.740950e-04
6.100883e+01	-5.807456e-04
6.136121e+01	-5.874732e-04
6.171563e+01	-5.942788e-04
6.207210e+01	-6.011632e-04
6.243063e+01	-6.081274e-04
6.279122e+01	-6.151722e-04
6.315390e+01	-6.222986e-04
6.351868e+01	-6.295076e-04
6.388556e+01	-6.368001e-04
6.425456e+01	-6.441770e-04
6.462569e+01	-6.516395e-04
6.499897e+01	-6.591883e-04
6.537440e+01	-6.668246e-04
6.575200e+01	-6.745493e-04
6.613178e+01	-6.823636e-04
6.651375e+01	-6.902683e-04
6.689793e+01	-6.982646e-04
6.728433e+01	-7.063535e-04
6.767297e+01	-7.145362e-04
6.806384e+01	-7.228136e-04
6.845698e+01	-7.311869e-04
6.885238e+01	-7.396571e-04
6.925007e+01	-7.482255e-04
6.965005e+01	-7.568932e-04
7.005235e+01	-7.656612e-04
7.045697e+01	-7.745308e-04
7.086393e+01	-7.835032e-04
7.127323e+01	-7.925794e-04
7.168490e+01	-8.017608e-04
7.209895e+01	-8.110486e-04
7.251539e+01	-8.204439e-04
7.293424e+01	-8.299481e-04
7.335551e+01	-8.395623e-04
7.377920e+01	-8.492879e-04
7.420535e+01	-8.591262e-04
7.463396e+01	-8.690784e-04
7.506504e+01	-8.791459e-04
7.549861e+01	-8.893300e-04
7.593469e+01	-8.996321e-04
7.637328e+01	-9.100535e-04
7.681441e+01	-9.205956e-04
7.725809e+01	-9.312598e-04
7.770433e+01	-9.420475e-04
7.815315e+01	-9.529602e-04
7.860456e+01	-9.639992e-04
7.905857e+01	-9.751662e-04
7.951521e+01	-9.864625e-04
7.997449e+01	-9.978896e-04
8.043642e+01	-1.009449e-03
8.090102e+01	-1.021142e-03
8.136830e+01	-1.032971e-03
8.183828e+01	-1.044937e-03
8.231097e+01	-1.057041e-03
8.278640e+01	-1.069286e-03
8.326457e+01	-1.081672e-03
8.374550e+01	-1.094202e-03
8.422921e+01	-1.106877e-03
8.471572e+01	-1.119699e-03
8.520503e+01	-1.132670e-03
8.569717e+01	-1.145790e-03
8.619215e+01	-1.159063e-03
8.669000e+01	-1.172489e-03
8.719071e+01	-1.186071e-03
8.769432e+01	-1.199810e-03
8.820084e+01	-1.213708e-03
8.871029e+01	-1.227767e-03
8.922267e+01	-1.241989e-03
8.973802e+01	-1.256376e-03
9.025634e+01	-1.270929e-03
9.077766e+01	-1.285651e-03
9.130199e+01	-1.300543e-03
9.182935e+01	-1.315608e-03
9.235975e+01	-1.330847e-03
9.289321e+01	-1.346263e-03
9.342976e+01	-1.361858e-03
9.396941e+01	-1.377633e-03
9.451217e+01	-1.393590e-03
9.505807e+01	-1.409733e-03
9.560712e+01	-1.426062e-03
9.615934e+01	-1.442581e-03
9.671476e+01	-1.459291e-03
9.727338e+01	-1.476194e-03
9.783522e+01	-1.493293e-03
9.840032e+01	-1.510590e-03
9.896867e+01	-1.528088e-03
9.954031e+01	-1.545788e-03
1.001153e+02	-1.563693e-03
1.006935e+02	-1.581806e-03
1.012751e+02	-1.600128e-03
1.018601e+02	-1.618662e-03
1.024484e+02	-1.637412e-03
1.030402e+02	-1.656378e-03
1.036353e+02	-1.675564e-03
1.042339e+02	-1.694972e-03
1.048360e+02	-1.714605e-03
1.054415e+02	-1.734465e-03
1.060505e+02	-1.754555e-03
1.066631e+02	-1.774878e-03
1.072791e+02	-1.795436e-03
1.078988e+02	-1.816232e-03
1.085220e+02	-1.837269e-03
1.091488e+02	-1.858550e-03
1.097793e+02	-1.880077e-03
1.104133e+02	-1.901854e-03
1.110511e+02	-1.923882e-03
1.116925e+02	-1.946166e-03
1.123376e+02	-1.968708e-03
1.129865e+02	-1.991510e-03
1.136391e+02	-2.014577e-03
1.142955e+02	-2.037911e-03
1.149556e+02	-2.061515e-03
1.156196e+02	-2.085393e-03
1.162874e+02	-2.109547e-03
1.169591e+02	-2.133980e-03
1.176347e+02	-2.158697e-03
1.183141e+02	-2.183700e-03
1.189975e+02	-2.208992e-03
1.196848e+02	-2.234577e-03
1.203761e+02	-2.260459e-03
1.210714e+02	-2.286640e-03
1.217707e+02	-2.313124e-03
1.224740e+02	-2.339915e-03
1.231814e+02	-2.367016e-03
1.238929e+02	-2.394431e-03
1.246085e+02	-2.422163e-03
1.253283e+02	-2.450217e-03
1.260522e+02	-2.478595e-03
1.267802e+02	-2.507302e-03
1.275125e+02	-2.536341e-03
1.282490e+02	-2.565717e-03
1.289898e+02	-2.595432e-03
1.297348e+02	-2.625492e-03
1.304842e+02	-2.655900e-03
1.312378e+02	-2.686659e-03
1.319959e+02	-2.717775e-03
1.327583e+02	-2.749251e-03
1.335251e+02	-2.781092e-03
1.342963e+02	-2.813301e-03
1.350720e+02	-2.845883e-03
1.358522e+02	-2.878843e-03
1.366368e+02	-2.912184e-03
1.374260e+02	-2.945911e-03
1.382198e+02	-2.980028e-03
1.390182e+02	-3.014540e-03
1.398211e+02	-3.049452e-03
1.406287e+02	-3.084769e-03
1.414410e+02	-3.120494e-03
1.422579e+02	-3.156632e-03
1.430796e+02	-3.193189e-03
1.439060e+02	-3.230169e-03
1.447372e+02	-3.267577e-03
1.455732e+02	-3.305419e-03
1.464141e+02	-3.343698e-03
1.472597e+02	-3.382421e-03
1.481103e+02	-3.421591e-03
1.489658e+02	-3.461216e-03
1.498262e+02	-3.501299e-03
1.506916e+02	-3.541845e-03
1.515620e+02	-3.582862e-03
1.524374e+02	-3.624353e-03
1.533179e+02	-3.666324e-03
1.542034e+02	-3.708781e-03
1.550941e+02	-3.751730e-03
1.559899e+02	-3.795175e-03
1.568909e+02	-3.839124e-03
1.577971e+02	-3.883581e-03
1.587085e+02	-3.928553e-03
1.596252e+02	-3.974046e-03
1.605472e+02	-4.020065e-03
1.614745e+02	-4.066616e-03
1.624072e+02	-4.113707e-03
1.633453e+02	-4.161342e-03
1.642887e+02	-4.209529e-03
1.652377e+02	-4.258274e-03
1.661921e+02	-4.307582e-03
1.671520e+02	-4.357462e-03
1.681175e+02	-4.407918e-03
1.690885e+02	-4.458959e-03
1.700651e+02	-4.510590e-03
1.710474e+02	-4.562819e-03
1.720354e+02	-4.615652e-03
1.730291e+02	-4.669097e-03
1.740285e+02	-4.723160e-03
1.750337e+02	-4.777849e-03
1.760446e+02	-4.833171e-03
1.770615e+02	-4.889133e-03
1.780842e+02	-4.945742e-03
1.791128e+02	-5.003007e-03
1.801473e+02	-5.060934e-03
1.811878e+02	-5.119532e-03
1.822344e+02	-5.178807e-03
1.832870e+02	-5.238769e-03
1.843456e+02	-5.299424e-03
1.854104e+02	-5.360781e-03
1.864813e+02	-5.422849e-03
1.875584e+02	-5.485634e-03
1.886418e+02	-5.549146e-03
1.897313e+02	-5.613392e-03
1.908272e+02	-5.678382e-03
1.919294e+02	-5.744124e-03
1.930380e+02	-5.810627e-03
1.941530e+02	-5.877898e-03
1.952744e+02	-5.945949e-03
1.964023e+02	-6.014786e-03
1.975367e+02	-6.084420e-03
1.986777e+02	-6.154859e-03
1.998252e+02	-6.226114e-03
2.009794e+02	-6.298192e-03
2.021403e+02	-6.371105e-03
2.033078e+02	-6.444861e-03
2.044821e+02	-6.519470e-03
2.056632e+02	-6.594942e-03
2.068511e+02	-6.671287e-03
2.080459e+02	-6.748516e-03
2.092475e+02	-6.826637e-03
2.104561e+02	-6.905663e-03
2.116717e+02	-6.985602e-03
2.128943e+02	-7.066466e-03
2.141240e+02	-7.148265e-03
2.153608e+02	-7.231010e-03
2.166047e+02	-7.314713e-03
2.178558e+02	-7.399383e-03
2.191141e+02	-7.485033e-03
2.203797e+02	-7.571673e-03
2.216526e+02	-7.659315e-03
2.229329e+02	-7.747971e-03
2.242205e+02	-7.837652e-03
2.255156e+02	-7.928370e-03
2.268182e+02	-8.020137e-03
2.281283e+02	-8.112965e-03
2.294459e+02	-8.206867e-03
2.307712e+02	-8.301854e-03
2.321041e+02	-8.397940e-03
2.334447e+02	-8.495137e-03
2.347931e+02	-8.593457e-03
2.361493e+02	-8.692915e-03
2.375133e+02	-8.793522e-03
2.388851e+02	-8.895293e-03
2.402649e+02	-8.998240e-03
2.416527e+02	-9.102377e-03
2.430484e+02	-9.207718e-03
2.444523e+02	-9.314277e-03
2.458642e+02	-9.422068e-03
2.472843e+02	-9.531105e-03
2.487126e+02	-9.641402e-03
2.501492e+02	-9.752974e-03
2.515940e+02	-9.865836e-03
2.530472e+02	-9.980002e-03
2.545088e+02	-1.009549e-02
2.559789e+02	-1.021231e-02
2.574574e+02	-1.033048e-02
2.589444e+02	-1.045002e-02
2.604401e+02	-1.057093e-02
2.619444e+02	-1.069325e-02
2.634574e+02	-1.081698e-02
2.649791e+02	-1.094214e-02
2.665096e+02	-1.106874e-02
2.680489e+02	-1.119681e-02
2.695972e+02	-1.132636e-02
2.711544e+02	-1.145741e-02
2.727205e+02	-1.158996e-02
2.742958e+02	-1.172406e-02
2.758801e+02	-1.185970e-02
2.774736e+02	-1.199690e-02
2.790762e+02	-1.213569e-02
2.806882e+02	-1.227609e-02
2.823094e+02	-1.241811e-02
2.839400e+02	-1.256177e-02
2.855800e+02	-1.270708e-02
2.872295e+02	-1.285408e-02
2.888886e+02	-1.300277e-02
2.905572e+02	-1.315318e-02
2.922354e+02	-1.330533e-02
2.939234e+02	-1.345924e-02
2.956211e+02	-1.361492e-02
2.973286e+02	-1.377240e-02
2.990459e+02	-1.393170e-02
3.007732e+02	-1.409284e-02
3.025104e+02	-1.425584e-02
3.042577e+02	-1.442073e-02
3.060151e+02	-1.458751e-02
3.077826e+02	-1.475622e-02
3.095604e+02	-1.492688e-02
3.113484e+02	-1.509951e-02
3.131467e+02	-1.527414e-02
3.149554e+02	-1.545077e-02
3.167746e+02	-1.562945e-02
3.186043e+02	-1.581019e-02
3.204445e+02	-1.599302e-02
3.222954e+02	-1.617796e-02
3.241570e+02	-1.636503e-02
3.260293e+02	-1.655426e-02
3.279124e+02	-1.674567e-02
3.298064e+02	-1.693929e-02
3.317114e+02	-1.713515e-02
3.336273e+02	-1.733327e-02
3.355544e+02	-1.753367e-02
3.374925e+02	-1.773639e-02
3.394418e+02	-1.794144e-02
3.414024e+02	-1.814886e-02
3.433744e+02	-1.835868e-02
3.453577e+02	-1.857091e-02
3.473525e+02	-1.878559e-02
3.493588e+02	-1.900275e-02
3.513766e+02	-1.922241e-02
3.534062e+02	-1.944461e-02
3.554474e+02	-1.966937e-02
3.575005e+02	-1.989672e-02
3.595654e+02	-2.012669e-02
3.616422e+02	-2.035931e-02
3.637311e+02	-2.059462e-02
3.658320e+02	-2.083264e-02
3.679450e+02	-2.107340e-02
3.700702e+02	-2.131694e-02
3.722077e+02	-2.156329e-02
3.743576e+02	-2.181247e-02
3.765199e+02	-2.206453e-02
3.786946e+02	-2.231950e-02
3.808820e+02	-2.257740e-02
3.830819e+02	-2.283827e-02
3.852946e+02	-2.310215e-02
3.875200e+02	-2.336907e-02
3.897583e+02	-2.363907e-02
3.920096e+02	-2.391218e-02
3.942738e+02	-2.418843e-02
3.965511e+02	-2.446787e-02
3.988416e+02	-2.475053e-02
4.011452e+02	-2.503644e-02
4.034622e+02	-2.532564e-02
4.057926e+02	-2.561818e-02
4.081365e+02	-2.591408e-02
4.104938e+02	-2.621339e-02
4.128648e+02	-2.651615e-02
4.152495e+02	-2.682240e-02
4.176480e+02	-2.713217e-02
4.200603e+02	-2.744550e-02
4.224866e+02	-2.776245e-02
4.249268e+02	-2.808304e-02
4.273812e+02	-2.840732e-02
4.298497e+02	-2.873533e-02
4.323325e+02	-2.906712e-02
4.348297e+02	-2.940273e-02
4.373412e+02	-2.974219e-02
4.398673e+02	-3.008557e-02
4.424079e+02	-3.043289e-02
4.449633e+02	-3.078421e-02
4.475334e+02	-3.113957e-02
4.501183e+02	-3.149902e-02
4.527182e+02	-3.186260e-02
4.553330e+02	-3.223036e-02
4.579630e+02	-3.260235e-02
4.606082e+02	-3.297862e-02
4.632687e+02	-3.335921e-02
4.659445e+02	-3.374418e-02
4.686358e+02	-3.413357e-02
4.713426e+02	-3.452744e-02
4.740650e+02	-3.492584e-02
4.768032e+02	-3.532881e-02
4.795572e+02	-3.573642e-02
4.823271e+02	-3.614870e-02
4.851130e+02	-3.656573e-02
4.879150e+02	-3.698754e-02
4.907332e+02	-3.741420e-02
4.935676e+02	-3.784576e-02
4.964185e+02	-3.828227e-02
4.992858e+02	-3.872380e-02
5.021696e+02	-3.917039e-02
5.050701e+02	-3.962212e-02
5.079874e+02	-4.007902e-02
5.109215e+02	-4.054118e-02
5.138726e+02	-4.100863e-02
5.168407e+02	-4.148145e-02
5.198259e+02	-4.195970e-02
5.228284e+02	-4.244343e-02
5.258482e+02	-4.293271e-02
5.288855e+02	-4.342760e-02
5.319403e+02	-4.392817e-02
5.350128e+02	-4.443448e-02
5.381030e+02	-4.494659e-02
5.412111e+02	-4.546458e-02
5.443371e+02	-4.598850e-02
5.474812e+02	-4.651843e-02
5.506434e+02	-4.705443e-02
5.538239e+02	-4.759657e-02
5.570228e+02	-4.814493e-02
5.602401e+02	-4.869957e-02
5.634760e+02	-4.926056e-02
5.667306e+02	-4.982797e-02
5.700040e+02	-5.040188e-02
5.732964e+02	-5.098237e-02
5.766077e+02	-5.156950e-02
5.799382e+02	-5.216335e-02
5.832879e+02	-5.276399e-02
5.866569e+02	-5.337151e-02
5.900454e+02	-5.398599e-02
5.934535e+02	-5.460749e-02
5.968813e+02	-5.523610e-02
6.003288e+02	-5.587190e-02
6.037963e+02	-5.651497e-02
6.072838e+02	-5.716539e-02
6.107914e+02	-5.782325e-02
6.143194e+02	-5.848863e-02
6.178676e+02	-5.916161e-02
6.214364e+02	-5.984229e-02
6.250258e+02	-6.053074e-02
6.286359e+02	-6.122705e-02
6.322669e+02	-6.193132e-02
6.359189e+02	-6.264362e-02
6.395919e+02	-6.336407e-02
6.432862e+02	-6.409273e-02
6.470017e+02	-6.482971e-02
6.507388e+02	-6.557510e-02
6.544974e+02	-6.632900e-02
6.582778e+02	-6.709150e-02
6.620800e+02	-6.786269e-02
6.659041e+02	-6.864268e-02
6.697504e+02	-6.943156e-02
6.736188e+02	-7.022943e-02
6.775096e+02	-7.103640e-02
6.814229e+02	-7.185256e-02
6.853587e+02	-7.267802e-02
6.893173e+02	-7.351288e-02
6.932988e+02	-7.435725e-02
6.973033e+02	-7.521124e-02
7.013309e+02	-7.607494e-02
