Frequency(Hz)	Magnitude(dB)
1.000000e+01	-1.635864e-05
1.005776e+01	-1.654816e-05
1.011585e+01	-1.673987e-05
1.017428e+01	-1.693381e-05
1.023305e+01	-1.712999e-05
1.029215e+01	-1.732845e-05
1.035160e+01	-1.752920e-05
1.041139e+01	-1.773228e-05
1.047153e+01	-1.793771e-05
1.053201e+01	-1.814553e-05
1.059284e+01	-1.835575e-05
1.065403e+01	-1.856840e-05
1.071556e+01	-1.878352e-05
1.077746e+01	-1.900113e-05
1.083971e+01	-1.922127e-05
1.090232e+01	-1.944395e-05
1.096529e+01	-1.966921e-05
1.102862e+01	-1.989709e-05
1.109232e+01	-2.012760e-05
1.115639e+01	-2.036078e-05
1.122083e+01	-2.059667e-05
1.128564e+01	-2.083529e-05
1.135083e+01	-2.107667e-05
1.141639e+01	-2.132085e-05
1.148233e+01	-2.156785e-05
1.154865e+01	-2.181772e-05
1.161536e+01	-2.207049e-05
1.168245e+01	-2.232618e-05
1.174992e+01	-2.258483e-05
1.181779e+01	-2.284648e-05
1.188605e+01	-2.311117e-05
1.195470e+01	-2.337891e-05
1.202375e+01	-2.364976e-05
1.209320e+01	-2.392375e-05
1.216305e+01	-2.420092e-05
1.223330e+01	-2.448129e-05
1.230396e+01	-2.476491e-05
1.237503e+01	-2.505182e-05
1.244651e+01	-2.534205e-05
1.251840e+01	-2.563564e-05
1.259070e+01	-2.593264e-05
1.266343e+01	-2.623308e-05
1.273657e+01	-2.653699e-05
1.281014e+01	-2.684443e-05
1.288413e+01	-2.715543e-05
1.295855e+01	-2.747003e-05
1.303339e+01	-2.778828e-05
1.310867e+01	-2.811021e-05
1.318439e+01	-2.843588e-05
1.326054e+01	-2.876531e-05
1.333713e+01	-2.909857e-05
1.341417e+01	-2.943568e-05
1.349165e+01	-2.977670e-05
1.356958e+01	-3.012167e-05
1.364795e+01	-3.047064e-05
1.372678e+01	-3.082365e-05
1.380607e+01	-3.118074e-05
1.388581e+01	-3.154198e-05
1.396602e+01	-3.190740e-05
1.404668e+01	-3.227706e-05
1.412782e+01	-3.265099e-05
1.420942e+01	-3.302926e-05
1.429149e+01	-3.341192e-05
1.437404e+01	-3.379900e-05
1.445706e+01	-3.419057e-05
1.454057e+01	-3.458668e-05
1.462455e+01	-3.498737e-05
1.470902e+01	-3.539271e-05
1.479398e+01	-3.580274e-05
1.487943e+01	-3.621752e-05
1.496537e+01	-3.663711e-05
1.505181e+01	-3.706156e-05
1.513875e+01	-3.749093e-05
1.522619e+01	-3.792527e-05
1.531414e+01	-3.836464e-05
1.540259e+01	-3.880910e-05
1.549156e+01	-3.925872e-05
1.558103e+01	-3.971354e-05
1.567103e+01	-4.017363e-05
1.576155e+01	-4.063905e-05
1.585258e+01	-4.110986e-05
1.594415e+01	-4.158613e-05
1.603624e+01	-4.206791e-05
1.612886e+01	-4.255528e-05
1.622202e+01	-4.304829e-05
1.631572e+01	-4.354702e-05
1.640996e+01	-4.405152e-05
1.650474e+01	-4.456186e-05
1.660008e+01	-4.507812e-05
1.669596e+01	-4.560036e-05
1.679239e+01	-4.612865e-05
1.688938e+01	-4.666306e-05
1.698694e+01	-4.720366e-05
1.708505e+01	-4.775053e-05
1.718373e+01	-4.830373e-05
1.728299e+01	-4.886334e-05
1.738281e+01	-4.942943e-05
1.748322e+01	-5.000208e-05
1.758420e+01	-5.058137e-05
1.768576e+01	-5.116736e-05
1.778792e+01	-5.176015e-05
1.789066e+01	-5.235980e-05
1.799399e+01	-5.296640e-05
1.809793e+01	-5.358002e-05
1.820246e+01	-5.420076e-05
1.830760e+01	-5.482869e-05
1.841334e+01	-5.546389e-05
1.851969e+01	-5.610645e-05
1.862666e+01	-5.675645e-05
1.873425e+01	-5.741399e-05
1.884246e+01	-5.807914e-05
1.895129e+01	-5.875200e-05
1.906075e+01	-5.943265e-05
1.917085e+01	-6.012119e-05
1.928158e+01	-6.081771e-05
1.939295e+01	-6.152229e-05
1.950496e+01	-6.223504e-05
1.961762e+01	-6.295605e-05
1.973093e+01	-6.368541e-05
1.984490e+01	-6.442321e-05
1.995952e+01	-6.516957e-05
2.007480e+01	-6.592457e-05
2.019076e+01	-6.668832e-05
2.030738e+01	-6.746092e-05
2.042467e+01	-6.824246e-05
2.054264e+01	-6.903307e-05
2.066130e+01	-6.983283e-05
2.078064e+01	-7.064185e-05
2.090066e+01	-7.146025e-05
2.102139e+01	-7.228813e-05
2.114280e+01	-7.312560e-05
2.126492e+01	-7.397278e-05
2.138775e+01	-7.482976e-05
2.151128e+01	-7.569668e-05
2.163553e+01	-7.657364e-05
2.176050e+01	-7.746076e-05
2.188619e+01	-7.835816e-05
2.201260e+01	-7.926595e-05
2.213974e+01	-8.018426e-05
2.226762e+01	-8.111321e-05
2.239624e+01	-8.205292e-05
2.252560e+01	-8.300351e-05
2.265571e+01	-8.396512e-05
2.278656e+01	-8.493787e-05
2.291818e+01	-8.592189e-05
2.305055e+01	-8.691731e-05
2.318369e+01	-8.792426e-05
2.331760e+01	-8.894288e-05
2.345228e+01	-8.997330e-05
2.358774e+01	-9.101565e-05
2.372398e+01	-9.207008e-05
2.386101e+01	-9.313673e-05
2.399883e+01	-9.421573e-05
2.413745e+01	-9.530724e-05
2.427686e+01	-9.641138e-05
2.441709e+01	-9.752833e-05
2.455812e+01	-9.865821e-05
2.469997e+01	-9.980118e-05
2.484263e+01	-1.009574e-04
2.498612e+01	-1.021270e-04
2.513044e+01	-1.033101e-04
2.527559e+01	-1.045070e-04
2.542158e+01	-1.057177e-04
2.556842e+01	-1.069425e-04
2.571610e+01	-1.081814e-04
2.586463e+01	-1.094347e-04
2.601403e+01	-1.107025e-04
2.616428e+01	-1.119851e-04
2.631541e+01	-1.132824e-04
2.646740e+01	-1.145948e-04
2.662028e+01	-1.159224e-04
2.677404e+01	-1.172654e-04
2.692868e+01	-1.186239e-04
2.708422e+01	-1.199982e-04
2.724066e+01	-1.213884e-04
2.739800e+01	-1.227947e-04
2.755625e+01	-1.242173e-04
2.771541e+01	-1.256563e-04
2.787550e+01	-1.271121e-04
2.803650e+01	-1.285847e-04
2.819844e+01	-1.300743e-04
2.836131e+01	-1.315813e-04
2.852513e+01	-1.331057e-04
2.868989e+01	-1.346477e-04
2.885560e+01	-1.362076e-04
2.902227e+01	-1.377856e-04
2.918990e+01	-1.393818e-04
2.935850e+01	-1.409966e-04
2.952807e+01	-1.426301e-04
2.969863e+01	-1.442824e-04
2.987016e+01	-1.459540e-04
3.004269e+01	-1.476448e-04
3.021622e+01	-1.493553e-04
3.039075e+01	-1.510856e-04
3.056628e+01	-1.528360e-04
3.074283e+01	-1.546066e-04
3.092040e+01	-1.563977e-04
3.109900e+01	-1.582096e-04
3.127862e+01	-1.600424e-04
3.145929e+01	-1.618965e-04
3.164099e+01	-1.637721e-04
3.182375e+01	-1.656694e-04
3.200756e+01	-1.675887e-04
3.219244e+01	-1.695303e-04
3.237838e+01	-1.714943e-04
3.256540e+01	-1.734810e-04
3.275349e+01	-1.754908e-04
3.294268e+01	-1.775239e-04
3.313295e+01	-1.795805e-04
3.332433e+01	-1.816610e-04
3.351681e+01	-1.837655e-04
3.371040e+01	-1.858944e-04
3.390511e+01	-1.880480e-04
3.410094e+01	-1.902266e-04
3.429791e+01	-1.924303e-04
3.449601e+01	-1.946597e-04
3.469526e+01	-1.969148e-04
3.489566e+01	-1.991961e-04
3.509721e+01	-2.015037e-04
3.529993e+01	-2.038382e-04
3.550382e+01	-2.061996e-04
3.570889e+01	-2.085885e-04
3.591515e+01	-2.110049e-04
3.612259e+01	-2.134494e-04
3.633123e+01	-2.159222e-04
3.654108e+01	-2.184237e-04
3.675214e+01	-2.209541e-04
3.696442e+01	-2.235139e-04
3.717792e+01	-2.261033e-04
3.739266e+01	-2.287227e-04
3.760864e+01	-2.313724e-04
3.782587e+01	-2.340529e-04
3.804435e+01	-2.367644e-04
3.826409e+01	-2.395073e-04
3.848510e+01	-2.422820e-04
3.870739e+01	-2.450888e-04
3.893096e+01	-2.479281e-04
3.915583e+01	-2.508004e-04
3.938199e+01	-2.537059e-04
3.960946e+01	-2.566450e-04
3.983824e+01	-2.596183e-04
4.006834e+01	-2.626259e-04
4.029978e+01	-2.656684e-04
4.053255e+01	-2.687462e-04
4.076666e+01	-2.718596e-04
4.100213e+01	-2.750090e-04
4.123896e+01	-2.781950e-04
4.147715e+01	-2.814178e-04
4.171672e+01	-2.846780e-04
4.195767e+01	-2.879760e-04
4.220002e+01	-2.913122e-04
4.244377e+01	-2.946870e-04
4.268892e+01	-2.981009e-04
4.293549e+01	-3.015544e-04
4.318348e+01	-3.050478e-04
4.343291e+01	-3.085818e-04
4.368377e+01	-3.121567e-04
4.393609e+01	-3.157729e-04
4.418986e+01	-3.194311e-04
4.444510e+01	-3.231317e-04
4.470182e+01	-3.268751e-04
4.496001e+01	-3.306619e-04
4.521970e+01	-3.344926e-04
4.548089e+01	-3.383676e-04
4.574358e+01	-3.422875e-04
4.600779e+01	-3.462529e-04
4.627353e+01	-3.502642e-04
4.654081e+01	-3.543219e-04
4.680963e+01	-3.584266e-04
4.708000e+01	-3.625789e-04
4.735193e+01	-3.667793e-04
4.762543e+01	-3.710284e-04
4.790051e+01	-3.753267e-04
4.817719e+01	-3.796748e-04
4.845545e+01	-3.840732e-04
4.873533e+01	-3.885226e-04
4.901682e+01	-3.930235e-04
4.929994e+01	-3.975766e-04
4.958470e+01	-4.021824e-04
4.987110e+01	-4.068416e-04
5.015915e+01	-4.115548e-04
5.044887e+01	-4.163225e-04
5.074026e+01	-4.211455e-04
5.103333e+01	-4.260243e-04
5.132810e+01	-4.309597e-04
5.162457e+01	-4.359522e-04
5.192275e+01	-4.410026e-04
5.222265e+01	-4.461115e-04
5.252429e+01	-4.512795e-04
5.282767e+01	-4.565075e-04
5.313280e+01	-4.617959e-04
5.343969e+01	-4.671457e-04
5.374836e+01	-4.725574e-04
5.405880e+01	-4.780318e-04
5.437105e+01	-4.835696e-04
5.468509e+01	-4.891716e-04
5.500095e+01	-4.948385e-04
5.531863e+01	-5.005710e-04
5.563815e+01	-5.063699e-04
5.595951e+01	-5.122360e-04
5.628273e+01	-5.181700e-04
5.660782e+01	-5.241728e-04
5.693479e+01	-5.302451e-04
5.726364e+01	-5.363878e-04
5.759439e+01	-5.426016e-04
5.792705e+01	-5.488874e-04
5.826164e+01	-5.552460e-04
5.859815e+01	-5.616783e-04
5.893662e+01	-5.681850e-04
5.927703e+01	-5.747672e-04
5.961941e+01	-5.814256e-04
5.996377e+01	-5.881611e-04
6.031012e+01	-5.949746e-04
6.065847e+01	-6.018671e-04
6.100883e+01	-6.088394e-04
6.136121e+01	-6.158925e-04
6.171563e+01	-6.230272e-04
6.207210e+01	-6.302447e-04
6.243063e+01	-6.375457e-04
6.279122e+01	-6.449313e-04
6.315390e+01	-6.524024e-04
6.351868e+01	-6.599601e-04
6.388556e+01	-6.676053e-04
6.425456e+01	-6.753391e-04
6.462569e+01	-6.831625e-04
6.499897e+01	-6.910765e-04
6.537440e+01	-6.990822e-04
6.575200e+01	-7.071806e-04
6.613178e+01	-7.153728e-04
6.651375e+01	-7.236599e-04
6.689793e+01	-7.320430e-04
6.728433e+01	-7.405232e-04
6.767297e+01	-7.491016e-04
6.806384e+01	-7.577794e-04
6.845698e+01	-7.665577e-04
6.885238e+01	-7.754377e-04
6.925007e+01	-7.844205e-04
6.965005e+01	-7.935074e-04
7.005235e+01	-8.026996e-04
7.045697e+01	-8.119982e-04
7.086393e+01	-8.214045e-04
7.127323e+01	-8.309198e-04
7.168490e+01	-8.405453e-04
7.209895e+01	-8.502823e-04
7.251539e+01	-8.601321e-04
7.293424e+01	-8.700959e-04
7.335551e+01	-8.801752e-04
7.377920e+01	-8.903712e-04
7.420535e+01	-9.006854e-04
7.463396e+01	-9.111190e-04
7.506504e+01	-9.216734e-04
7.549861e+01	-9.323501e-04
7.593469e+01	-9.431505e-04
7.637328e+01	-9.540759e-04
7.681441e+01	-9.651279e-04
7.725809e+01	-9.763079e-04
7.770433e+01	-9.876174e-04
7.815315e+01	-9.990579e-04
7.860456e+01	-1.010631e-03
7.905857e+01	-1.022338e-03
7.951521e+01	-1.034181e-03
7.997449e+01	-1.046160e-03
8.043642e+01	-1.058279e-03
8.090102e+01	-1.070538e-03
8.136830e+01	-1.082939e-03
8.183828e+01	-1.095483e-03
8.231097e+01	-1.108173e-03
8.278640e+01	-1.121010e-03
8.326457e+01	-1.133996e-03
8.374550e+01	-1.147132e-03
8.422921e+01	-1.160420e-03
8.471572e+01	-1.173862e-03
8.520503e+01	-1.187459e-03
8.569717e+01	-1.201214e-03
8.619215e+01	-1.215129e-03
8.669000e+01	-1.229204e-03
8.719071e+01	-1.243443e-03
8.769432e+01	-1.257847e-03
8.820084e+01	-1.272417e-03
8.871029e+01	-1.287156e-03
8.922267e+01	-1.302066e-03
8.973802e+01	-1.317148e-03
9.025634e+01	-1.332406e-03
9.077766e+01	-1.347839e-03
9.130199e+01	-1.363452e-03
9.182935e+01	-1.379246e-03
9.235975e+01	-1.395222e-03
9.289321e+01	-1.411383e-03
9.342976e+01	-1.427732e-03
9.396941e+01	-1.444270e-03
9.451217e+01	-1.460999e-03
9.505807e+01	-1.477922e-03
9.560712e+01	-1.495042e-03
9.615934e+01	-1.512359e-03
9.671476e+01	-1.529877e-03
9.727338e+01	-1.547598e-03
9.783522e+01	-1.565524e-03
9.840032e+01	-1.583658e-03
9.896867e+01	-1.602001e-03
9.954031e+01	-1.620558e-03
1.001153e+02	-1.639329e-03
1.006935e+02	-1.658317e-03
1.012751e+02	-1.677525e-03
1.018601e+02	-1.696956e-03
1.024484e+02	-1.716612e-03
1.030402e+02	-1.736495e-03
1.036353e+02	-1.756609e-03
1.042339e+02	-1.776956e-03
1.048360e+02	-1.797538e-03
1.054415e+02	-1.818359e-03
1.060505e+02	-1.839420e-03
1.066631e+02	-1.860726e-03
1.072791e+02	-1.882278e-03
1.078988e+02	-1.904080e-03
1.085220e+02	-1.926134e-03
1.091488e+02	-1.948444e-03
1.097793e+02	-1.971012e-03
1.104133e+02	-1.993842e-03
1.110511e+02	-2.016936e-03
1.116925e+02	-2.040297e-03
1.123376e+02	-2.063929e-03
1.129865e+02	-2.087834e-03
1.136391e+02	-2.112016e-03
1.142955e+02	-2.136479e-03
1.149556e+02	-2.161224e-03
1.156196e+02	-2.186256e-03
1.162874e+02	-2.211578e-03
1.169591e+02	-2.237193e-03
1.176347e+02	-2.263105e-03
1.183141e+02	-2.289317e-03
1.189975e+02	-2.315832e-03
1.196848e+02	-2.342654e-03
1.203761e+02	-2.369787e-03
1.210714e+02	-2.397234e-03
1.217707e+02	-2.424999e-03
1.224740e+02	-2.453085e-03
1.231814e+02	-2.481497e-03
1.238929e+02	-2.510237e-03
1.246085e+02	-2.539310e-03
1.253283e+02	-2.568720e-03
1.260522e+02	-2.598471e-03
1.267802e+02	-2.628566e-03
1.275125e+02	-2.659009e-03
1.282490e+02	-2.689805e-03
1.289898e+02	-2.720957e-03
1.297348e+02	-2.752470e-03
1.304842e+02	-2.784348e-03
1.312378e+02	-2.816595e-03
1.319959e+02	-2.849215e-03
1.327583e+02	-2.882213e-03
1.335251e+02	-2.915593e-03
1.342963e+02	-2.949359e-03
1.350720e+02	-2.983517e-03
1.358522e+02	-3.018069e-03
1.366368e+02	-3.053022e-03
1.374260e+02	-3.088380e-03
1.382198e+02	-3.124147e-03
1.390182e+02	-3.160327e-03
1.398211e+02	-3.196927e-03
1.406287e+02	-3.233951e-03
1.414410e+02	-3.271403e-03
1.422579e+02	-3.309288e-03
1.430796e+02	-3.347612e-03
1.439060e+02	-3.386380e-03
1.447372e+02	-3.425597e-03
1.455732e+02	-3.465267e-03
1.464141e+02	-3.505397e-03
1.472597e+02	-3.545991e-03
1.481103e+02	-3.587056e-03
1.489658e+02	-3.628595e-03
1.498262e+02	-3.670616e-03
1.506916e+02	-3.713123e-03
1.515620e+02	-3.756121e-03
1.524374e+02	-3.799618e-03
1.533179e+02	-3.843618e-03
1.542034e+02	-3.888127e-03
1.550941e+02	-3.933152e-03
1.559899e+02	-3.978698e-03
1.568909e+02	-4.024770e-03
1.577971e+02	-4.071377e-03
1.587085e+02	-4.118522e-03
1.596252e+02	-4.166213e-03
1.605472e+02	-4.214457e-03
1.614745e+02	-4.263258e-03
1.624072e+02	-4.312624e-03
1.633453e+02	-4.362562e-03
1.642887e+02	-4.413078e-03
1.652377e+02	-4.464178e-03
1.661921e+02	-4.515870e-03
1.671520e+02	-4.568160e-03
1.681175e+02	-4.621055e-03
1.690885e+02	-4.674562e-03
1.700651e+02	-4.728689e-03
1.710474e+02	-4.783441e-03
1.720354e+02	-4.838828e-03
1.730291e+02	-4.894855e-03
1.740285e+02	-4.951531e-03
1.750337e+02	-5.008863e-03
1.760446e+02	-5.066858e-03
1.770615e+02	-5.125524e-03
1.780842e+02	-5.184869e-03
1.791128e+02	-5.244901e-03
1.801473e+02	-5.305627e-03
1.811878e+02	-5.367056e-03
1.822344e+02	-5.429196e-03
1.832870e+02	-5.492054e-03
1.843456e+02	-5.555640e-03
1.854104e+02	-5.619962e-03
1.864813e+02	-5.685028e-03
1.875584e+02	-5.750847e-03
1.886418e+02	-5.817427e-03
1.897313e+02	-5.884778e-03
1.908272e+02	-5.952908e-03
1.919294e+02	-6.021826e-03
1.930380e+02	-6.091541e-03
1.941530e+02	-6.162063e-03
1.952744e+02	-6.233401e-03
1.964023e+02	-6.305564e-03
1.975367e+02	-6.378561e-03
1.986777e+02	-6.452404e-03
1.998252e+02	-6.527100e-03
2.009794e+02	-6.602661e-03
2.021403e+02	-6.679095e-03
2.033078e+02	-6.756414e-03
2.044821e+02	-6.834627e-03
2.056632e+02	-6.913744e-03
2.068511e+02	-6.993777e-03
2.080459e+02	-7.074736e-03
2.092475e+02	-7.156631e-03
2.104561e+02	-7.239473e-03
2.116717e+02	-7.323273e-03
2.128943e+02	-7.408042e-03
2.141240e+02	-7.493792e-03
2.153608e+02	-7.580534e-03
2.166047e+02	-7.668278e-03
2.178558e+02	-7.757038e-03
2.191141e+02	-7.846824e-03
2.203797e+02	-7.937648e-03
2.216526e+02	-8.029522e-03
2.229329e+02	-8.122459e-03
2.242205e+02	-8.216470e-03
2.255156e+02	-8.311569e-03
2.268182e+02	-8.407767e-03
2.281283e+02	-8.505078e-03
2.294459e+02	-8.603513e-03
2.307712e+02	-8.703087e-03
2.321041e+02	-8.803812e-03
2.334447e+02	-8.905701e-03
2.347931e+02	-9.008769e-03
2.361493e+02	-9.113028e-03
2.375133e+02	-9.218492e-03
2.388851e+02	-9.325176e-03
2.402649e+02	-9.433093e-03
2.416527e+02	-9.542257e-03
2.430484e+02	-9.652683e-03
2.444523e+02	-9.764386e-03
2.458642e+02	-9.877380e-03
2.472843e+02	-9.991679e-03
2.487126e+02	-1.010730e-02
2.501492e+02	-1.022426e-02
2.515940e+02	-1.034257e-02
2.530472e+02	-1.046224e-02
2.545088e+02	-1.058330e-02
2.559789e+02	-1.070576e-02
2.574574e+02	-1.082964e-02
2.589444e+02	-1.095494e-02
2.604401e+02	-1.108169e-02
2.619444e+02	-1.120991e-02
2.634574e+02	-1.133961e-02
2.649791e+02	-1.147081e-02
2.665096e+02	-1.160352e-02
2.680489e+02	-1.173777e-02
2.695972e+02	-1.187357e-02
2.711544e+02	-1.201094e-02
2.727205e+02	-1.214989e-02
2.742958e+02	-1.229045e-02
2.758801e+02	-1.243263e-02
2.774736e+02	-1.257646e-02
2.790762e+02	-1.272195e-02
2.806882e+02	-1.286912e-02
2.823094e+02	-1.301798e-02
2.839400e+02	-1.316857e-02
2.855800e+02	-1.332090e-02
2.872295e+02	-1.347498e-02
2.888886e+02	-1.363085e-02
2.905572e+02	-1.378851e-02
2.922354e+02	-1.394800e-02
2.939234e+02	-1.410933e-02
2.956211e+02	-1.427252e-02
2.973286e+02	-1.443759e-02
2.990459e+02	-1.460457e-02
3.007732e+02	-1.477348e-02
3.025104e+02	-1.494434e-02
3.042577e+02	-1.511717e-02
3.060151e+02	-1.529200e-02
3.077826e+02	-1.546885e-02
3.095604e+02	-1.564773e-02
3.113484e+02	-1.582868e-02
3.131467e+02	-1.601172e-02
3.149554e+02	-1.619688e-02
3.167746e+02	-1.638417e-02
3.186043e+02	-1.657362e-02
3.204445e+02	-1.676525e-02
3.222954e+02	-1.695910e-02
3.241570e+02	-1.715519e-02
3.260293e+02	-1.735354e-02
3.279124e+02	-1.755418e-02
3.298064e+02	-1.775713e-02
3.317114e+02	-1.796242e-02
3.336273e+02	-1.817008e-02
3.355544e+02	-1.838014e-02
3.374925e+02	-1.859262e-02
3.394418e+02	-1.880756e-02
3.414024e+02	-1.902497e-02
3.433744e+02	-1.924489e-02
3.453577e+02	-1.946734e-02
3.473525e+02	-1.969236e-02
3.493588e+02	-1.991998e-02
3.513766e+02	-2.015022e-02
3.534062e+02	-2.038312e-02
3.554474e+02	-2.061870e-02
3.575005e+02	-2.085699e-02
3.595654e+02	-2.109804e-02
3.616422e+02	-2.134186e-02
3.637311e+02	-2.158850e-02
3.658320e+02	-2.183797e-02
3.679450e+02	-2.209033e-02
3.700702e+02	-2.234559e-02
3.722077e+02	-2.260379e-02
3.743576e+02	-2.286497e-02
3.765199e+02	-2.312916e-02
3.786946e+02	-2.339639e-02
3.808820e+02	-2.366670e-02
3.830819e+02	-2.394013e-02
3.852946e+02	-2.421671e-02
3.875200e+02	-2.449647e-02
3.897583e+02	-2.477946e-02
3.920096e+02	-2.506570e-02
3.942738e+02	-2.535524e-02
3.965511e+02	-2.564812e-02
3.988416e+02	-2.594437e-02
4.011452e+02	-2.624403e-02
4.034622e+02	-2.654714e-02
4.057926e+02	-2.685374e-02
4.081365e+02	-2.716387e-02
4.104938e+02	-2.747758e-02
4.128648e+02	-2.779489e-02
4.152495e+02	-2.811585e-02
4.176480e+02	-2.844051e-02
4.200603e+02	-2.876891e-02
4.224866e+02	-2.910108e-02
4.249268e+02	-2.943708e-02
4.273812e+02	-2.977694e-02
4.298497e+02	-3.012072e-02
4.323325e+02	-3.046845e-02
4.348297e+02	-3.082017e-02
4.373412e+02	-3.117595e-02
4.398673e+02	-3.153582e-02
4.424079e+02	-3.189982e-02
4.449633e+02	-3.226801e-02
4.475334e+02	-3.264043e-02
4.501183e+02	-3.301714e-02
4.527182e+02	-3.339818e-02
4.553330e+02	-3.378359e-02
4.579630e+02	-3.417344e-02
4.606082e+02	-3.456777e-02
4.632687e+02	-3.496663e-02
4.659445e+02	-3.537007e-02
4.686358e+02	-3.577815e-02
4.713426e+02	-3.619092e-02
4.740650e+02	-3.660843e-02
4.768032e+02	-3.703073e-02
4.795572e+02	-3.745789e-02
4.823271e+02	-3.788995e-02
4.851130e+02	-3.832697e-02
4.879150e+02	-3.876901e-02
4.907332e+02	-3.921613e-02
4.935676e+02	-3.966838e-02
4.964185e+02	-4.012582e-02
4.992858e+02	-4.058851e-02
5.021696e+02	-4.105651e-02
5.050701e+02	-4.152988e-02
5.079874e+02	-4.200868e-02
5.109215e+02	-4.249298e-02
5.138726e+02	-4.298283e-02
5.168407e+02	-4.347829e-02
5.198259e+02	-4.397945e-02
5.228284e+02	-4.448634e-02
5.258482e+02	-4.499905e-02
5.288855e+02	-4.551764e-02
5.319403e+02	-4.604217e-02
5.350128e+02	-4.657272e-02
5.381030e+02	-4.710934e-02
5.412111e+02	-4.765212e-02
5.443371e+02	-4.820111e-02
5.474812e+02	-4.875639e-02
5.506434e+02	-4.931803e-02
5.538239e+02	-4.988611e-02
5.570228e+02	-5.046069e-02
5.602401e+02	-5.104184e-02
5.634760e+02	-5.162966e-02
5.667306e+02	-5.222420e-02
5.700040e+02	-5.282554e-02
5.732964e+02	-5.343377e-02
5.766077e+02	-5.404895e-02
5.799382e+02	-5.467118e-02
5.832879e+02	-5.530052e-02
5.866569e+02	-5.593706e-02
5.900454e+02	-5.658088e-02
5.934535e+02	-5.723205e-02
5.968813e+02	-5.789068e-02
6.003288e+02	-5.855683e-02
6.037963e+02	-5.923059e-02
6.072838e+02	-5.991206e-02
6.107914e+02	-6.060130e-02
6.143194e+02	-6.129843e-02
6.178676e+02	-6.200351e-02
6.214364e+02	-6.271665e-02
6.250258e+02	-6.343792e-02
6.286359e+02	-6.416743e-02
6.322669e+02	-6.490527e-02
6.359189e+02	-6.565153e-02
6.395919e+02	-6.640630e-02
6.432862e+02	-6.716968e-02
6.470017e+02	-6.794177e-02
6.507388e+02	-6.872266e-02
6.544974e+02	-6.951245e-02
6.582778e+02	-7.031125e-02
6.620800e+02	-7.111915e-02
6.659041e+02	-7.193626e-02
6.697504e+02	-7.276268e-02
6.736188e+02	-7.359851e-02
6.775096e+02	-7.444386e-02
6.814229e+02	-7.529883e-02
6.853587e+02	-7.616354e-02
6.893173e+02	-7.703809e-02
6.932988e+02	-7.792259e-02
6.973033e+02	-7.881715e-02
7.013309e+02	-7.972189e-02
