Frequency(Hz)	Magnitude(dB)
1.000000e+01	-1.947551e+00
1.005776e+01	-1.965677e+00
1.011585e+01	-1.983851e+00
1.017428e+01	-2.002293e+00
1.023305e+01	-2.021104e+00
1.029215e+01	-2.039657e+00
1.035160e+01	-2.058383e+00
1.041139e+01	-2.077428e+00
1.047153e+01	-2.096468e+00
1.053201e+01	-2.115601e+00
1.059284e+01	-2.134863e+00
1.065403e+01	-2.154796e+00
1.071556e+01	-2.174175e+00
1.077746e+01	-2.193968e+00
1.083971e+01	-2.213835e+00
1.090232e+01	-2.234104e+00
1.096529e+01	-2.254316e+00
1.102862e+01	-2.274364e+00
1.109232e+01	-2.294976e+00
1.115639e+01	-2.315504e+00
1.122083e+01	-2.336077e+00
1.128564e+01	-2.357278e+00
1.135083e+01	-2.378161e+00
1.141639e+01	-2.399356e+00
1.148233e+01	-2.420569e+00
1.154865e+01	-2.442091e+00
1.161536e+01	-2.463690e+00
1.168245e+01	-2.485273e+00
1.174992e+01	-2.507287e+00
1.181779e+01	-2.529342e+00
1.188605e+01	-2.551476e+00
1.195470e+01	-2.573798e+00
1.202375e+01	-2.596059e+00
1.209320e+01	-2.618784e+00
1.216305e+01	-2.641502e+00
1.223330e+01	-2.664266e+00
1.230396e+01	-2.687610e+00
1.237503e+01	-2.710646e+00
1.244651e+01	-2.733869e+00
1.251840e+01	-2.757132e+00
1.259070e+01	-2.780756e+00
1.266343e+01	-2.804659e+00
1.273657e+01	-2.828413e+00
1.281014e+01	-2.852128e+00
1.288413e+01	-2.876558e+00
1.295855e+01	-2.901027e+00
1.303339e+01	-2.925290e+00
1.310867e+01	-2.949989e+00
1.318439e+01	-2.974598e+00
1.326054e+01	-2.999606e+00
1.333713e+01	-3.024707e+00
1.341417e+01	-3.049726e+00
1.349165e+01	-3.075232e+00
1.356958e+01	-3.100712e+00
1.364795e+01	-3.126156e+00
1.372678e+01	-3.151919e+00
1.380607e+01	-3.177677e+00
1.388581e+01	-3.203809e+00
1.396602e+01	-3.229883e+00
1.404668e+01	-3.256188e+00
1.412782e+01	-3.282763e+00
1.420942e+01	-3.309109e+00
1.429149e+01	-3.335909e+00
1.437404e+01	-3.362870e+00
1.445706e+01	-3.390121e+00
1.454057e+01	-3.417294e+00
1.462455e+01	-3.444543e+00
1.470902e+01	-3.471880e+00
1.479398e+01	-3.499538e+00
1.487943e+01	-3.527186e+00
1.496537e+01	-3.555084e+00
1.505181e+01	-3.583104e+00
1.513875e+01	-3.611523e+00
1.522619e+01	-3.639666e+00
1.531414e+01	-3.668291e+00
1.540259e+01	-3.696645e+00
1.549156e+01	-3.725463e+00
1.558103e+01	-3.754493e+00
1.567103e+01	-3.783464e+00
1.576155e+01	-3.812623e+00
1.585258e+01	-3.842009e+00
1.594415e+01	-3.871324e+00
1.603624e+01	-3.900878e+00
1.612886e+01	-3.930852e+00
1.622202e+01	-3.960613e+00
1.631572e+01	-3.990324e+00
1.640996e+01	-4.020736e+00
1.650474e+01	-4.050837e+00
1.660008e+01	-4.081348e+00
1.669596e+01	-4.112047e+00
1.679239e+01	-4.142579e+00
1.688938e+01	-4.173292e+00
1.698694e+01	-4.204320e+00
1.708505e+01	-4.235463e+00
1.718373e+01	-4.266953e+00
1.728299e+01	-4.297946e+00
1.738281e+01	-4.329201e+00
1.748322e+01	-4.360913e+00
1.758420e+01	-4.392744e+00
1.768576e+01	-4.424731e+00
1.778792e+01	-4.456727e+00
1.789066e+01	-4.488909e+00
1.799399e+01	-4.521054e+00
1.809793e+01	-4.553931e+00
1.820246e+01	-4.586510e+00
1.830760e+01	-4.619097e+00
1.841334e+01	-4.651696e+00
1.851969e+01	-4.684509e+00
1.862666e+01	-4.717566e+00
1.873425e+01	-4.750869e+00
1.884246e+01	-4.784451e+00
1.895129e+01	-4.817923e+00
1.906075e+01	-4.851299e+00
1.917085e+01	-4.885146e+00
1.928158e+01	-4.919048e+00
1.939295e+01	-4.953111e+00
1.950496e+01	-4.986869e+00
1.961762e+01	-5.020961e+00
1.973093e+01	-5.055847e+00
1.984490e+01	-5.090191e+00
1.995952e+01	-5.124433e+00
2.007480e+01	-5.159218e+00
2.019076e+01	-5.194324e+00
2.030738e+01	-5.229305e+00
2.042467e+01	-5.264327e+00
2.054264e+01	-5.299398e+00
2.066130e+01	-5.334653e+00
2.078064e+01	-5.370177e+00
2.090066e+01	-5.405628e+00
2.102139e+01	-5.441580e+00
2.114280e+01	-5.477196e+00
2.126492e+01	-5.513070e+00
2.138775e+01	-5.549066e+00
2.151128e+01	-5.585505e+00
2.163553e+01	-5.621754e+00
2.176050e+01	-5.657969e+00
2.188619e+01	-5.694308e+00
2.201260e+01	-5.730734e+00
2.213974e+01	-5.767506e+00
2.226762e+01	-5.804736e+00
2.239624e+01	-5.841401e+00
2.252560e+01	-5.878836e+00
2.265571e+01	-5.915580e+00
2.278656e+01	-5.952679e+00
2.291818e+01	-5.990356e+00
2.305055e+01	-6.027912e+00
2.318369e+01	-6.065309e+00
2.331760e+01	-6.102985e+00
2.345228e+01	-6.140935e+00
2.358774e+01	-6.178648e+00
2.372398e+01	-6.216590e+00
2.386101e+01	-6.255228e+00
2.399883e+01	-6.293475e+00
2.413745e+01	-6.331301e+00
2.427686e+01	-6.369871e+00
2.441709e+01	-6.408543e+00
2.455812e+01	-6.447031e+00
2.469997e+01	-6.486125e+00
2.484263e+01	-6.524619e+00
2.498612e+01	-6.563778e+00
2.513044e+01	-6.602931e+00
2.527559e+01	-6.641750e+00
2.542158e+01	-6.681344e+00
2.556842e+01	-6.720579e+00
2.571610e+01	-6.760023e+00
2.586463e+01	-6.799442e+00
2.601403e+01	-6.838880e+00
2.616428e+01	-6.878692e+00
2.631541e+01	-6.918401e+00
2.646740e+01	-6.958623e+00
2.662028e+01	-6.998543e+00
2.677404e+01	-7.038937e+00
2.692868e+01	-7.078824e+00
2.708422e+01	-7.119364e+00
2.724066e+01	-7.159226e+00
2.739800e+01	-7.199896e+00
2.755625e+01	-7.240069e+00
2.771541e+01	-7.280981e+00
2.787550e+01	-7.321681e+00
2.803650e+01	-7.362249e+00
2.819844e+01	-7.403694e+00
2.836131e+01	-7.444282e+00
2.852513e+01	-7.485321e+00
2.868989e+01	-7.526351e+00
2.885560e+01	-7.567671e+00
2.902227e+01	-7.609189e+00
2.918990e+01	-7.650443e+00
2.935850e+01	-7.692006e+00
2.952807e+01	-7.733525e+00
2.969863e+01	-7.775349e+00
2.987016e+01	-7.817114e+00
3.004269e+01	-7.858446e+00
3.021622e+01	-7.900459e+00
3.039075e+01	-7.942407e+00
3.056628e+01	-7.984807e+00
3.074283e+01	-8.026565e+00
3.092040e+01	-8.068788e+00
3.109900e+01	-8.111177e+00
3.127862e+01	-8.153122e+00
3.145929e+01	-8.195406e+00
3.164099e+01	-8.238258e+00
3.182375e+01	-8.280779e+00
3.200756e+01	-8.323366e+00
3.219244e+01	-8.365926e+00
3.237838e+01	-8.409107e+00
3.256540e+01	-8.451662e+00
3.275349e+01	-8.495052e+00
3.294268e+01	-8.537710e+00
3.313295e+01	-8.580612e+00
3.332433e+01	-8.624110e+00
3.351681e+01	-8.667156e+00
3.371040e+01	-8.710312e+00
3.390511e+01	-8.753600e+00
3.410094e+01	-8.797117e+00
3.429791e+01	-8.840452e+00
3.449601e+01	-8.883849e+00
3.469526e+01	-8.927366e+00
3.489566e+01	-8.971176e+00
3.509721e+01	-9.015288e+00
3.529993e+01	-9.058848e+00
3.550382e+01	-9.102217e+00
3.570889e+01	-9.146149e+00
3.591515e+01	-9.190366e+00
3.612259e+01	-9.234810e+00
3.633123e+01	-9.278398e+00
3.654108e+01	-9.322915e+00
3.675214e+01	-9.366976e+00
3.696442e+01	-9.411561e+00
3.717792e+01	-9.455575e+00
3.739266e+01	-9.499712e+00
3.760864e+01	-9.544013e+00
3.782587e+01	-9.588864e+00
3.804435e+01	-9.633152e+00
3.826409e+01	-9.678153e+00
3.848510e+01	-9.722962e+00
3.870739e+01	-9.767567e+00
3.893096e+01	-9.812301e+00
3.915583e+01	-9.856832e+00
3.938199e+01	-9.901593e+00
3.960946e+01	-9.946314e+00
3.983824e+01	-9.991944e+00
4.006834e+01	-1.003695e+01
4.029978e+01	-1.008232e+01
4.053255e+01	-1.012722e+01
4.076666e+01	-1.017223e+01
4.100213e+01	-1.021741e+01
4.123896e+01	-1.026280e+01
4.147715e+01	-1.030834e+01
4.171672e+01	-1.035320e+01
4.195767e+01	-1.039910e+01
4.220002e+01	-1.044436e+01
4.244377e+01	-1.049010e+01
4.268892e+01	-1.053578e+01
4.293549e+01	-1.058152e+01
4.318348e+01	-1.062691e+01
4.343291e+01	-1.067250e+01
4.368377e+01	-1.071845e+01
4.393609e+01	-1.076463e+01
4.418986e+01	-1.080999e+01
4.444510e+01	-1.085613e+01
4.470182e+01	-1.090179e+01
4.496001e+01	-1.094794e+01
4.521970e+01	-1.099364e+01
4.548089e+01	-1.103986e+01
4.574358e+01	-1.108659e+01
4.600779e+01	-1.113214e+01
4.627353e+01	-1.117826e+01
4.654081e+01	-1.122469e+01
4.680963e+01	-1.127078e+01
4.708000e+01	-1.131672e+01
4.735193e+01	-1.136369e+01
4.762543e+01	-1.140997e+01
4.790051e+01	-1.145667e+01
4.817719e+01	-1.150328e+01
4.845545e+01	-1.154911e+01
4.873533e+01	-1.159650e+01
4.901682e+01	-1.164282e+01
4.929994e+01	-1.168943e+01
4.958470e+01	-1.173622e+01
4.987110e+01	-1.178292e+01
5.015915e+01	-1.182868e+01
5.044887e+01	-1.187599e+01
5.074026e+01	-1.192233e+01
5.103333e+01	-1.196922e+01
5.132810e+01	-1.201637e+01
5.162457e+01	-1.206363e+01
5.192275e+01	-1.211048e+01
5.222265e+01	-1.215696e+01
5.252429e+01	-1.220456e+01
5.282767e+01	-1.225135e+01
5.313280e+01	-1.229819e+01
5.343969e+01	-1.234474e+01
5.374836e+01	-1.239277e+01
5.405880e+01	-1.243850e+01
5.437105e+01	-1.248731e+01
5.468509e+01	-1.253439e+01
5.500095e+01	-1.258142e+01
5.531863e+01	-1.262828e+01
5.563815e+01	-1.267595e+01
5.595951e+01	-1.272348e+01
5.628273e+01	-1.277129e+01
5.660782e+01	-1.281800e+01
5.693479e+01	-1.286606e+01
5.726364e+01	-1.291283e+01
5.759439e+01	-1.296085e+01
5.792705e+01	-1.300803e+01
5.826164e+01	-1.305571e+01
5.859815e+01	-1.310304e+01
5.893662e+01	-1.315143e+01
5.927703e+01	-1.319873e+01
5.961941e+01	-1.324625e+01
5.996377e+01	-1.329426e+01
6.031012e+01	-1.334054e+01
6.065847e+01	-1.338932e+01
6.100883e+01	-1.343717e+01
6.136121e+01	-1.348411e+01
6.171563e+01	-1.353220e+01
6.207210e+01	-1.358018e+01
6.243063e+01	-1.362719e+01
6.279122e+01	-1.367595e+01
6.315390e+01	-1.372479e+01
6.351868e+01	-1.377168e+01
6.388556e+01	-1.381897e+01
6.425456e+01	-1.386742e+01
6.462569e+01	-1.391518e+01
6.499897e+01	-1.396321e+01
6.537440e+01	-1.401131e+01
6.575200e+01	-1.405950e+01
6.613178e+01	-1.410718e+01
6.651375e+01	-1.415642e+01
6.689793e+01	-1.420433e+01
6.728433e+01	-1.425170e+01
6.767297e+01	-1.430079e+01
6.806384e+01	-1.434764e+01
6.845698e+01	-1.439683e+01
6.885238e+01	-1.444508e+01
6.925007e+01	-1.449273e+01
6.965005e+01	-1.454161e+01
7.005235e+01	-1.458954e+01
7.045697e+01	-1.463710e+01
7.086393e+01	-1.468623e+01
7.127323e+01	-1.473386e+01
7.168490e+01	-1.478284e+01
7.209895e+01	-1.483208e+01
7.251539e+01	-1.487931e+01
7.293424e+01	-1.492874e+01
7.335551e+01	-1.497653e+01
7.377920e+01	-1.502530e+01
7.420535e+01	-1.507338e+01
7.463396e+01	-1.512120e+01
7.506504e+01	-1.517045e+01
7.549861e+01	-1.521885e+01
7.593469e+01	-1.526660e+01
7.637328e+01	-1.531611e+01
7.681441e+01	-1.536527e+01
7.725809e+01	-1.541256e+01
7.770433e+01	-1.546149e+01
7.815315e+01	-1.551093e+01
7.860456e+01	-1.555963e+01
7.905857e+01	-1.560768e+01
7.951521e+01	-1.565622e+01
7.997449e+01	-1.570469e+01
8.043642e+01	-1.575420e+01
8.090102e+01	-1.580195e+01
8.136830e+01	-1.585077e+01
8.183828e+01	-1.589942e+01
8.231097e+01	-1.594844e+01
8.278640e+01	-1.599819e+01
8.326457e+01	-1.604735e+01
8.374550e+01	-1.609394e+01
8.422921e+01	-1.614316e+01
8.471572e+01	-1.619262e+01
8.520503e+01	-1.624229e+01
8.569717e+01	-1.628963e+01
8.619215e+01	-1.633916e+01
8.669000e+01	-1.638886e+01
8.719071e+01	-1.643658e+01
8.769432e+01	-1.648548e+01
8.820084e+01	-1.653514e+01
8.871029e+01	-1.658201e+01
8.922267e+01	-1.663167e+01
8.973802e+01	-1.668221e+01
9.025634e+01	-1.673123e+01
9.077766e+01	-1.677973e+01
9.130199e+01	-1.682800e+01
9.182935e+01	-1.687624e+01
9.235975e+01	-1.692621e+01
9.289321e+01	-1.697573e+01
9.342976e+01	-1.702357e+01
9.396941e+01	-1.707447e+01
9.451217e+01	-1.712331e+01
9.505807e+01	-1.717177e+01
9.560712e+01	-1.722123e+01
9.615934e+01	-1.726899e+01
9.671476e+01	-1.731836e+01
9.727338e+01	-1.736830e+01
9.783522e+01	-1.741732e+01
9.840032e+01	-1.746662e+01
9.896867e+01	-1.751567e+01
9.954031e+01	-1.756446e+01
1.001153e+02	-1.761372e+01
1.006935e+02	-1.766271e+01
1.012751e+02	-1.771258e+01
1.018601e+02	-1.776176e+01
1.024484e+02	-1.781084e+01
1.030402e+02	-1.785974e+01
1.036353e+02	-1.790814e+01
1.042339e+02	-1.795779e+01
1.048360e+02	-1.800746e+01
1.054415e+02	-1.805769e+01
1.060505e+02	-1.810654e+01
1.066631e+02	-1.815385e+01
1.072791e+02	-1.820330e+01
1.078988e+02	-1.825407e+01
1.085220e+02	-1.830187e+01
1.091488e+02	-1.835221e+01
1.097793e+02	-1.840183e+01
1.104133e+02	-1.845086e+01
1.110511e+02	-1.850068e+01
1.116925e+02	-1.854863e+01
1.123376e+02	-1.859881e+01
1.129865e+02	-1.864670e+01
1.136391e+02	-1.869832e+01
1.142955e+02	-1.874660e+01
1.149556e+02	-1.879663e+01
1.156196e+02	-1.884433e+01
1.162874e+02	-1.889487e+01
1.169591e+02	-1.894599e+01
1.176347e+02	-1.899307e+01
1.183141e+02	-1.904182e+01
1.189975e+02	-1.909376e+01
1.196848e+02	-1.914096e+01
1.203761e+02	-1.919172e+01
1.210714e+02	-1.924085e+01
1.217707e+02	-1.929045e+01
1.224740e+02	-1.933981e+01
1.231814e+02	-1.938916e+01
1.238929e+02	-1.943841e+01
1.246085e+02	-1.948925e+01
1.253283e+02	-1.953773e+01
1.260522e+02	-1.958640e+01
1.267802e+02	-1.963672e+01
1.275125e+02	-1.968671e+01
1.282490e+02	-1.973674e+01
1.289898e+02	-1.978391e+01
1.297348e+02	-1.983330e+01
1.304842e+02	-1.988478e+01
1.312378e+02	-1.993295e+01
1.319959e+02	-1.998172e+01
1.327583e+02	-2.003315e+01
1.335251e+02	-2.008204e+01
1.342963e+02	-2.013278e+01
1.350720e+02	-2.018112e+01
1.358522e+02	-2.023114e+01
1.366368e+02	-2.028014e+01
1.374260e+02	-2.032989e+01
1.382198e+02	-2.037982e+01
1.390182e+02	-2.043182e+01
1.398211e+02	-2.047998e+01
1.406287e+02	-2.052827e+01
1.414410e+02	-2.057853e+01
1.422579e+02	-2.062845e+01
1.430796e+02	-2.067765e+01
1.439060e+02	-2.072614e+01
1.447372e+02	-2.077584e+01
1.455732e+02	-2.082628e+01
1.464141e+02	-2.087549e+01
1.472597e+02	-2.092493e+01
1.481103e+02	-2.097660e+01
1.489658e+02	-2.102515e+01
1.498262e+02	-2.107475e+01
1.506916e+02	-2.112489e+01
1.515620e+02	-2.117361e+01
1.524374e+02	-2.122211e+01
1.533179e+02	-2.127253e+01
1.542034e+02	-2.132213e+01
1.550941e+02	-2.137385e+01
1.559899e+02	-2.142024e+01
1.568909e+02	-2.147190e+01
1.577971e+02	-2.152132e+01
1.587085e+02	-2.157154e+01
1.596252e+02	-2.161997e+01
1.605472e+02	-2.167143e+01
1.614745e+02	-2.171967e+01
1.624072e+02	-2.176875e+01
1.633453e+02	-2.181932e+01
1.642887e+02	-2.187059e+01
1.652377e+02	-2.192010e+01
1.661921e+02	-2.196781e+01
1.671520e+02	-2.201780e+01
1.681175e+02	-2.206693e+01
1.690885e+02	-2.211769e+01
1.700651e+02	-2.216912e+01
1.710474e+02	-2.221793e+01
1.720354e+02	-2.226795e+01
1.730291e+02	-2.231694e+01
1.740285e+02	-2.236623e+01
1.750337e+02	-2.241722e+01
1.760446e+02	-2.246725e+01
1.770615e+02	-2.251624e+01
1.780842e+02	-2.256492e+01
1.791128e+02	-2.261326e+01
1.801473e+02	-2.266628e+01
1.811878e+02	-2.271358e+01
1.822344e+02	-2.276496e+01
1.832870e+02	-2.281444e+01
1.843456e+02	-2.286358e+01
1.854104e+02	-2.291485e+01
1.864813e+02	-2.296434e+01
1.875584e+02	-2.301460e+01
1.886418e+02	-2.306460e+01
1.897313e+02	-2.311322e+01
1.908272e+02	-2.316284e+01
1.919294e+02	-2.321346e+01
1.930380e+02	-2.326427e+01
1.941530e+02	-2.331395e+01
1.952744e+02	-2.336334e+01
1.964023e+02	-2.341348e+01
1.975367e+02	-2.346279e+01
1.986777e+02	-2.351142e+01
1.998252e+02	-2.356195e+01
2.009794e+02	-2.361340e+01
2.021403e+02	-2.366308e+01
2.033078e+02	-2.371199e+01
2.044821e+02	-2.376030e+01
2.056632e+02	-2.381118e+01
2.068511e+02	-2.385898e+01
2.080459e+02	-2.390957e+01
2.092475e+02	-2.396182e+01
2.104561e+02	-2.401276e+01
2.116717e+02	-2.406024e+01
2.128943e+02	-2.411154e+01
2.141240e+02	-2.416072e+01
2.153608e+02	-2.421022e+01
2.166047e+02	-2.426063e+01
2.178558e+02	-2.431136e+01
2.191141e+02	-2.436034e+01
2.203797e+02	-2.441087e+01
2.216526e+02	-2.446045e+01
2.229329e+02	-2.450986e+01
2.242205e+02	-2.455744e+01
2.255156e+02	-2.460953e+01
2.268182e+02	-2.465820e+01
2.281283e+02	-2.471092e+01
2.294459e+02	-2.475539e+01
2.307712e+02	-2.480840e+01
2.321041e+02	-2.485752e+01
2.334447e+02	-2.490829e+01
2.347931e+02	-2.495922e+01
2.361493e+02	-2.500922e+01
2.375133e+02	-2.505702e+01
2.388851e+02	-2.510914e+01
2.402649e+02	-2.515685e+01
2.416527e+02	-2.520711e+01
2.430484e+02	-2.525851e+01
2.444523e+02	-2.530564e+01
2.458642e+02	-2.535850e+01
2.472843e+02	-2.540514e+01
2.487126e+02	-2.546031e+01
2.501492e+02	-2.550942e+01
2.515940e+02	-2.555806e+01
2.530472e+02	-2.560693e+01
2.545088e+02	-2.565755e+01
2.559789e+02	-2.570842e+01
2.574574e+02	-2.575751e+01
2.589444e+02	-2.580649e+01
2.604401e+02	-2.585626e+01
2.619444e+02	-2.590689e+01
2.634574e+02	-2.595769e+01
2.649791e+02	-2.600693e+01
2.665096e+02	-2.605832e+01
2.680489e+02	-2.610540e+01
2.695972e+02	-2.615744e+01
2.711544e+02	-2.620826e+01
2.727205e+02	-2.625653e+01
2.742958e+02	-2.630815e+01
2.758801e+02	-2.635383e+01
2.774736e+02	-2.640254e+01
2.790762e+02	-2.645743e+01
2.806882e+02	-2.650745e+01
2.823094e+02	-2.655339e+01
2.839400e+02	-2.660704e+01
2.855800e+02	-2.665767e+01
2.872295e+02	-2.670781e+01
2.888886e+02	-2.675714e+01
2.905572e+02	-2.680721e+01
2.922354e+02	-2.685929e+01
2.939234e+02	-2.690492e+01
2.956211e+02	-2.695286e+01
2.973286e+02	-2.700842e+01
2.990459e+02	-2.705999e+01
3.007732e+02	-2.710838e+01
3.025104e+02	-2.715594e+01
3.042577e+02	-2.720678e+01
3.060151e+02	-2.725489e+01
3.077826e+02	-2.730667e+01
3.095604e+02	-2.735711e+01
3.113484e+02	-2.740718e+01
3.131467e+02	-2.745426e+01
3.149554e+02	-2.751008e+01
3.167746e+02	-2.755424e+01
3.186043e+02	-2.760448e+01
3.204445e+02	-2.765352e+01
3.222954e+02	-2.770776e+01
3.241570e+02	-2.775981e+01
3.260293e+02	-2.780761e+01
3.279124e+02	-2.785422e+01
3.298064e+02	-2.790287e+01
3.317114e+02	-2.795660e+01
3.336273e+02	-2.800697e+01
3.355544e+02	-2.805993e+01
3.374925e+02	-2.810631e+01
3.394418e+02	-2.815456e+01
3.414024e+02	-2.820602e+01
3.433744e+02	-2.825464e+01
3.453577e+02	-2.830687e+01
3.473525e+02	-2.835867e+01
3.493588e+02	-2.841010e+01
3.513766e+02	-2.846083e+01
3.534062e+02	-2.850935e+01
3.554474e+02	-2.855725e+01
3.575005e+02	-2.860947e+01
3.595654e+02	-2.866076e+01
3.616422e+02	-2.870745e+01
3.637311e+02	-2.875937e+01
3.658320e+02	-2.880806e+01
3.679450e+02	-2.885467e+01
3.700702e+02	-2.891246e+01
3.722077e+02	-2.895620e+01
3.743576e+02	-2.900958e+01
3.765199e+02	-2.905809e+01
3.786946e+02	-2.910916e+01
3.808820e+02	-2.915907e+01
3.830819e+02	-2.920950e+01
3.852946e+02	-2.925709e+01
3.875200e+02	-2.930607e+01
3.897583e+02	-2.936002e+01
3.920096e+02	-2.940858e+01
3.942738e+02	-2.946376e+01
3.965511e+02	-2.951340e+01
3.988416e+02	-2.956114e+01
4.011452e+02	-2.961242e+01
4.034622e+02	-2.965965e+01
4.057926e+02	-2.970824e+01
4.081365e+02	-2.975604e+01
4.104938e+02	-2.981012e+01
4.128648e+02	-2.985858e+01
4.152495e+02	-2.990989e+01
4.176480e+02	-2.996045e+01
4.200603e+02	-3.001092e+01
4.224866e+02	-3.005391e+01
4.249268e+02	-3.011478e+01
4.273812e+02	-3.016066e+01
4.298497e+02	-3.021033e+01
4.323325e+02	-3.025875e+01
4.348297e+02	-3.030847e+01
4.373412e+02	-3.036101e+01
4.398673e+02	-3.040972e+01
4.424079e+02	-3.045930e+01
4.449633e+02	-3.051308e+01
4.475334e+02	-3.056281e+01
4.501183e+02	-3.061481e+01
4.527182e+02	-3.066091e+01
4.553330e+02	-3.071157e+01
4.579630e+02	-3.076144e+01
4.606082e+02	-3.081244e+01
4.632687e+02	-3.086112e+01
4.659445e+02	-3.091362e+01
4.686358e+02	-3.096226e+01
4.713426e+02	-3.101098e+01
4.740650e+02	-3.106469e+01
4.768032e+02	-3.111514e+01
4.795572e+02	-3.116599e+01
4.823271e+02	-3.121261e+01
4.851130e+02	-3.126326e+01
4.879150e+02	-3.131526e+01
4.907332e+02	-3.136665e+01
4.935676e+02	-3.141386e+01
4.964185e+02	-3.146830e+01
4.992858e+02	-3.151797e+01
5.021696e+02	-3.156271e+01
5.050701e+02	-3.161288e+01
5.079874e+02	-3.165926e+01
5.109215e+02	-3.171759e+01
5.138726e+02	-3.177022e+01
5.168407e+02	-3.181859e+01
5.198259e+02	-3.186224e+01
5.228284e+02	-3.191440e+01
5.258482e+02	-3.196282e+01
5.288855e+02	-3.201829e+01
5.319403e+02	-3.206094e+01
5.350128e+02	-3.211924e+01
5.381030e+02	-3.216344e+01
5.412111e+02	-3.222233e+01
5.443371e+02	-3.226715e+01
5.474812e+02	-3.231782e+01
5.506434e+02	-3.236226e+01
5.538239e+02	-3.241050e+01
5.570228e+02	-3.246143e+01
5.602401e+02	-3.251149e+01
5.634760e+02	-3.256527e+01
5.667306e+02	-3.262220e+01
5.700040e+02	-3.266376e+01
5.732964e+02	-3.271701e+01
5.766077e+02	-3.277099e+01
5.799382e+02	-3.282138e+01
5.832879e+02	-3.287044e+01
5.866569e+02	-3.292203e+01
5.900454e+02	-3.297209e+01
5.934535e+02	-3.302584e+01
5.968813e+02	-3.307673e+01
6.003288e+02	-3.312729e+01
6.037963e+02	-3.317562e+01
6.072838e+02	-3.322140e+01
6.107914e+02	-3.327205e+01
6.143194e+02	-3.331705e+01
6.178676e+02	-3.337330e+01
6.214364e+02	-3.341913e+01
6.250258e+02	-3.346769e+01
6.286359e+02	-3.351912e+01
6.322669e+02	-3.358041e+01
6.359189e+02	-3.362436e+01
6.395919e+02	-3.366808e+01
6.432862e+02	-3.372324e+01
6.470017e+02	-3.377400e+01
6.507388e+02	-3.382401e+01
6.544974e+02	-3.387243e+01
6.582778e+02	-3.393734e+01
6.620800e+02	-3.397774e+01
6.659041e+02	-3.403685e+01
6.697504e+02	-3.407322e+01
6.736188e+02	-3.412658e+01
6.775096e+02	-3.417543e+01
6.814229e+02	-3.423416e+01
6.853587e+02	-3.428166e+01
6.893173e+02	-3.432698e+01
6.932988e+02	-3.437385e+01
6.973033e+02	-3.443759e+01
7.013309e+02	-3.447888e+01
