Frequency(Hz)	Magnitude(dB)
1.000000e+01	-1.756572e-05
1.005776e+01	-1.776923e-05
1.011585e+01	-1.797509e-05
1.017428e+01	-1.818333e-05
1.023305e+01	-1.839399e-05
1.029215e+01	-1.860709e-05
1.035160e+01	-1.882266e-05
1.041139e+01	-1.904072e-05
1.047153e+01	-1.926132e-05
1.053201e+01	-1.948446e-05
1.059284e+01	-1.971020e-05
1.065403e+01	-1.993854e-05
1.071556e+01	-2.016954e-05
1.077746e+01	-2.040320e-05
1.083971e+01	-2.063958e-05
1.090232e+01	-2.087870e-05
1.096529e+01	-2.112058e-05
1.102862e+01	-2.136527e-05
1.109232e+01	-2.161279e-05
1.115639e+01	-2.186318e-05
1.122083e+01	-2.211647e-05
1.128564e+01	-2.237269e-05
1.135083e+01	-2.263189e-05
1.141639e+01	-2.289408e-05
1.148233e+01	-2.315932e-05
1.154865e+01	-2.342762e-05
1.161536e+01	-2.369904e-05
1.168245e+01	-2.397360e-05
1.174992e+01	-2.425134e-05
1.181779e+01	-2.453230e-05
1.188605e+01	-2.481651e-05
1.195470e+01	-2.510401e-05
1.202375e+01	-2.539485e-05
1.209320e+01	-2.568906e-05
1.216305e+01	-2.598667e-05
1.223330e+01	-2.628773e-05
1.230396e+01	-2.659228e-05
1.237503e+01	-2.690036e-05
1.244651e+01	-2.721201e-05
1.251840e+01	-2.752727e-05
1.259070e+01	-2.784618e-05
1.266343e+01	-2.816878e-05
1.273657e+01	-2.849512e-05
1.281014e+01	-2.882525e-05
1.288413e+01	-2.915919e-05
1.295855e+01	-2.949701e-05
1.303339e+01	-2.983874e-05
1.310867e+01	-3.018443e-05
1.318439e+01	-3.053412e-05
1.326054e+01	-3.088787e-05
1.333713e+01	-3.124571e-05
1.341417e+01	-3.160770e-05
1.349165e+01	-3.197388e-05
1.356958e+01	-3.234431e-05
1.364795e+01	-3.271902e-05
1.372678e+01	-3.309808e-05
1.380607e+01	-3.348153e-05
1.388581e+01	-3.386942e-05
1.396602e+01	-3.426181e-05
1.404668e+01	-3.465874e-05
1.412782e+01	-3.506027e-05
1.420942e+01	-3.546645e-05
1.429149e+01	-3.587734e-05
1.437404e+01	-3.629298e-05
1.445706e+01	-3.671344e-05
1.454057e+01	-3.713878e-05
1.462455e+01	-3.756904e-05
1.470902e+01	-3.800429e-05
1.479398e+01	-3.844457e-05
1.487943e+01	-3.888996e-05
1.496537e+01	-3.934051e-05
1.505181e+01	-3.979628e-05
1.513875e+01	-4.025733e-05
1.522619e+01	-4.072372e-05
1.531414e+01	-4.119551e-05
1.540259e+01	-4.167277e-05
1.549156e+01	-4.215556e-05
1.558103e+01	-4.264394e-05
1.567103e+01	-4.313798e-05
1.576155e+01	-4.363775e-05
1.585258e+01	-4.414330e-05
1.594415e+01	-4.465471e-05
1.603624e+01	-4.517204e-05
1.612886e+01	-4.569537e-05
1.622202e+01	-4.622476e-05
1.631572e+01	-4.676029e-05
1.640996e+01	-4.730201e-05
1.650474e+01	-4.785002e-05
1.660008e+01	-4.840437e-05
1.669596e+01	-4.896515e-05
1.679239e+01	-4.953242e-05
1.688938e+01	-5.010626e-05
1.698694e+01	-5.068675e-05
1.708505e+01	-5.127397e-05
1.718373e+01	-5.186799e-05
1.728299e+01	-5.246889e-05
1.738281e+01	-5.307675e-05
1.748322e+01	-5.369166e-05
1.758420e+01	-5.431369e-05
1.768576e+01	-5.494292e-05
1.778792e+01	-5.557945e-05
1.789066e+01	-5.622335e-05
1.799399e+01	-5.687471e-05
1.809793e+01	-5.753361e-05
1.820246e+01	-5.820015e-05
1.830760e+01	-5.887441e-05
1.841334e+01	-5.955648e-05
1.851969e+01	-6.024646e-05
1.862666e+01	-6.094442e-05
1.873425e+01	-6.165048e-05
1.884246e+01	-6.236471e-05
1.895129e+01	-6.308722e-05
1.906075e+01	-6.381809e-05
1.917085e+01	-6.455744e-05
1.928158e+01	-6.530535e-05
1.939295e+01	-6.606193e-05
1.950496e+01	-6.682726e-05
1.961762e+01	-6.760147e-05
1.973093e+01	-6.838465e-05
1.984490e+01	-6.917690e-05
1.995952e+01	-6.997832e-05
2.007480e+01	-7.078904e-05
2.019076e+01	-7.160914e-05
2.030738e+01	-7.243874e-05
2.042467e+01	-7.327796e-05
2.054264e+01	-7.412690e-05
2.066130e+01	-7.498567e-05
2.078064e+01	-7.585439e-05
2.090066e+01	-7.673318e-05
2.102139e+01	-7.762215e-05
2.114280e+01	-7.852141e-05
2.126492e+01	-7.943110e-05
2.138775e+01	-8.035132e-05
2.151128e+01	-8.128221e-05
2.163553e+01	-8.222387e-05
2.176050e+01	-8.317645e-05
2.188619e+01	-8.414006e-05
2.201260e+01	-8.511484e-05
2.213974e+01	-8.610091e-05
2.226762e+01	-8.709840e-05
2.239624e+01	-8.810745e-05
2.252560e+01	-8.912819e-05
2.265571e+01	-9.016076e-05
2.278656e+01	-9.120528e-05
2.291818e+01	-9.226191e-05
2.305055e+01	-9.333078e-05
2.318369e+01	-9.441203e-05
2.331760e+01	-9.550581e-05
2.345228e+01	-9.661226e-05
2.358774e+01	-9.773152e-05
2.372398e+01	-9.886376e-05
2.386101e+01	-1.000091e-04
2.399883e+01	-1.011677e-04
2.413745e+01	-1.023398e-04
2.427686e+01	-1.035254e-04
2.441709e+01	-1.047247e-04
2.455812e+01	-1.059380e-04
2.469997e+01	-1.071653e-04
2.484263e+01	-1.084068e-04
2.498612e+01	-1.096627e-04
2.513044e+01	-1.109332e-04
2.527559e+01	-1.122184e-04
2.542158e+01	-1.135184e-04
2.556842e+01	-1.148336e-04
2.571610e+01	-1.161639e-04
2.586463e+01	-1.175097e-04
2.601403e+01	-1.188711e-04
2.616428e+01	-1.202482e-04
2.631541e+01	-1.216413e-04
2.646740e+01	-1.230505e-04
2.662028e+01	-1.244761e-04
2.677404e+01	-1.259181e-04
2.692868e+01	-1.273769e-04
2.708422e+01	-1.288526e-04
2.724066e+01	-1.303454e-04
2.739800e+01	-1.318554e-04
2.755625e+01	-1.333830e-04
2.771541e+01	-1.349282e-04
2.787550e+01	-1.364914e-04
2.803650e+01	-1.380727e-04
2.819844e+01	-1.396722e-04
2.836131e+01	-1.412904e-04
2.852513e+01	-1.429272e-04
2.868989e+01	-1.445830e-04
2.885560e+01	-1.462580e-04
2.902227e+01	-1.479525e-04
2.918990e+01	-1.496665e-04
2.935850e+01	-1.514004e-04
2.952807e+01	-1.531544e-04
2.969863e+01	-1.549287e-04
2.987016e+01	-1.567235e-04
3.004269e+01	-1.585392e-04
3.021622e+01	-1.603759e-04
3.039075e+01	-1.622339e-04
3.056628e+01	-1.641133e-04
3.074283e+01	-1.660146e-04
3.092040e+01	-1.679379e-04
3.109900e+01	-1.698835e-04
3.127862e+01	-1.718516e-04
3.145929e+01	-1.738425e-04
3.164099e+01	-1.758565e-04
3.182375e+01	-1.778938e-04
3.200756e+01	-1.799547e-04
3.219244e+01	-1.820394e-04
3.237838e+01	-1.841484e-04
3.256540e+01	-1.862817e-04
3.275349e+01	-1.884398e-04
3.294268e+01	-1.906229e-04
3.313295e+01	-1.928313e-04
3.332433e+01	-1.950652e-04
3.351681e+01	-1.973251e-04
3.371040e+01	-1.996111e-04
3.390511e+01	-2.019236e-04
3.410094e+01	-2.042629e-04
3.429791e+01	-2.066292e-04
3.449601e+01	-2.090230e-04
3.469526e+01	-2.114446e-04
3.489566e+01	-2.138942e-04
3.509721e+01	-2.163721e-04
3.529993e+01	-2.188788e-04
3.550382e+01	-2.214145e-04
3.570889e+01	-2.239796e-04
3.591515e+01	-2.265744e-04
3.612259e+01	-2.291992e-04
3.633123e+01	-2.318545e-04
3.654108e+01	-2.345405e-04
3.675214e+01	-2.372577e-04
3.696442e+01	-2.400063e-04
3.717792e+01	-2.427867e-04
3.739266e+01	-2.455994e-04
3.760864e+01	-2.484447e-04
3.782587e+01	-2.513229e-04
3.804435e+01	-2.542345e-04
3.826409e+01	-2.571797e-04
3.848510e+01	-2.601592e-04
3.870739e+01	-2.631731e-04
3.893096e+01	-2.662219e-04
3.915583e+01	-2.693061e-04
3.938199e+01	-2.724260e-04
3.960946e+01	-2.755820e-04
3.983824e+01	-2.787746e-04
4.006834e+01	-2.820042e-04
4.029978e+01	-2.852712e-04
4.053255e+01	-2.885760e-04
4.076666e+01	-2.919191e-04
4.100213e+01	-2.953010e-04
4.123896e+01	-2.987220e-04
4.147715e+01	-3.021826e-04
4.171672e+01	-3.056834e-04
4.195767e+01	-3.092247e-04
4.220002e+01	-3.128070e-04
4.244377e+01	-3.164308e-04
4.268892e+01	-3.200966e-04
4.293549e+01	-3.238049e-04
4.318348e+01	-3.275561e-04
4.343291e+01	-3.313508e-04
4.368377e+01	-3.351895e-04
4.393609e+01	-3.390726e-04
4.418986e+01	-3.430007e-04
4.444510e+01	-3.469743e-04
4.470182e+01	-3.509939e-04
4.496001e+01	-3.550601e-04
4.521970e+01	-3.591734e-04
4.548089e+01	-3.633343e-04
4.574358e+01	-3.675435e-04
4.600779e+01	-3.718014e-04
4.627353e+01	-3.761086e-04
4.654081e+01	-3.804658e-04
4.680963e+01	-3.848734e-04
4.708000e+01	-3.893320e-04
4.735193e+01	-3.938424e-04
4.762543e+01	-3.984049e-04
4.790051e+01	-4.030203e-04
4.817719e+01	-4.076892e-04
4.845545e+01	-4.124122e-04
4.873533e+01	-4.171899e-04
4.901682e+01	-4.220229e-04
4.929994e+01	-4.269119e-04
4.958470e+01	-4.318576e-04
4.987110e+01	-4.368605e-04
5.015915e+01	-4.419214e-04
5.044887e+01	-4.470409e-04
5.074026e+01	-4.522197e-04
5.103333e+01	-4.574585e-04
5.132810e+01	-4.627580e-04
5.162457e+01	-4.681189e-04
5.192275e+01	-4.735419e-04
5.222265e+01	-4.790277e-04
5.252429e+01	-4.845771e-04
5.282767e+01	-4.901907e-04
5.313280e+01	-4.958694e-04
5.343969e+01	-5.016139e-04
5.374836e+01	-5.074249e-04
5.405880e+01	-5.133032e-04
5.437105e+01	-5.192496e-04
5.468509e+01	-5.252649e-04
5.500095e+01	-5.313498e-04
5.531863e+01	-5.375053e-04
5.563815e+01	-5.437320e-04
5.595951e+01	-5.500309e-04
5.628273e+01	-5.564028e-04
5.660782e+01	-5.628484e-04
5.693479e+01	-5.693688e-04
5.726364e+01	-5.759646e-04
5.759439e+01	-5.826369e-04
5.792705e+01	-5.893864e-04
5.826164e+01	-5.962142e-04
5.859815e+01	-6.031210e-04
5.893662e+01	-6.101078e-04
5.927703e+01	-6.171756e-04
5.961941e+01	-6.243252e-04
5.996377e+01	-6.315577e-04
6.031012e+01	-6.388739e-04
6.065847e+01	-6.462749e-04
6.100883e+01	-6.537616e-04
6.136121e+01	-6.613350e-04
6.171563e+01	-6.689962e-04
6.207210e+01	-6.767461e-04
6.243063e+01	-6.845858e-04
6.279122e+01	-6.925162e-04
6.315390e+01	-7.005386e-04
6.351868e+01	-7.086539e-04
6.388556e+01	-7.168631e-04
6.425456e+01	-7.251675e-04
6.462569e+01	-7.335680e-04
6.499897e+01	-7.420659e-04
6.537440e+01	-7.506622e-04
6.575200e+01	-7.593581e-04
6.613178e+01	-7.681547e-04
6.651375e+01	-7.770532e-04
6.689793e+01	-7.860547e-04
6.728433e+01	-7.951605e-04
6.767297e+01	-8.043718e-04
6.806384e+01	-8.136898e-04
6.845698e+01	-8.231158e-04
6.885238e+01	-8.326509e-04
6.925007e+01	-8.422964e-04
6.965005e+01	-8.520537e-04
7.005235e+01	-8.619240e-04
7.045697e+01	-8.719086e-04
7.086393e+01	-8.820089e-04
7.127323e+01	-8.922261e-04
7.168490e+01	-9.025618e-04
7.209895e+01	-9.130171e-04
7.251539e+01	-9.235935e-04
7.293424e+01	-9.342924e-04
7.335551e+01	-9.451153e-04
7.377920e+01	-9.560635e-04
7.420535e+01	-9.671385e-04
7.463396e+01	-9.783418e-04
7.506504e+01	-9.896749e-04
7.549861e+01	-1.001139e-03
7.593469e+01	-1.012736e-03
7.637328e+01	-1.024468e-03
7.681441e+01	-1.036335e-03
7.725809e+01	-1.048340e-03
7.770433e+01	-1.060484e-03
7.815315e+01	-1.072768e-03
7.860456e+01	-1.085195e-03
7.905857e+01	-1.097766e-03
7.951521e+01	-1.110482e-03
7.997449e+01	-1.123345e-03
8.043642e+01	-1.136358e-03
8.090102e+01	-1.149521e-03
8.136830e+01	-1.162837e-03
8.183828e+01	-1.176307e-03
8.231097e+01	-1.189933e-03
8.278640e+01	-1.203717e-03
8.326457e+01	-1.217660e-03
8.374550e+01	-1.231765e-03
8.422921e+01	-1.246033e-03
8.471572e+01	-1.260467e-03
8.520503e+01	-1.275068e-03
8.569717e+01	-1.289837e-03
8.619215e+01	-1.304778e-03
8.669000e+01	-1.319892e-03
8.719071e+01	-1.335181e-03
8.769432e+01	-1.350647e-03
8.820084e+01	-1.366292e-03
8.871029e+01	-1.382119e-03
8.922267e+01	-1.398128e-03
8.973802e+01	-1.414323e-03
9.025634e+01	-1.430706e-03
9.077766e+01	-1.447278e-03
9.130199e+01	-1.464043e-03
9.182935e+01	-1.481001e-03
9.235975e+01	-1.498156e-03
9.289321e+01	-1.515509e-03
9.342976e+01	-1.533064e-03
9.396941e+01	-1.550822e-03
9.451217e+01	-1.568785e-03
9.505807e+01	-1.586957e-03
9.560712e+01	-1.605339e-03
9.615934e+01	-1.623933e-03
9.671476e+01	-1.642743e-03
9.727338e+01	-1.661771e-03
9.783522e+01	-1.681020e-03
9.840032e+01	-1.700491e-03
9.896867e+01	-1.720188e-03
9.954031e+01	-1.740113e-03
1.001153e+02	-1.760268e-03
1.006935e+02	-1.780657e-03
1.012751e+02	-1.801282e-03
1.018601e+02	-1.822146e-03
1.024484e+02	-1.843252e-03
1.030402e+02	-1.864602e-03
1.036353e+02	-1.886199e-03
1.042339e+02	-1.908046e-03
1.048360e+02	-1.930147e-03
1.054415e+02	-1.952503e-03
1.060505e+02	-1.975118e-03
1.066631e+02	-1.997995e-03
1.072791e+02	-2.021137e-03
1.078988e+02	-2.044547e-03
1.085220e+02	-2.068228e-03
1.091488e+02	-2.092183e-03
1.097793e+02	-2.116416e-03
1.104133e+02	-2.140929e-03
1.110511e+02	-2.165726e-03
1.116925e+02	-2.190810e-03
1.123376e+02	-2.216185e-03
1.129865e+02	-2.241853e-03
1.136391e+02	-2.267819e-03
1.142955e+02	-2.294085e-03
1.149556e+02	-2.320656e-03
1.156196e+02	-2.347534e-03
1.162874e+02	-2.374723e-03
1.169591e+02	-2.402227e-03
1.176347e+02	-2.430050e-03
1.183141e+02	-2.458195e-03
1.189975e+02	-2.486665e-03
1.196848e+02	-2.515466e-03
1.203761e+02	-2.544599e-03
1.210714e+02	-2.574071e-03
1.217707e+02	-2.603883e-03
1.224740e+02	-2.634040e-03
1.231814e+02	-2.664547e-03
1.238929e+02	-2.695407e-03
1.246085e+02	-2.726624e-03
1.253283e+02	-2.758203e-03
1.260522e+02	-2.790147e-03
1.267802e+02	-2.822461e-03
1.275125e+02	-2.855149e-03
1.282490e+02	-2.888216e-03
1.289898e+02	-2.921665e-03
1.297348e+02	-2.955502e-03
1.304842e+02	-2.989731e-03
1.312378e+02	-3.024355e-03
1.319959e+02	-3.059381e-03
1.327583e+02	-3.094812e-03
1.335251e+02	-3.130653e-03
1.342963e+02	-3.166909e-03
1.350720e+02	-3.203585e-03
1.358522e+02	-3.240686e-03
1.366368e+02	-3.278216e-03
1.374260e+02	-3.316180e-03
1.382198e+02	-3.354584e-03
1.390182e+02	-3.393433e-03
1.398211e+02	-3.432731e-03
1.406287e+02	-3.472484e-03
1.414410e+02	-3.512698e-03
1.422579e+02	-3.553376e-03
1.430796e+02	-3.594526e-03
1.439060e+02	-3.636152e-03
1.447372e+02	-3.678260e-03
1.455732e+02	-3.720855e-03
1.464141e+02	-3.763944e-03
1.472597e+02	-3.807531e-03
1.481103e+02	-3.851623e-03
1.489658e+02	-3.896225e-03
1.498262e+02	-3.941343e-03
1.506916e+02	-3.986983e-03
1.515620e+02	-4.033152e-03
1.524374e+02	-4.079855e-03
1.533179e+02	-4.127099e-03
1.542034e+02	-4.174889e-03
1.550941e+02	-4.223233e-03
1.559899e+02	-4.272136e-03
1.568909e+02	-4.321605e-03
1.577971e+02	-4.371647e-03
1.587085e+02	-4.422268e-03
1.596252e+02	-4.473474e-03
1.605472e+02	-4.525274e-03
1.614745e+02	-4.577672e-03
1.624072e+02	-4.630678e-03
1.633453e+02	-4.684296e-03
1.642887e+02	-4.738535e-03
1.652377e+02	-4.793402e-03
1.661921e+02	-4.848904e-03
1.671520e+02	-4.905048e-03
1.681175e+02	-4.961842e-03
1.690885e+02	-5.019292e-03
1.700651e+02	-5.077408e-03
1.710474e+02	-5.136196e-03
1.720354e+02	-5.195665e-03
1.730291e+02	-5.255821e-03
1.740285e+02	-5.316674e-03
1.750337e+02	-5.378231e-03
1.760446e+02	-5.440500e-03
1.770615e+02	-5.503490e-03
1.780842e+02	-5.567208e-03
1.791128e+02	-5.631664e-03
1.801473e+02	-5.696865e-03
1.811878e+02	-5.762821e-03
1.822344e+02	-5.829540e-03
1.832870e+02	-5.897030e-03
1.843456e+02	-5.965302e-03
1.854104e+02	-6.034363e-03
1.864813e+02	-6.104224e-03
1.875584e+02	-6.174892e-03
1.886418e+02	-6.246378e-03
1.897313e+02	-6.318691e-03
1.908272e+02	-6.391841e-03
1.919294e+02	-6.465837e-03
1.930380e+02	-6.540689e-03
1.941530e+02	-6.616406e-03
1.952744e+02	-6.693000e-03
1.964023e+02	-6.770479e-03
1.975367e+02	-6.848855e-03
1.986777e+02	-6.928137e-03
1.998252e+02	-7.008337e-03
2.009794e+02	-7.089464e-03
2.021403e+02	-7.171529e-03
2.033078e+02	-7.254543e-03
2.044821e+02	-7.338518e-03
2.056632e+02	-7.423463e-03
2.068511e+02	-7.509392e-03
2.080459e+02	-7.596314e-03
2.092475e+02	-7.684241e-03
2.104561e+02	-7.773185e-03
2.116717e+02	-7.863157e-03
2.128943e+02	-7.954170e-03
2.141240e+02	-8.046236e-03
2.153608e+02	-8.139366e-03
2.166047e+02	-8.233573e-03
2.178558e+02	-8.328869e-03
2.191141e+02	-8.425267e-03
2.203797e+02	-8.522780e-03
2.216526e+02	-8.621420e-03
2.229329e+02	-8.721201e-03
2.242205e+02	-8.822135e-03
2.255156e+02	-8.924237e-03
2.268182e+02	-9.027518e-03
2.281283e+02	-9.131994e-03
2.294459e+02	-9.237678e-03
2.307712e+02	-9.344583e-03
2.321041e+02	-9.452724e-03
2.334447e+02	-9.562115e-03
2.347931e+02	-9.672771e-03
2.361493e+02	-9.784706e-03
2.375133e+02	-9.897935e-03
2.388851e+02	-1.001247e-02
2.402649e+02	-1.012833e-02
2.416527e+02	-1.024553e-02
2.430484e+02	-1.036409e-02
2.444523e+02	-1.048401e-02
2.458642e+02	-1.060533e-02
2.472843e+02	-1.072804e-02
2.487126e+02	-1.085217e-02
2.501492e+02	-1.097774e-02
2.515940e+02	-1.110475e-02
2.530472e+02	-1.123324e-02
2.545088e+02	-1.136321e-02
2.559789e+02	-1.149468e-02
2.574574e+02	-1.162767e-02
2.589444e+02	-1.176219e-02
2.604401e+02	-1.189827e-02
2.619444e+02	-1.203593e-02
2.634574e+02	-1.217517e-02
2.649791e+02	-1.231602e-02
2.665096e+02	-1.245850e-02
2.680489e+02	-1.260262e-02
2.695972e+02	-1.274841e-02
2.711544e+02	-1.289589e-02
2.727205e+02	-1.304506e-02
2.742958e+02	-1.319596e-02
2.758801e+02	-1.334861e-02
2.774736e+02	-1.350301e-02
2.790762e+02	-1.365920e-02
2.806882e+02	-1.381719e-02
2.823094e+02	-1.397701e-02
2.839400e+02	-1.413867e-02
2.855800e+02	-1.430220e-02
2.872295e+02	-1.446762e-02
2.888886e+02	-1.463495e-02
2.905572e+02	-1.480421e-02
2.922354e+02	-1.497542e-02
2.939234e+02	-1.514861e-02
2.956211e+02	-1.532380e-02
2.973286e+02	-1.550102e-02
2.990459e+02	-1.568027e-02
3.007732e+02	-1.586160e-02
3.025104e+02	-1.604502e-02
3.042577e+02	-1.623056e-02
3.060151e+02	-1.641824e-02
3.077826e+02	-1.660808e-02
3.095604e+02	-1.680012e-02
3.113484e+02	-1.699437e-02
3.131467e+02	-1.719086e-02
3.149554e+02	-1.738962e-02
3.167746e+02	-1.759067e-02
3.186043e+02	-1.779405e-02
3.204445e+02	-1.799977e-02
3.222954e+02	-1.820786e-02
3.241570e+02	-1.841835e-02
3.260293e+02	-1.863128e-02
3.279124e+02	-1.884665e-02
3.298064e+02	-1.906452e-02
3.317114e+02	-1.928489e-02
3.336273e+02	-1.950781e-02
3.355544e+02	-1.973330e-02
3.374925e+02	-1.996138e-02
3.394418e+02	-2.019210e-02
3.414024e+02	-2.042548e-02
3.433744e+02	-2.066155e-02
3.453577e+02	-2.090034e-02
3.473525e+02	-2.114189e-02
3.493588e+02	-2.138621e-02
3.513766e+02	-2.163336e-02
3.534062e+02	-2.188335e-02
3.554474e+02	-2.213623e-02
3.575005e+02	-2.239202e-02
3.595654e+02	-2.265076e-02
3.616422e+02	-2.291248e-02
3.637311e+02	-2.317721e-02
3.658320e+02	-2.344500e-02
3.679450e+02	-2.371587e-02
3.700702e+02	-2.398987e-02
3.722077e+02	-2.426702e-02
3.743576e+02	-2.454736e-02
3.765199e+02	-2.483093e-02
3.786946e+02	-2.511777e-02
3.808820e+02	-2.540791e-02
3.830819e+02	-2.570139e-02
3.852946e+02	-2.599826e-02
3.875200e+02	-2.629854e-02
3.897583e+02	-2.660228e-02
3.920096e+02	-2.690951e-02
3.942738e+02	-2.722029e-02
3.965511e+02	-2.753464e-02
3.988416e+02	-2.785261e-02
4.011452e+02	-2.817424e-02
4.034622e+02	-2.849957e-02
4.057926e+02	-2.882864e-02
4.081365e+02	-2.916150e-02
4.104938e+02	-2.949820e-02
4.128648e+02	-2.983876e-02
4.152495e+02	-3.018325e-02
4.176480e+02	-3.053170e-02
4.200603e+02	-3.088415e-02
4.224866e+02	-3.124066e-02
4.249268e+02	-3.160127e-02
4.273812e+02	-3.196603e-02
4.298497e+02	-3.233498e-02
4.323325e+02	-3.270817e-02
4.348297e+02	-3.308566e-02
4.373412e+02	-3.346748e-02
4.398673e+02	-3.385370e-02
4.424079e+02	-3.424435e-02
4.449633e+02	-3.463949e-02
4.475334e+02	-3.503918e-02
4.501183e+02	-3.544345e-02
4.527182e+02	-3.585238e-02
4.553330e+02	-3.626600e-02
4.579630e+02	-3.668437e-02
4.606082e+02	-3.710754e-02
4.632687e+02	-3.753558e-02
4.659445e+02	-3.796853e-02
4.686358e+02	-3.840646e-02
4.713426e+02	-3.884941e-02
4.740650e+02	-3.929745e-02
4.768032e+02	-3.975063e-02
4.795572e+02	-4.020902e-02
4.823271e+02	-4.067266e-02
4.851130e+02	-4.114163e-02
4.879150e+02	-4.161598e-02
4.907332e+02	-4.209576e-02
4.935676e+02	-4.258106e-02
4.964185e+02	-4.307192e-02
4.992858e+02	-4.356841e-02
5.021696e+02	-4.407059e-02
5.050701e+02	-4.457854e-02
5.079874e+02	-4.509230e-02
5.109215e+02	-4.561196e-02
5.138726e+02	-4.613757e-02
5.168407e+02	-4.666921e-02
5.198259e+02	-4.720694e-02
5.228284e+02	-4.775083e-02
5.258482e+02	-4.830095e-02
5.288855e+02	-4.885738e-02
5.319403e+02	-4.942018e-02
5.350128e+02	-4.998942e-02
5.381030e+02	-5.056518e-02
5.412111e+02	-5.114754e-02
5.443371e+02	-5.173656e-02
5.474812e+02	-5.233232e-02
5.506434e+02	-5.293491e-02
5.538239e+02	-5.354438e-02
5.570228e+02	-5.416084e-02
5.602401e+02	-5.478434e-02
5.634760e+02	-5.541497e-02
5.667306e+02	-5.605282e-02
5.700040e+02	-5.669796e-02
5.732964e+02	-5.735048e-02
5.766077e+02	-5.801046e-02
5.799382e+02	-5.867798e-02
5.832879e+02	-5.935312e-02
5.866569e+02	-6.003599e-02
5.900454e+02	-6.072665e-02
5.934535e+02	-6.142520e-02
5.968813e+02	-6.213173e-02
6.003288e+02	-6.284633e-02
6.037963e+02	-6.356909e-02
6.072838e+02	-6.430010e-02
6.107914e+02	-6.503945e-02
6.143194e+02	-6.578724e-02
6.178676e+02	-6.654355e-02
6.214364e+02	-6.730850e-02
6.250258e+02	-6.808217e-02
6.286359e+02	-6.886466e-02
6.322669e+02	-6.965608e-02
6.359189e+02	-7.045651e-02
6.395919e+02	-7.126607e-02
6.432862e+02	-7.208485e-02
6.470017e+02	-7.291296e-02
6.507388e+02	-7.375050e-02
6.544974e+02	-7.459758e-02
6.582778e+02	-7.545430e-02
6.620800e+02	-7.632078e-02
6.659041e+02	-7.719711e-02
6.697504e+02	-7.808342e-02
6.736188e+02	-7.897982e-02
6.775096e+02	-7.988640e-02
6.814229e+02	-8.080330e-02
6.853587e+02	-8.173062e-02
6.893173e+02	-8.266848e-02
6.932988e+02	-8.361700e-02
6.973033e+02	-8.457630e-02
7.013309e+02	-8.554649e-02
