Frequency(Hz)	Magnitude(dB)
1.000000e+01	-2.017759e+00
1.005776e+01	-2.036254e+00
1.011585e+01	-2.054955e+00
1.017428e+01	-2.073964e+00
1.023305e+01	-2.093036e+00
1.029215e+01	-2.112072e+00
1.035160e+01	-2.131431e+00
1.041139e+01	-2.150981e+00
1.047153e+01	-2.170567e+00
1.053201e+01	-2.190297e+00
1.059284e+01	-2.210177e+00
1.065403e+01	-2.230144e+00
1.071556e+01	-2.250297e+00
1.077746e+01	-2.270726e+00
1.083971e+01	-2.291008e+00
1.090232e+01	-2.311652e+00
1.096529e+01	-2.332342e+00
1.102862e+01	-2.353320e+00
1.109232e+01	-2.374291e+00
1.115639e+01	-2.395361e+00
1.122083e+01	-2.416586e+00
1.128564e+01	-2.438163e+00
1.135083e+01	-2.459610e+00
1.141639e+01	-2.481157e+00
1.148233e+01	-2.503167e+00
1.154865e+01	-2.525249e+00
1.161536e+01	-2.547486e+00
1.168245e+01	-2.569505e+00
1.174992e+01	-2.591963e+00
1.181779e+01	-2.614464e+00
1.188605e+01	-2.637222e+00
1.195470e+01	-2.660072e+00
1.202375e+01	-2.683030e+00
1.209320e+01	-2.706048e+00
1.216305e+01	-2.729437e+00
1.223330e+01	-2.752670e+00
1.230396e+01	-2.776354e+00
1.237503e+01	-2.800088e+00
1.244651e+01	-2.823946e+00
1.251840e+01	-2.847976e+00
1.259070e+01	-2.871906e+00
1.266343e+01	-2.896301e+00
1.273657e+01	-2.920988e+00
1.281014e+01	-2.945361e+00
1.288413e+01	-2.970102e+00
1.295855e+01	-2.994951e+00
1.303339e+01	-3.019883e+00
1.310867e+01	-3.045042e+00
1.318439e+01	-3.070254e+00
1.326054e+01	-3.095651e+00
1.333713e+01	-3.121196e+00
1.341417e+01	-3.146903e+00
1.349165e+01	-3.172977e+00
1.356958e+01	-3.199170e+00
1.364795e+01	-3.225164e+00
1.372678e+01	-3.251206e+00
1.380607e+01	-3.277752e+00
1.388581e+01	-3.304371e+00
1.396602e+01	-3.330919e+00
1.404668e+01	-3.358035e+00
1.412782e+01	-3.385076e+00
1.420942e+01	-3.412214e+00
1.429149e+01	-3.439320e+00
1.437404e+01	-3.466726e+00
1.445706e+01	-3.494117e+00
1.454057e+01	-3.522043e+00
1.462455e+01	-3.549897e+00
1.470902e+01	-3.577916e+00
1.479398e+01	-3.606229e+00
1.487943e+01	-3.634509e+00
1.496537e+01	-3.662806e+00
1.505181e+01	-3.691462e+00
1.513875e+01	-3.720314e+00
1.522619e+01	-3.748709e+00
1.531414e+01	-3.778016e+00
1.540259e+01	-3.807180e+00
1.549156e+01	-3.836332e+00
1.558103e+01	-3.865713e+00
1.567103e+01	-3.895382e+00
1.576155e+01	-3.925037e+00
1.585258e+01	-3.955041e+00
1.594415e+01	-3.984852e+00
1.603624e+01	-4.015278e+00
1.612886e+01	-4.045215e+00
1.622202e+01	-4.075759e+00
1.631572e+01	-4.105945e+00
1.640996e+01	-4.136942e+00
1.650474e+01	-4.167617e+00
1.660008e+01	-4.198649e+00
1.669596e+01	-4.229515e+00
1.679239e+01	-4.260814e+00
1.688938e+01	-4.292147e+00
1.698694e+01	-4.323816e+00
1.708505e+01	-4.355070e+00
1.718373e+01	-4.386901e+00
1.728299e+01	-4.418978e+00
1.738281e+01	-4.450921e+00
1.748322e+01	-4.483110e+00
1.758420e+01	-4.515230e+00
1.768576e+01	-4.547833e+00
1.778792e+01	-4.580181e+00
1.789066e+01	-4.612824e+00
1.799399e+01	-4.645639e+00
1.809793e+01	-4.678536e+00
1.820246e+01	-4.711963e+00
1.830760e+01	-4.744799e+00
1.841334e+01	-4.778136e+00
1.851969e+01	-4.811446e+00
1.862666e+01	-4.845483e+00
1.873425e+01	-4.879050e+00
1.884246e+01	-4.912155e+00
1.895129e+01	-4.946401e+00
1.906075e+01	-4.980482e+00
1.917085e+01	-5.014926e+00
1.928158e+01	-5.049189e+00
1.939295e+01	-5.083722e+00
1.950496e+01	-5.118145e+00
1.961762e+01	-5.153169e+00
1.973093e+01	-5.187539e+00
1.984490e+01	-5.222991e+00
1.995952e+01	-5.257434e+00
2.007480e+01	-5.292976e+00
2.019076e+01	-5.328122e+00
2.030738e+01	-5.363647e+00
2.042467e+01	-5.399129e+00
2.054264e+01	-5.434956e+00
2.066130e+01	-5.470480e+00
2.078064e+01	-5.506447e+00
2.090066e+01	-5.542489e+00
2.102139e+01	-5.578321e+00
2.114280e+01	-5.614786e+00
2.126492e+01	-5.651359e+00
2.138775e+01	-5.687509e+00
2.151128e+01	-5.724387e+00
2.163553e+01	-5.760683e+00
2.176050e+01	-5.797738e+00
2.188619e+01	-5.834774e+00
2.201260e+01	-5.871711e+00
2.213974e+01	-5.908894e+00
2.226762e+01	-5.945885e+00
2.239624e+01	-5.983522e+00
2.252560e+01	-6.021444e+00
2.265571e+01	-6.058500e+00
2.278656e+01	-6.095821e+00
2.291818e+01	-6.133951e+00
2.305055e+01	-6.172077e+00
2.318369e+01	-6.210048e+00
2.331760e+01	-6.248072e+00
2.345228e+01	-6.286050e+00
2.358774e+01	-6.324188e+00
2.372398e+01	-6.363118e+00
2.386101e+01	-6.401324e+00
2.399883e+01	-6.439836e+00
2.413745e+01	-6.478463e+00
2.427686e+01	-6.517470e+00
2.441709e+01	-6.556539e+00
2.455812e+01	-6.595405e+00
2.469997e+01	-6.634728e+00
2.484263e+01	-6.673716e+00
2.498612e+01	-6.712917e+00
2.513044e+01	-6.752295e+00
2.527559e+01	-6.791947e+00
2.542158e+01	-6.831980e+00
2.556842e+01	-6.871238e+00
2.571610e+01	-6.910875e+00
2.586463e+01	-6.951211e+00
2.601403e+01	-6.991055e+00
2.616428e+01	-7.031315e+00
2.631541e+01	-7.071266e+00
2.646740e+01	-7.111744e+00
2.662028e+01	-7.151612e+00
2.677404e+01	-7.192461e+00
2.692868e+01	-7.232712e+00
2.708422e+01	-7.273552e+00
2.724066e+01	-7.313990e+00
2.739800e+01	-7.355124e+00
2.755625e+01	-7.395753e+00
2.771541e+01	-7.437421e+00
2.787550e+01	-7.478024e+00
2.803650e+01	-7.518934e+00
2.819844e+01	-7.559759e+00
2.836131e+01	-7.601398e+00
2.852513e+01	-7.642662e+00
2.868989e+01	-7.684382e+00
2.885560e+01	-7.725785e+00
2.902227e+01	-7.767665e+00
2.918990e+01	-7.808798e+00
2.935850e+01	-7.850657e+00
2.952807e+01	-7.892521e+00
2.969863e+01	-7.934446e+00
2.987016e+01	-7.976806e+00
3.004269e+01	-8.018887e+00
3.021622e+01	-8.060960e+00
3.039075e+01	-8.103208e+00
3.056628e+01	-8.145571e+00
3.074283e+01	-8.187763e+00
3.092040e+01	-8.230511e+00
3.109900e+01	-8.272896e+00
3.127862e+01	-8.315448e+00
3.145929e+01	-8.357897e+00
3.164099e+01	-8.401127e+00
3.182375e+01	-8.443556e+00
3.200756e+01	-8.486976e+00
3.219244e+01	-8.530038e+00
3.237838e+01	-8.572671e+00
3.256540e+01	-8.615670e+00
3.275349e+01	-8.659103e+00
3.294268e+01	-8.702536e+00
3.313295e+01	-8.745536e+00
3.332433e+01	-8.788789e+00
3.351681e+01	-8.832444e+00
3.371040e+01	-8.875835e+00
3.390511e+01	-8.919544e+00
3.410094e+01	-8.962847e+00
3.429791e+01	-9.006810e+00
3.449601e+01	-9.050219e+00
3.469526e+01	-9.094716e+00
3.489566e+01	-9.138315e+00
3.509721e+01	-9.182653e+00
3.529993e+01	-9.226277e+00
3.550382e+01	-9.270901e+00
3.570889e+01	-9.314419e+00
3.591515e+01	-9.358633e+00
3.612259e+01	-9.403290e+00
3.633123e+01	-9.447230e+00
3.654108e+01	-9.492050e+00
3.675214e+01	-9.535692e+00
3.696442e+01	-9.580514e+00
3.717792e+01	-9.625249e+00
3.739266e+01	-9.669854e+00
3.760864e+01	-9.714669e+00
3.782587e+01	-9.759331e+00
3.804435e+01	-9.804552e+00
3.826409e+01	-9.848119e+00
3.848510e+01	-9.893971e+00
3.870739e+01	-9.938321e+00
3.893096e+01	-9.983152e+00
3.915583e+01	-1.002797e+01
3.938199e+01	-1.007288e+01
3.960946e+01	-1.011816e+01
3.983824e+01	-1.016388e+01
4.006834e+01	-1.020907e+01
4.029978e+01	-1.025479e+01
4.053255e+01	-1.030031e+01
4.076666e+01	-1.034458e+01
4.100213e+01	-1.039068e+01
4.123896e+01	-1.043613e+01
4.147715e+01	-1.048127e+01
4.171672e+01	-1.052671e+01
4.195767e+01	-1.057256e+01
4.220002e+01	-1.061853e+01
4.244377e+01	-1.066416e+01
4.268892e+01	-1.070973e+01
4.293549e+01	-1.075566e+01
4.318348e+01	-1.080153e+01
4.343291e+01	-1.084772e+01
4.368377e+01	-1.089301e+01
4.393609e+01	-1.093901e+01
4.418986e+01	-1.098511e+01
4.444510e+01	-1.103101e+01
4.470182e+01	-1.107766e+01
4.496001e+01	-1.112378e+01
4.521970e+01	-1.116951e+01
4.548089e+01	-1.121570e+01
4.574358e+01	-1.126206e+01
4.600779e+01	-1.130865e+01
4.627353e+01	-1.135480e+01
4.654081e+01	-1.140142e+01
4.680963e+01	-1.144814e+01
4.708000e+01	-1.149482e+01
4.735193e+01	-1.154133e+01
4.762543e+01	-1.158749e+01
4.790051e+01	-1.163368e+01
4.817719e+01	-1.168080e+01
4.845545e+01	-1.172715e+01
4.873533e+01	-1.177401e+01
4.901682e+01	-1.182058e+01
4.929994e+01	-1.186770e+01
4.958470e+01	-1.191415e+01
4.987110e+01	-1.196157e+01
5.015915e+01	-1.200802e+01
5.044887e+01	-1.205424e+01
5.074026e+01	-1.210177e+01
5.103333e+01	-1.214793e+01
5.132810e+01	-1.219552e+01
5.162457e+01	-1.224266e+01
5.192275e+01	-1.228907e+01
5.222265e+01	-1.233675e+01
5.252429e+01	-1.238423e+01
5.282767e+01	-1.243053e+01
5.313280e+01	-1.247854e+01
5.343969e+01	-1.252554e+01
5.374836e+01	-1.257287e+01
5.405880e+01	-1.262021e+01
5.437105e+01	-1.266707e+01
5.468509e+01	-1.271441e+01
5.500095e+01	-1.276167e+01
5.531863e+01	-1.280975e+01
5.563815e+01	-1.285667e+01
5.595951e+01	-1.290461e+01
5.628273e+01	-1.295227e+01
5.660782e+01	-1.299923e+01
5.693479e+01	-1.304668e+01
5.726364e+01	-1.309347e+01
5.759439e+01	-1.314163e+01
5.792705e+01	-1.318905e+01
5.826164e+01	-1.323699e+01
5.859815e+01	-1.328457e+01
5.893662e+01	-1.333260e+01
5.927703e+01	-1.337960e+01
5.961941e+01	-1.342772e+01
5.996377e+01	-1.347548e+01
6.031012e+01	-1.352316e+01
6.065847e+01	-1.357205e+01
6.100883e+01	-1.361882e+01
6.136121e+01	-1.366677e+01
6.171563e+01	-1.371510e+01
6.207210e+01	-1.376262e+01
6.243063e+01	-1.381008e+01
6.279122e+01	-1.385874e+01
6.315390e+01	-1.390693e+01
6.351868e+01	-1.395465e+01
6.388556e+01	-1.400313e+01
6.425456e+01	-1.405071e+01
6.462569e+01	-1.409896e+01
6.499897e+01	-1.414728e+01
6.537440e+01	-1.419398e+01
6.575200e+01	-1.424328e+01
6.613178e+01	-1.429119e+01
6.651375e+01	-1.433935e+01
6.689793e+01	-1.438693e+01
6.728433e+01	-1.443608e+01
6.767297e+01	-1.448409e+01
6.806384e+01	-1.453249e+01
6.845698e+01	-1.458044e+01
6.885238e+01	-1.462930e+01
6.925007e+01	-1.467804e+01
6.965005e+01	-1.472535e+01
7.005235e+01	-1.477445e+01
7.045697e+01	-1.482221e+01
7.086393e+01	-1.487037e+01
7.127323e+01	-1.491941e+01
7.168490e+01	-1.496799e+01
7.209895e+01	-1.501561e+01
7.251539e+01	-1.506398e+01
7.293424e+01	-1.511254e+01
7.335551e+01	-1.516117e+01
7.377920e+01	-1.520945e+01
7.420535e+01	-1.525798e+01
7.463396e+01	-1.530616e+01
7.506504e+01	-1.535606e+01
7.549861e+01	-1.540473e+01
7.593469e+01	-1.545295e+01
7.637328e+01	-1.550162e+01
7.681441e+01	-1.554982e+01
7.725809e+01	-1.559931e+01
7.770433e+01	-1.564731e+01
7.815315e+01	-1.569492e+01
7.860456e+01	-1.574320e+01
7.905857e+01	-1.579256e+01
7.951521e+01	-1.584193e+01
7.997449e+01	-1.589063e+01
8.043642e+01	-1.593927e+01
8.090102e+01	-1.598896e+01
8.136830e+01	-1.603757e+01
8.183828e+01	-1.608546e+01
8.231097e+01	-1.613434e+01
8.278640e+01	-1.618343e+01
8.326457e+01	-1.623187e+01
8.374550e+01	-1.628091e+01
8.422921e+01	-1.633043e+01
8.471572e+01	-1.637970e+01
8.520503e+01	-1.642794e+01
8.569717e+01	-1.647639e+01
8.619215e+01	-1.652547e+01
8.669000e+01	-1.657434e+01
8.719071e+01	-1.662359e+01
8.769432e+01	-1.667191e+01
8.820084e+01	-1.672136e+01
8.871029e+01	-1.676923e+01
8.922267e+01	-1.681914e+01
8.973802e+01	-1.686837e+01
9.025634e+01	-1.691720e+01
9.077766e+01	-1.696655e+01
9.130199e+01	-1.701573e+01
9.182935e+01	-1.706454e+01
9.235975e+01	-1.711299e+01
9.289321e+01	-1.716209e+01
9.342976e+01	-1.721192e+01
9.396941e+01	-1.725991e+01
9.451217e+01	-1.730987e+01
9.505807e+01	-1.736014e+01
9.560712e+01	-1.740860e+01
9.615934e+01	-1.745603e+01
9.671476e+01	-1.750616e+01
9.727338e+01	-1.755477e+01
9.783522e+01	-1.760487e+01
9.840032e+01	-1.765246e+01
9.896867e+01	-1.770334e+01
9.954031e+01	-1.775087e+01
1.001153e+02	-1.780147e+01
1.006935e+02	-1.785036e+01
1.012751e+02	-1.789927e+01
1.018601e+02	-1.794993e+01
1.024484e+02	-1.799812e+01
1.030402e+02	-1.804868e+01
1.036353e+02	-1.809741e+01
1.042339e+02	-1.814591e+01
1.048360e+02	-1.819550e+01
1.054415e+02	-1.824227e+01
1.060505e+02	-1.829387e+01
1.066631e+02	-1.834168e+01
1.072791e+02	-1.839249e+01
1.078988e+02	-1.844258e+01
1.085220e+02	-1.849205e+01
1.091488e+02	-1.854055e+01
1.097793e+02	-1.858975e+01
1.104133e+02	-1.863988e+01
1.110511e+02	-1.868825e+01
1.116925e+02	-1.873703e+01
1.123376e+02	-1.878661e+01
1.129865e+02	-1.883639e+01
1.136391e+02	-1.888643e+01
1.142955e+02	-1.893610e+01
1.149556e+02	-1.898391e+01
1.156196e+02	-1.903364e+01
1.162874e+02	-1.908456e+01
1.169591e+02	-1.913359e+01
1.176347e+02	-1.918291e+01
1.183141e+02	-1.923188e+01
1.189975e+02	-1.927999e+01
1.196848e+02	-1.933041e+01
1.203761e+02	-1.937950e+01
1.210714e+02	-1.942960e+01
1.217707e+02	-1.947842e+01
1.224740e+02	-1.952811e+01
1.231814e+02	-1.957863e+01
1.238929e+02	-1.962915e+01
1.246085e+02	-1.967591e+01
1.253283e+02	-1.972679e+01
1.260522e+02	-1.977608e+01
1.267802e+02	-1.982562e+01
1.275125e+02	-1.987635e+01
1.282490e+02	-1.992388e+01
1.289898e+02	-1.997427e+01
1.297348e+02	-2.002374e+01
1.304842e+02	-2.007339e+01
1.312378e+02	-2.012125e+01
1.319959e+02	-2.017271e+01
1.327583e+02	-2.022091e+01
1.335251e+02	-2.027249e+01
1.342963e+02	-2.032078e+01
1.350720e+02	-2.037114e+01
1.358522e+02	-2.042127e+01
1.366368e+02	-2.046918e+01
1.374260e+02	-2.051956e+01
1.382198e+02	-2.056807e+01
1.390182e+02	-2.061984e+01
1.398211e+02	-2.066812e+01
1.406287e+02	-2.071747e+01
1.414410e+02	-2.076821e+01
1.422579e+02	-2.081746e+01
1.430796e+02	-2.086552e+01
1.439060e+02	-2.091699e+01
1.447372e+02	-2.096673e+01
1.455732e+02	-2.101593e+01
1.464141e+02	-2.106511e+01
1.472597e+02	-2.111515e+01
1.481103e+02	-2.116467e+01
1.489658e+02	-2.121306e+01
1.498262e+02	-2.126493e+01
1.506916e+02	-2.131483e+01
1.515620e+02	-2.136523e+01
1.524374e+02	-2.141139e+01
1.533179e+02	-2.146474e+01
1.542034e+02	-2.151328e+01
1.550941e+02	-2.156091e+01
1.559899e+02	-2.160948e+01
1.568909e+02	-2.166105e+01
1.577971e+02	-2.171160e+01
1.587085e+02	-2.176262e+01
1.596252e+02	-2.180929e+01
1.605472e+02	-2.185912e+01
1.614745e+02	-2.190980e+01
1.624072e+02	-2.195823e+01
1.633453e+02	-2.201061e+01
1.642887e+02	-2.205865e+01
1.652377e+02	-2.210879e+01
1.661921e+02	-2.215669e+01
1.671520e+02	-2.220737e+01
1.681175e+02	-2.225702e+01
1.690885e+02	-2.230700e+01
1.700651e+02	-2.235283e+01
1.710474e+02	-2.240717e+01
1.720354e+02	-2.245718e+01
1.730291e+02	-2.250680e+01
1.740285e+02	-2.255975e+01
1.750337e+02	-2.260586e+01
1.760446e+02	-2.265462e+01
1.770615e+02	-2.270650e+01
1.780842e+02	-2.275632e+01
1.791128e+02	-2.280560e+01
1.801473e+02	-2.285569e+01
1.811878e+02	-2.290428e+01
1.822344e+02	-2.295325e+01
1.832870e+02	-2.300292e+01
1.843456e+02	-2.305611e+01
1.854104e+02	-2.310429e+01
1.864813e+02	-2.315567e+01
1.875584e+02	-2.320373e+01
1.886418e+02	-2.325243e+01
1.897313e+02	-2.330272e+01
1.908272e+02	-2.335291e+01
1.919294e+02	-2.340262e+01
1.930380e+02	-2.345538e+01
1.941530e+02	-2.350150e+01
1.952744e+02	-2.355331e+01
1.964023e+02	-2.360081e+01
1.975367e+02	-2.365223e+01
1.986777e+02	-2.370178e+01
1.998252e+02	-2.375154e+01
2.009794e+02	-2.379906e+01
2.021403e+02	-2.385037e+01
2.033078e+02	-2.389937e+01
2.044821e+02	-2.395059e+01
2.056632e+02	-2.400132e+01
2.068511e+02	-2.405073e+01
2.080459e+02	-2.410058e+01
2.092475e+02	-2.414962e+01
2.104561e+02	-2.420004e+01
2.116717e+02	-2.425323e+01
2.128943e+02	-2.430040e+01
2.141240e+02	-2.434850e+01
2.153608e+02	-2.439854e+01
2.166047e+02	-2.445067e+01
2.178558e+02	-2.449900e+01
2.191141e+02	-2.455092e+01
2.203797e+02	-2.459806e+01
2.216526e+02	-2.464826e+01
2.229329e+02	-2.469886e+01
2.242205e+02	-2.474997e+01
2.255156e+02	-2.479791e+01
2.268182e+02	-2.484624e+01
2.281283e+02	-2.489909e+01
2.294459e+02	-2.495091e+01
2.307712e+02	-2.499681e+01
2.321041e+02	-2.504620e+01
2.334447e+02	-2.509819e+01
2.347931e+02	-2.514837e+01
2.361493e+02	-2.519938e+01
2.375133e+02	-2.524968e+01
2.388851e+02	-2.529886e+01
2.402649e+02	-2.534800e+01
2.416527e+02	-2.539755e+01
2.430484e+02	-2.544751e+01
2.444523e+02	-2.549803e+01
2.458642e+02	-2.554871e+01
2.472843e+02	-2.559765e+01
2.487126e+02	-2.564857e+01
2.501492e+02	-2.569591e+01
2.515940e+02	-2.574705e+01
2.530472e+02	-2.579779e+01
2.545088e+02	-2.584637e+01
2.559789e+02	-2.589834e+01
2.574574e+02	-2.594997e+01
2.589444e+02	-2.599475e+01
2.604401e+02	-2.604426e+01
2.619444e+02	-2.609784e+01
2.634574e+02	-2.614792e+01
2.649791e+02	-2.619519e+01
2.665096e+02	-2.624711e+01
2.680489e+02	-2.629857e+01
2.695972e+02	-2.634611e+01
2.711544e+02	-2.639618e+01
2.727205e+02	-2.644571e+01
2.742958e+02	-2.649731e+01
2.758801e+02	-2.654447e+01
2.774736e+02	-2.659795e+01
2.790762e+02	-2.664480e+01
2.806882e+02	-2.669559e+01
2.823094e+02	-2.674976e+01
2.839400e+02	-2.679738e+01
2.855800e+02	-2.684776e+01
2.872295e+02	-2.689778e+01
2.888886e+02	-2.694879e+01
2.905572e+02	-2.699956e+01
2.922354e+02	-2.704281e+01
2.939234e+02	-2.709657e+01
2.956211e+02	-2.714277e+01
2.973286e+02	-2.719743e+01
2.990459e+02	-2.724690e+01
3.007732e+02	-2.729788e+01
3.025104e+02	-2.734981e+01
3.042577e+02	-2.740151e+01
3.060151e+02	-2.744815e+01
3.077826e+02	-2.749548e+01
3.095604e+02	-2.754853e+01
3.113484e+02	-2.759933e+01
3.131467e+02	-2.764514e+01
3.149554e+02	-2.769609e+01
3.167746e+02	-2.774920e+01
3.186043e+02	-2.779676e+01
3.204445e+02	-2.784715e+01
3.222954e+02	-2.789870e+01
3.241570e+02	-2.794801e+01
3.260293e+02	-2.799665e+01
3.279124e+02	-2.804390e+01
3.298064e+02	-2.809715e+01
3.317114e+02	-2.814400e+01
3.336273e+02	-2.819746e+01
3.355544e+02	-2.824808e+01
3.374925e+02	-2.829923e+01
3.394418e+02	-2.834557e+01
3.414024e+02	-2.839726e+01
3.433744e+02	-2.844364e+01
3.453577e+02	-2.849651e+01
3.473525e+02	-2.855029e+01
3.493588e+02	-2.859896e+01
3.513766e+02	-2.864560e+01
3.534062e+02	-2.870099e+01
3.554474e+02	-2.874671e+01
3.575005e+02	-2.879599e+01
3.595654e+02	-2.885141e+01
3.616422e+02	-2.889638e+01
3.637311e+02	-2.894821e+01
3.658320e+02	-2.899701e+01
3.679450e+02	-2.905042e+01
3.700702e+02	-2.909792e+01
3.722077e+02	-2.914862e+01
3.743576e+02	-2.919601e+01
3.765199e+02	-2.924591e+01
3.786946e+02	-2.929892e+01
3.808820e+02	-2.934903e+01
3.830819e+02	-2.939548e+01
3.852946e+02	-2.945101e+01
3.875200e+02	-2.949683e+01
3.897583e+02	-2.955423e+01
3.920096e+02	-2.959925e+01
3.942738e+02	-2.964889e+01
3.965511e+02	-2.969886e+01
3.988416e+02	-2.974527e+01
4.011452e+02	-2.979803e+01
4.034622e+02	-2.984531e+01
4.057926e+02	-2.990199e+01
4.081365e+02	-2.994832e+01
4.104938e+02	-3.000472e+01
4.128648e+02	-3.004959e+01
4.152495e+02	-3.009755e+01
4.176480e+02	-3.015587e+01
4.200603e+02	-3.020190e+01
4.224866e+02	-3.025011e+01
4.249268e+02	-3.030020e+01
4.273812e+02	-3.035051e+01
4.298497e+02	-3.039874e+01
4.323325e+02	-3.044870e+01
4.348297e+02	-3.050586e+01
4.373412e+02	-3.055030e+01
4.398673e+02	-3.060701e+01
4.424079e+02	-3.065230e+01
4.449633e+02	-3.069803e+01
4.475334e+02	-3.075335e+01
4.501183e+02	-3.079770e+01
4.527182e+02	-3.085198e+01
4.553330e+02	-3.089869e+01
4.579630e+02	-3.095364e+01
4.606082e+02	-3.100078e+01
4.632687e+02	-3.105201e+01
4.659445e+02	-3.109591e+01
4.686358e+02	-3.114809e+01
4.713426e+02	-3.120227e+01
4.740650e+02	-3.125422e+01
4.768032e+02	-3.129634e+01
4.795572e+02	-3.135072e+01
4.823271e+02	-3.140203e+01
4.851130e+02	-3.145692e+01
4.879150e+02	-3.149908e+01
4.907332e+02	-3.154988e+01
4.935676e+02	-3.159938e+01
4.964185e+02	-3.165215e+01
4.992858e+02	-3.169520e+01
5.021696e+02	-3.174746e+01
5.050701e+02	-3.180230e+01
5.079874e+02	-3.185630e+01
5.109215e+02	-3.190241e+01
5.138726e+02	-3.195451e+01
5.168407e+02	-3.200461e+01
5.198259e+02	-3.205287e+01
5.228284e+02	-3.210511e+01
5.258482e+02	-3.215717e+01
5.288855e+02	-3.220175e+01
5.319403e+02	-3.225631e+01
5.350128e+02	-3.230904e+01
5.381030e+02	-3.234916e+01
5.412111e+02	-3.240612e+01
5.443371e+02	-3.245333e+01
5.474812e+02	-3.249804e+01
5.506434e+02	-3.255333e+01
5.538239e+02	-3.260761e+01
5.570228e+02	-3.265757e+01
5.602401e+02	-3.270480e+01
5.634760e+02	-3.275238e+01
5.667306e+02	-3.280859e+01
5.700040e+02	-3.284892e+01
5.732964e+02	-3.291373e+01
5.766077e+02	-3.295505e+01
5.799382e+02	-3.300788e+01
5.832879e+02	-3.306275e+01
5.866569e+02	-3.310753e+01
5.900454e+02	-3.316375e+01
5.934535e+02	-3.321831e+01
5.968813e+02	-3.326491e+01
6.003288e+02	-3.330464e+01
6.037963e+02	-3.336110e+01
6.072838e+02	-3.340375e+01
6.107914e+02	-3.345685e+01
6.143194e+02	-3.351123e+01
6.178676e+02	-3.355950e+01
6.214364e+02	-3.361448e+01
6.250258e+02	-3.366274e+01
6.286359e+02	-3.370838e+01
6.322669e+02	-3.375754e+01
6.359189e+02	-3.381284e+01
6.395919e+02	-3.386834e+01
6.432862e+02	-3.392019e+01
6.470017e+02	-3.396743e+01
6.507388e+02	-3.401091e+01
6.544974e+02	-3.405987e+01
6.582778e+02	-3.411526e+01
6.620800e+02	-3.416464e+01
6.659041e+02	-3.422131e+01
6.697504e+02	-3.426324e+01
6.736188e+02	-3.431881e+01
6.775096e+02	-3.435970e+01
6.814229e+02	-3.441325e+01
6.853587e+02	-3.446639e+01
6.893173e+02	-3.451313e+01
6.932988e+02	-3.457394e+01
6.973033e+02	-3.461933e+01
7.013309e+02	-3.466978e+01
