Frequency(Hz)	Magnitude(dB)
1.000000e+01	-2.023290e+00
1.005776e+01	-2.041712e+00
1.011585e+01	-2.060697e+00
1.017428e+01	-2.079536e+00
1.023305e+01	-2.098801e+00
1.029215e+01	-2.117939e+00
1.035160e+01	-2.137612e+00
1.041139e+01	-2.156787e+00
1.047153e+01	-2.176544e+00
1.053201e+01	-2.196417e+00
1.059284e+01	-2.216183e+00
1.065403e+01	-2.236261e+00
1.071556e+01	-2.256587e+00
1.077746e+01	-2.276996e+00
1.083971e+01	-2.297479e+00
1.090232e+01	-2.317983e+00
1.096529e+01	-2.338762e+00
1.102862e+01	-2.359539e+00
1.109232e+01	-2.380460e+00
1.115639e+01	-2.401669e+00
1.122083e+01	-2.423230e+00
1.128564e+01	-2.444865e+00
1.135083e+01	-2.466167e+00
1.141639e+01	-2.488135e+00
1.148233e+01	-2.509961e+00
1.154865e+01	-2.531962e+00
1.161536e+01	-2.554194e+00
1.168245e+01	-2.576410e+00
1.174992e+01	-2.598926e+00
1.181779e+01	-2.621355e+00
1.188605e+01	-2.644065e+00
1.195470e+01	-2.666995e+00
1.202375e+01	-2.690153e+00
1.209320e+01	-2.713191e+00
1.216305e+01	-2.736591e+00
1.223330e+01	-2.760072e+00
1.230396e+01	-2.783595e+00
1.237503e+01	-2.807450e+00
1.244651e+01	-2.831090e+00
1.251840e+01	-2.855415e+00
1.259070e+01	-2.879329e+00
1.266343e+01	-2.903616e+00
1.273657e+01	-2.928119e+00
1.281014e+01	-2.952794e+00
1.288413e+01	-2.977673e+00
1.295855e+01	-3.002189e+00
1.303339e+01	-3.027674e+00
1.310867e+01	-3.052720e+00
1.318439e+01	-3.078044e+00
1.326054e+01	-3.103563e+00
1.333713e+01	-3.129175e+00
1.341417e+01	-3.154907e+00
1.349165e+01	-3.180923e+00
1.356958e+01	-3.206807e+00
1.364795e+01	-3.232880e+00
1.372678e+01	-3.259535e+00
1.380607e+01	-3.285871e+00
1.388581e+01	-3.312542e+00
1.396602e+01	-3.339176e+00
1.404668e+01	-3.366173e+00
1.412782e+01	-3.393016e+00
1.420942e+01	-3.420549e+00
1.429149e+01	-3.447805e+00
1.437404e+01	-3.475218e+00
1.445706e+01	-3.502893e+00
1.454057e+01	-3.530569e+00
1.462455e+01	-3.558555e+00
1.470902e+01	-3.586534e+00
1.479398e+01	-3.614912e+00
1.487943e+01	-3.643126e+00
1.496537e+01	-3.671525e+00
1.505181e+01	-3.700029e+00
1.513875e+01	-3.728983e+00
1.522619e+01	-3.757823e+00
1.531414e+01	-3.786538e+00
1.540259e+01	-3.816202e+00
1.549156e+01	-3.845477e+00
1.558103e+01	-3.874897e+00
1.567103e+01	-3.904398e+00
1.576155e+01	-3.934438e+00
1.585258e+01	-3.964155e+00
1.594415e+01	-3.994133e+00
1.603624e+01	-4.024222e+00
1.612886e+01	-4.054673e+00
1.622202e+01	-4.084972e+00
1.631572e+01	-4.115440e+00
1.640996e+01	-4.145969e+00
1.650474e+01	-4.177082e+00
1.660008e+01	-4.208255e+00
1.669596e+01	-4.239096e+00
1.679239e+01	-4.270256e+00
1.688938e+01	-4.301733e+00
1.698694e+01	-4.333098e+00
1.708505e+01	-4.364769e+00
1.718373e+01	-4.396498e+00
1.728299e+01	-4.428502e+00
1.738281e+01	-4.460475e+00
1.748322e+01	-4.492822e+00
1.758420e+01	-4.524964e+00
1.768576e+01	-4.557361e+00
1.778792e+01	-4.590137e+00
1.789066e+01	-4.622781e+00
1.799399e+01	-4.655625e+00
1.809793e+01	-4.688580e+00
1.820246e+01	-4.721789e+00
1.830760e+01	-4.755015e+00
1.841334e+01	-4.788508e+00
1.851969e+01	-4.821658e+00
1.862666e+01	-4.855549e+00
1.873425e+01	-4.888973e+00
1.884246e+01	-4.923059e+00
1.895129e+01	-4.956811e+00
1.906075e+01	-4.991369e+00
1.917085e+01	-5.025254e+00
1.928158e+01	-5.059773e+00
1.939295e+01	-5.094009e+00
1.950496e+01	-5.128639e+00
1.961762e+01	-5.163674e+00
1.973093e+01	-5.198649e+00
1.984490e+01	-5.233267e+00
1.995952e+01	-5.268402e+00
2.007480e+01	-5.303776e+00
2.019076e+01	-5.338788e+00
2.030738e+01	-5.374414e+00
2.042467e+01	-5.410008e+00
2.054264e+01	-5.445719e+00
2.066130e+01	-5.481453e+00
2.078064e+01	-5.517419e+00
2.090066e+01	-5.553269e+00
2.102139e+01	-5.589542e+00
2.114280e+01	-5.625758e+00
2.126492e+01	-5.662331e+00
2.138775e+01	-5.698549e+00
2.151128e+01	-5.735611e+00
2.163553e+01	-5.771914e+00
2.176050e+01	-5.808678e+00
2.188619e+01	-5.845960e+00
2.201260e+01	-5.883256e+00
2.213974e+01	-5.920384e+00
2.226762e+01	-5.957191e+00
2.239624e+01	-5.994953e+00
2.252560e+01	-6.032220e+00
2.265571e+01	-6.069776e+00
2.278656e+01	-6.107606e+00
2.291818e+01	-6.145309e+00
2.305055e+01	-6.183384e+00
2.318369e+01	-6.221278e+00
2.331760e+01	-6.259203e+00
2.345228e+01	-6.297684e+00
2.358774e+01	-6.336145e+00
2.372398e+01	-6.374585e+00
2.386101e+01	-6.412794e+00
2.399883e+01	-6.451571e+00
2.413745e+01	-6.490181e+00
2.427686e+01	-6.529598e+00
2.441709e+01	-6.568326e+00
2.455812e+01	-6.607416e+00
2.469997e+01	-6.646341e+00
2.484263e+01	-6.686085e+00
2.498612e+01	-6.725177e+00
2.513044e+01	-6.764296e+00
2.527559e+01	-6.804139e+00
2.542158e+01	-6.843545e+00
2.556842e+01	-6.883592e+00
2.571610e+01	-6.923164e+00
2.586463e+01	-6.963326e+00
2.601403e+01	-7.003537e+00
2.616428e+01	-7.043284e+00
2.631541e+01	-7.083535e+00
2.646740e+01	-7.123847e+00
2.662028e+01	-7.164122e+00
2.677404e+01	-7.204362e+00
2.692868e+01	-7.245365e+00
2.708422e+01	-7.285846e+00
2.724066e+01	-7.326534e+00
2.739800e+01	-7.367466e+00
2.755625e+01	-7.408439e+00
2.771541e+01	-7.449216e+00
2.787550e+01	-7.490265e+00
2.803650e+01	-7.531147e+00
2.819844e+01	-7.572549e+00
2.836131e+01	-7.613834e+00
2.852513e+01	-7.655286e+00
2.868989e+01	-7.696884e+00
2.885560e+01	-7.738226e+00
2.902227e+01	-7.779992e+00
2.918990e+01	-7.821919e+00
2.935850e+01	-7.863631e+00
2.952807e+01	-7.904897e+00
2.969863e+01	-7.947314e+00
2.987016e+01	-7.989066e+00
3.004269e+01	-8.031232e+00
3.021622e+01	-8.073827e+00
3.039075e+01	-8.116426e+00
3.056628e+01	-8.158696e+00
3.074283e+01	-8.200504e+00
3.092040e+01	-8.243935e+00
3.109900e+01	-8.285934e+00
3.127862e+01	-8.328364e+00
3.145929e+01	-8.371241e+00
3.164099e+01	-8.414276e+00
3.182375e+01	-8.457100e+00
3.200756e+01	-8.499299e+00
3.219244e+01	-8.542541e+00
3.237838e+01	-8.585799e+00
3.256540e+01	-8.629139e+00
3.275349e+01	-8.672297e+00
3.294268e+01	-8.715394e+00
3.313295e+01	-8.758429e+00
3.332433e+01	-8.801778e+00
3.351681e+01	-8.845588e+00
3.371040e+01	-8.889237e+00
3.390511e+01	-8.932404e+00
3.410094e+01	-8.976158e+00
3.429791e+01	-9.020361e+00
3.449601e+01	-9.063851e+00
3.469526e+01	-9.108048e+00
3.489566e+01	-9.151771e+00
3.509721e+01	-9.195620e+00
3.529993e+01	-9.239255e+00
3.550382e+01	-9.283846e+00
3.570889e+01	-9.328259e+00
3.591515e+01	-9.372508e+00
3.612259e+01	-9.416058e+00
3.633123e+01	-9.460713e+00
3.654108e+01	-9.505096e+00
3.675214e+01	-9.549737e+00
3.696442e+01	-9.593604e+00
3.717792e+01	-9.638477e+00
3.739266e+01	-9.683441e+00
3.760864e+01	-9.728093e+00
3.782587e+01	-9.772154e+00
3.804435e+01	-9.817329e+00
3.826409e+01	-9.861797e+00
3.848510e+01	-9.907591e+00
3.870739e+01	-9.951968e+00
3.893096e+01	-9.997094e+00
3.915583e+01	-1.004213e+01
3.938199e+01	-1.008733e+01
3.960946e+01	-1.013275e+01
3.983824e+01	-1.017729e+01
4.006834e+01	-1.022267e+01
4.029978e+01	-1.026882e+01
4.053255e+01	-1.031384e+01
4.076666e+01	-1.035927e+01
4.100213e+01	-1.040403e+01
4.123896e+01	-1.044999e+01
4.147715e+01	-1.049604e+01
4.171672e+01	-1.054073e+01
4.195767e+01	-1.058672e+01
4.220002e+01	-1.063195e+01
4.244377e+01	-1.067796e+01
4.268892e+01	-1.072361e+01
4.293549e+01	-1.076975e+01
4.318348e+01	-1.081579e+01
4.343291e+01	-1.086170e+01
4.368377e+01	-1.090721e+01
4.393609e+01	-1.095295e+01
4.418986e+01	-1.099942e+01
4.444510e+01	-1.104520e+01
4.470182e+01	-1.109160e+01
4.496001e+01	-1.113738e+01
4.521970e+01	-1.118394e+01
4.548089e+01	-1.123044e+01
4.574358e+01	-1.127664e+01
4.600779e+01	-1.132281e+01
4.627353e+01	-1.136931e+01
4.654081e+01	-1.141574e+01
4.680963e+01	-1.146191e+01
4.708000e+01	-1.150854e+01
4.735193e+01	-1.155464e+01
4.762543e+01	-1.160159e+01
4.790051e+01	-1.164783e+01
4.817719e+01	-1.169481e+01
4.845545e+01	-1.174193e+01
4.873533e+01	-1.178795e+01
4.901682e+01	-1.183421e+01
4.929994e+01	-1.188130e+01
4.958470e+01	-1.192784e+01
4.987110e+01	-1.197526e+01
5.015915e+01	-1.202193e+01
5.044887e+01	-1.206953e+01
5.074026e+01	-1.211526e+01
5.103333e+01	-1.216263e+01
5.132810e+01	-1.220940e+01
5.162457e+01	-1.225702e+01
5.192275e+01	-1.230389e+01
5.222265e+01	-1.235132e+01
5.252429e+01	-1.239811e+01
5.282767e+01	-1.244517e+01
5.313280e+01	-1.249239e+01
5.343969e+01	-1.253963e+01
5.374836e+01	-1.258658e+01
5.405880e+01	-1.263433e+01
5.437105e+01	-1.268111e+01
5.468509e+01	-1.272924e+01
5.500095e+01	-1.277612e+01
5.531863e+01	-1.282334e+01
5.563815e+01	-1.287035e+01
5.595951e+01	-1.291873e+01
5.628273e+01	-1.296667e+01
5.660782e+01	-1.301344e+01
5.693479e+01	-1.306111e+01
5.726364e+01	-1.310851e+01
5.759439e+01	-1.315594e+01
5.792705e+01	-1.320348e+01
5.826164e+01	-1.325165e+01
5.859815e+01	-1.329907e+01
5.893662e+01	-1.334624e+01
5.927703e+01	-1.339510e+01
5.961941e+01	-1.344219e+01
5.996377e+01	-1.349023e+01
6.031012e+01	-1.353762e+01
6.065847e+01	-1.358565e+01
6.100883e+01	-1.363352e+01
6.136121e+01	-1.368154e+01
6.171563e+01	-1.372911e+01
6.207210e+01	-1.377780e+01
6.243063e+01	-1.382535e+01
6.279122e+01	-1.387306e+01
6.315390e+01	-1.392186e+01
6.351868e+01	-1.396872e+01
6.388556e+01	-1.401779e+01
6.425456e+01	-1.406500e+01
6.462569e+01	-1.411252e+01
6.499897e+01	-1.416201e+01
6.537440e+01	-1.420945e+01
6.575200e+01	-1.425773e+01
6.613178e+01	-1.430607e+01
6.651375e+01	-1.435370e+01
6.689793e+01	-1.440300e+01
6.728433e+01	-1.445046e+01
6.767297e+01	-1.449851e+01
6.806384e+01	-1.454714e+01
6.845698e+01	-1.459481e+01
6.885238e+01	-1.464382e+01
6.925007e+01	-1.469160e+01
6.965005e+01	-1.473976e+01
7.005235e+01	-1.478867e+01
7.045697e+01	-1.483688e+01
7.086393e+01	-1.488565e+01
7.127323e+01	-1.493400e+01
7.168490e+01	-1.498220e+01
7.209895e+01	-1.503029e+01
7.251539e+01	-1.507886e+01
7.293424e+01	-1.512791e+01
7.335551e+01	-1.517553e+01
7.377920e+01	-1.522589e+01
7.420535e+01	-1.527257e+01
7.463396e+01	-1.532166e+01
7.506504e+01	-1.537086e+01
7.549861e+01	-1.541812e+01
7.593469e+01	-1.546727e+01
7.637328e+01	-1.551682e+01
7.681441e+01	-1.556532e+01
7.725809e+01	-1.561276e+01
7.770433e+01	-1.566172e+01
7.815315e+01	-1.571131e+01
7.860456e+01	-1.575968e+01
7.905857e+01	-1.580854e+01
7.951521e+01	-1.585656e+01
7.997449e+01	-1.590562e+01
8.043642e+01	-1.595374e+01
8.090102e+01	-1.600247e+01
8.136830e+01	-1.605310e+01
8.183828e+01	-1.610143e+01
8.231097e+01	-1.614879e+01
8.278640e+01	-1.619862e+01
8.326457e+01	-1.624774e+01
8.374550e+01	-1.629605e+01
8.422921e+01	-1.634474e+01
8.471572e+01	-1.639443e+01
8.520503e+01	-1.644274e+01
8.569717e+01	-1.649128e+01
8.619215e+01	-1.654094e+01
8.669000e+01	-1.659038e+01
8.719071e+01	-1.663791e+01
8.769432e+01	-1.668664e+01
8.820084e+01	-1.673646e+01
8.871029e+01	-1.678430e+01
8.922267e+01	-1.683411e+01
8.973802e+01	-1.688236e+01
9.025634e+01	-1.693303e+01
9.077766e+01	-1.698162e+01
9.130199e+01	-1.703149e+01
9.182935e+01	-1.707852e+01
9.235975e+01	-1.712753e+01
9.289321e+01	-1.717724e+01
9.342976e+01	-1.722633e+01
9.396941e+01	-1.727554e+01
9.451217e+01	-1.732536e+01
9.505807e+01	-1.737350e+01
9.560712e+01	-1.742231e+01
9.615934e+01	-1.747169e+01
9.671476e+01	-1.752147e+01
9.727338e+01	-1.757098e+01
9.783522e+01	-1.762052e+01
9.840032e+01	-1.766864e+01
9.896867e+01	-1.771674e+01
9.954031e+01	-1.776729e+01
1.001153e+02	-1.781621e+01
1.006935e+02	-1.786697e+01
1.012751e+02	-1.791511e+01
1.018601e+02	-1.796359e+01
1.024484e+02	-1.801284e+01
1.030402e+02	-1.806231e+01
1.036353e+02	-1.811120e+01
1.042339e+02	-1.816051e+01
1.048360e+02	-1.820935e+01
1.054415e+02	-1.825952e+01
1.060505e+02	-1.830891e+01
1.066631e+02	-1.835794e+01
1.072791e+02	-1.840656e+01
1.078988e+02	-1.845711e+01
1.085220e+02	-1.850569e+01
1.091488e+02	-1.855535e+01
1.097793e+02	-1.860445e+01
1.104133e+02	-1.865418e+01
1.110511e+02	-1.870420e+01
1.116925e+02	-1.875373e+01
1.123376e+02	-1.880193e+01
1.129865e+02	-1.885192e+01
1.136391e+02	-1.889968e+01
1.142955e+02	-1.894946e+01
1.149556e+02	-1.899993e+01
1.156196e+02	-1.904904e+01
1.162874e+02	-1.909924e+01
1.169591e+02	-1.914853e+01
1.176347e+02	-1.919741e+01
1.183141e+02	-1.924713e+01
1.189975e+02	-1.929605e+01
1.196848e+02	-1.934570e+01
1.203761e+02	-1.939571e+01
1.210714e+02	-1.944462e+01
1.217707e+02	-1.949482e+01
1.224740e+02	-1.954329e+01
1.231814e+02	-1.959223e+01
1.238929e+02	-1.964233e+01
1.246085e+02	-1.969113e+01
1.253283e+02	-1.974228e+01
1.260522e+02	-1.978967e+01
1.267802e+02	-1.984200e+01
1.275125e+02	-1.988950e+01
1.282490e+02	-1.993962e+01
1.289898e+02	-1.998878e+01
1.297348e+02	-2.003735e+01
1.304842e+02	-2.008771e+01
1.312378e+02	-2.013735e+01
1.319959e+02	-2.018776e+01
1.327583e+02	-2.023671e+01
1.335251e+02	-2.028683e+01
1.342963e+02	-2.033517e+01
1.350720e+02	-2.038503e+01
1.358522e+02	-2.043572e+01
1.366368e+02	-2.048466e+01
1.374260e+02	-2.053446e+01
1.382198e+02	-2.058297e+01
1.390182e+02	-2.063438e+01
1.398211e+02	-2.068274e+01
1.406287e+02	-2.073351e+01
1.414410e+02	-2.078305e+01
1.422579e+02	-2.083081e+01
1.430796e+02	-2.088132e+01
1.439060e+02	-2.093230e+01
1.447372e+02	-2.097934e+01
1.455732e+02	-2.103032e+01
1.464141e+02	-2.107938e+01
1.472597e+02	-2.112889e+01
1.481103e+02	-2.117959e+01
1.489658e+02	-2.122820e+01
1.498262e+02	-2.127855e+01
1.506916e+02	-2.133010e+01
1.515620e+02	-2.137866e+01
1.524374e+02	-2.142817e+01
1.533179e+02	-2.147792e+01
1.542034e+02	-2.152656e+01
1.550941e+02	-2.157819e+01
1.559899e+02	-2.162724e+01
1.568909e+02	-2.167685e+01
1.577971e+02	-2.172566e+01
1.587085e+02	-2.177712e+01
1.596252e+02	-2.182423e+01
1.605472e+02	-2.187450e+01
1.614745e+02	-2.192437e+01
1.624072e+02	-2.197629e+01
1.633453e+02	-2.202410e+01
1.642887e+02	-2.207315e+01
1.652377e+02	-2.212516e+01
1.661921e+02	-2.217355e+01
1.671520e+02	-2.222289e+01
1.681175e+02	-2.227225e+01
1.690885e+02	-2.232306e+01
1.700651e+02	-2.237307e+01
1.710474e+02	-2.242304e+01
1.720354e+02	-2.247254e+01
1.730291e+02	-2.252251e+01
1.740285e+02	-2.257247e+01
1.750337e+02	-2.262024e+01
1.760446e+02	-2.267274e+01
1.770615e+02	-2.272106e+01
1.780842e+02	-2.277213e+01
1.791128e+02	-2.282016e+01
1.801473e+02	-2.287343e+01
1.811878e+02	-2.291955e+01
1.822344e+02	-2.297019e+01
1.832870e+02	-2.301921e+01
1.843456e+02	-2.307097e+01
1.854104e+02	-2.311938e+01
1.864813e+02	-2.316927e+01
1.875584e+02	-2.321876e+01
1.886418e+02	-2.326830e+01
1.897313e+02	-2.331860e+01
1.908272e+02	-2.337187e+01
1.919294e+02	-2.341767e+01
1.930380e+02	-2.346872e+01
1.941530e+02	-2.351635e+01
1.952744e+02	-2.356825e+01
1.964023e+02	-2.361848e+01
1.975367e+02	-2.366855e+01
1.986777e+02	-2.371931e+01
1.998252e+02	-2.376372e+01
2.009794e+02	-2.381760e+01
2.021403e+02	-2.386435e+01
2.033078e+02	-2.391627e+01
2.044821e+02	-2.396680e+01
2.056632e+02	-2.401848e+01
2.068511e+02	-2.406617e+01
2.080459e+02	-2.411475e+01
2.092475e+02	-2.416741e+01
2.104561e+02	-2.421662e+01
2.116717e+02	-2.426381e+01
2.128943e+02	-2.431387e+01
2.141240e+02	-2.436713e+01
2.153608e+02	-2.441460e+01
2.166047e+02	-2.446435e+01
2.178558e+02	-2.451317e+01
2.191141e+02	-2.456527e+01
2.203797e+02	-2.461708e+01
2.216526e+02	-2.466242e+01
2.229329e+02	-2.471473e+01
2.242205e+02	-2.476413e+01
2.255156e+02	-2.481476e+01
2.268182e+02	-2.486281e+01
2.281283e+02	-2.491536e+01
2.294459e+02	-2.496190e+01
2.307712e+02	-2.501444e+01
2.321041e+02	-2.506481e+01
2.334447e+02	-2.511219e+01
2.347931e+02	-2.515979e+01
2.361493e+02	-2.521242e+01
2.375133e+02	-2.526334e+01
2.388851e+02	-2.531376e+01
2.402649e+02	-2.536096e+01
2.416527e+02	-2.541199e+01
2.430484e+02	-2.546632e+01
2.444523e+02	-2.550984e+01
2.458642e+02	-2.556431e+01
2.472843e+02	-2.561216e+01
2.487126e+02	-2.566243e+01
2.501492e+02	-2.571228e+01
2.515940e+02	-2.576523e+01
2.530472e+02	-2.581338e+01
2.545088e+02	-2.586276e+01
2.559789e+02	-2.591428e+01
2.574574e+02	-2.596108e+01
2.589444e+02	-2.601285e+01
2.604401e+02	-2.605913e+01
2.619444e+02	-2.611504e+01
2.634574e+02	-2.616278e+01
2.649791e+02	-2.621302e+01
2.665096e+02	-2.626177e+01
2.680489e+02	-2.631413e+01
2.695972e+02	-2.635815e+01
2.711544e+02	-2.641287e+01
2.727205e+02	-2.646185e+01
2.742958e+02	-2.651404e+01
2.758801e+02	-2.656299e+01
2.774736e+02	-2.660884e+01
2.790762e+02	-2.666208e+01
2.806882e+02	-2.670915e+01
2.823094e+02	-2.676208e+01
2.839400e+02	-2.681370e+01
2.855800e+02	-2.686095e+01
2.872295e+02	-2.691027e+01
2.888886e+02	-2.695977e+01
2.905572e+02	-2.700980e+01
2.922354e+02	-2.706279e+01
2.939234e+02	-2.710899e+01
2.956211e+02	-2.716114e+01
2.973286e+02	-2.720771e+01
2.990459e+02	-2.726096e+01
3.007732e+02	-2.731480e+01
3.025104e+02	-2.736152e+01
3.042577e+02	-2.741033e+01
3.060151e+02	-2.746227e+01
3.077826e+02	-2.751088e+01
3.095604e+02	-2.755937e+01
3.113484e+02	-2.761271e+01
3.131467e+02	-2.766255e+01
3.149554e+02	-2.771368e+01
3.167746e+02	-2.776224e+01
3.186043e+02	-2.780912e+01
3.204445e+02	-2.786043e+01
3.222954e+02	-2.791354e+01
3.241570e+02	-2.796176e+01
3.260293e+02	-2.800858e+01
3.279124e+02	-2.806284e+01
3.298064e+02	-2.810965e+01
3.317114e+02	-2.816117e+01
3.336273e+02	-2.821623e+01
3.355544e+02	-2.826293e+01
3.374925e+02	-2.830992e+01
3.394418e+02	-2.835983e+01
3.414024e+02	-2.841345e+01
3.433744e+02	-2.846369e+01
3.453577e+02	-2.851221e+01
3.473525e+02	-2.855808e+01
3.493588e+02	-2.860653e+01
3.513766e+02	-2.866736e+01
3.534062e+02	-2.871138e+01
3.554474e+02	-2.876392e+01
3.575005e+02	-2.881628e+01
3.595654e+02	-2.886396e+01
3.616422e+02	-2.891274e+01
3.637311e+02	-2.896583e+01
3.658320e+02	-2.901640e+01
3.679450e+02	-2.906460e+01
3.700702e+02	-2.911814e+01
3.722077e+02	-2.916178e+01
3.743576e+02	-2.921073e+01
3.765199e+02	-2.926470e+01
3.786946e+02	-2.931389e+01
3.808820e+02	-2.936398e+01
3.830819e+02	-2.941341e+01
3.852946e+02	-2.946547e+01
3.875200e+02	-2.951133e+01
3.897583e+02	-2.956256e+01
3.920096e+02	-2.961660e+01
3.942738e+02	-2.966484e+01
3.965511e+02	-2.971109e+01
3.988416e+02	-2.975962e+01
4.011452e+02	-2.980889e+01
4.034622e+02	-2.986085e+01
4.057926e+02	-2.991226e+01
4.081365e+02	-2.996251e+01
4.104938e+02	-3.001197e+01
4.128648e+02	-3.006712e+01
4.152495e+02	-3.011494e+01
4.176480e+02	-3.016457e+01
4.200603e+02	-3.020890e+01
4.224866e+02	-3.026962e+01
4.249268e+02	-3.031199e+01
4.273812e+02	-3.036628e+01
4.298497e+02	-3.041945e+01
4.323325e+02	-3.046401e+01
4.348297e+02	-3.051488e+01
4.373412e+02	-3.056729e+01
4.398673e+02	-3.062039e+01
4.424079e+02	-3.066415e+01
4.449633e+02	-3.071571e+01
4.475334e+02	-3.076874e+01
4.501183e+02	-3.081257e+01
4.527182e+02	-3.086589e+01
4.553330e+02	-3.091618e+01
4.579630e+02	-3.096342e+01
4.606082e+02	-3.101948e+01
4.632687e+02	-3.106948e+01
4.659445e+02	-3.111707e+01
4.686358e+02	-3.116955e+01
4.713426e+02	-3.121736e+01
4.740650e+02	-3.126418e+01
4.768032e+02	-3.131775e+01
4.795572e+02	-3.137203e+01
4.823271e+02	-3.141459e+01
4.851130e+02	-3.147012e+01
4.879150e+02	-3.151655e+01
4.907332e+02	-3.156767e+01
4.935676e+02	-3.161855e+01
4.964185e+02	-3.167072e+01
4.992858e+02	-3.171229e+01
5.021696e+02	-3.176932e+01
5.050701e+02	-3.181755e+01
5.079874e+02	-3.186862e+01
5.109215e+02	-3.191894e+01
5.138726e+02	-3.196592e+01
5.168407e+02	-3.201750e+01
5.198259e+02	-3.207166e+01
5.228284e+02	-3.211191e+01
5.258482e+02	-3.216726e+01
5.288855e+02	-3.221440e+01
5.319403e+02	-3.227852e+01
5.350128e+02	-3.232333e+01
5.381030e+02	-3.236846e+01
5.412111e+02	-3.242310e+01
5.443371e+02	-3.247164e+01
5.474812e+02	-3.251782e+01
5.506434e+02	-3.257204e+01
5.538239e+02	-3.262175e+01
5.570228e+02	-3.266629e+01
5.602401e+02	-3.272526e+01
5.634760e+02	-3.277538e+01
5.667306e+02	-3.281494e+01
5.700040e+02	-3.287722e+01
5.732964e+02	-3.292025e+01
5.766077e+02	-3.297857e+01
5.799382e+02	-3.302306e+01
5.832879e+02	-3.307810e+01
5.866569e+02	-3.312585e+01
5.900454e+02	-3.317492e+01
5.934535e+02	-3.322127e+01
5.968813e+02	-3.327891e+01
6.003288e+02	-3.332507e+01
6.037963e+02	-3.337317e+01
6.072838e+02	-3.342161e+01
6.107914e+02	-3.346986e+01
6.143194e+02	-3.352693e+01
6.178676e+02	-3.358019e+01
6.214364e+02	-3.363168e+01
6.250258e+02	-3.367848e+01
6.286359e+02	-3.372777e+01
6.322669e+02	-3.377888e+01
6.359189e+02	-3.382823e+01
6.395919e+02	-3.388159e+01
6.432862e+02	-3.392417e+01
6.470017e+02	-3.397742e+01
6.507388e+02	-3.402196e+01
6.544974e+02	-3.408548e+01
6.582778e+02	-3.413142e+01
6.620800e+02	-3.417359e+01
6.659041e+02	-3.422454e+01
6.697504e+02	-3.427526e+01
6.736188e+02	-3.433190e+01
6.775096e+02	-3.438410e+01
6.814229e+02	-3.443511e+01
6.853587e+02	-3.448771e+01
6.893173e+02	-3.453344e+01
6.932988e+02	-3.459035e+01
6.973033e+02	-3.462852e+01
7.013309e+02	-3.468583e+01
