Frequency(Hz)	Magnitude(dB)
1.000000e+01	-1.852664e-05
1.005776e+01	-1.874127e-05
1.011585e+01	-1.895840e-05
1.017428e+01	-1.917804e-05
1.023305e+01	-1.940022e-05
1.029215e+01	-1.962497e-05
1.035160e+01	-1.985233e-05
1.041139e+01	-2.008233e-05
1.047153e+01	-2.031499e-05
1.053201e+01	-2.055034e-05
1.059284e+01	-2.078842e-05
1.065403e+01	-2.102926e-05
1.071556e+01	-2.127289e-05
1.077746e+01	-2.151934e-05
1.083971e+01	-2.176865e-05
1.090232e+01	-2.202085e-05
1.096529e+01	-2.227596e-05
1.102862e+01	-2.253403e-05
1.109232e+01	-2.279510e-05
1.115639e+01	-2.305918e-05
1.122083e+01	-2.332633e-05
1.128564e+01	-2.359657e-05
1.135083e+01	-2.386994e-05
1.141639e+01	-2.414648e-05
1.148233e+01	-2.442623e-05
1.154865e+01	-2.470921e-05
1.161536e+01	-2.499547e-05
1.168245e+01	-2.528505e-05
1.174992e+01	-2.557798e-05
1.181779e+01	-2.587431e-05
1.188605e+01	-2.617407e-05
1.195470e+01	-2.647731e-05
1.202375e+01	-2.678405e-05
1.209320e+01	-2.709435e-05
1.216305e+01	-2.740825e-05
1.223330e+01	-2.772578e-05
1.230396e+01	-2.804699e-05
1.237503e+01	-2.837192e-05
1.244651e+01	-2.870061e-05
1.251840e+01	-2.903312e-05
1.259070e+01	-2.936947e-05
1.266343e+01	-2.970973e-05
1.273657e+01	-3.005392e-05
1.281014e+01	-3.040210e-05
1.288413e+01	-3.075432e-05
1.295855e+01	-3.111061e-05
1.303339e+01	-3.147104e-05
1.310867e+01	-3.183564e-05
1.318439e+01	-3.220446e-05
1.326054e+01	-3.257756e-05
1.333713e+01	-3.295497e-05
1.341417e+01	-3.333677e-05
1.349165e+01	-3.372298e-05
1.356958e+01	-3.411367e-05
1.364795e+01	-3.450888e-05
1.372678e+01	-3.490868e-05
1.380607e+01	-3.531310e-05
1.388581e+01	-3.572221e-05
1.396602e+01	-3.613606e-05
1.404668e+01	-3.655471e-05
1.412782e+01	-3.697820e-05
1.420942e+01	-3.740660e-05
1.429149e+01	-3.783997e-05
1.437404e+01	-3.827835e-05
1.445706e+01	-3.872182e-05
1.454057e+01	-3.917042e-05
1.462455e+01	-3.962421e-05
1.470902e+01	-4.008327e-05
1.479398e+01	-4.054764e-05
1.487943e+01	-4.101740e-05
1.496537e+01	-4.149259e-05
1.505181e+01	-4.197329e-05
1.513875e+01	-4.245956e-05
1.522619e+01	-4.295147e-05
1.531414e+01	-4.344907e-05
1.540259e+01	-4.395244e-05
1.549156e+01	-4.446164e-05
1.558103e+01	-4.497673e-05
1.567103e+01	-4.549780e-05
1.576155e+01	-4.602490e-05
1.585258e+01	-4.655811e-05
1.594415e+01	-4.709749e-05
1.603624e+01	-4.764313e-05
1.612886e+01	-4.819509e-05
1.622202e+01	-4.875344e-05
1.631572e+01	-4.931825e-05
1.640996e+01	-4.988962e-05
1.650474e+01	-5.046760e-05
1.660008e+01	-5.105228e-05
1.669596e+01	-5.164373e-05
1.679239e+01	-5.224203e-05
1.688938e+01	-5.284727e-05
1.698694e+01	-5.345951e-05
1.708505e+01	-5.407885e-05
1.718373e+01	-5.470537e-05
1.728299e+01	-5.533914e-05
1.738281e+01	-5.598026e-05
1.748322e+01	-5.662880e-05
1.758420e+01	-5.728486e-05
1.768576e+01	-5.794851e-05
1.778792e+01	-5.861986e-05
1.789066e+01	-5.929898e-05
1.799399e+01	-5.998597e-05
1.809793e+01	-6.068092e-05
1.820246e+01	-6.138392e-05
1.830760e+01	-6.209506e-05
1.841334e+01	-6.281445e-05
1.851969e+01	-6.354217e-05
1.862666e+01	-6.427831e-05
1.873425e+01	-6.502299e-05
1.884246e+01	-6.577629e-05
1.895129e+01	-6.653833e-05
1.906075e+01	-6.730918e-05
1.917085e+01	-6.808897e-05
1.928158e+01	-6.887780e-05
1.939295e+01	-6.967576e-05
1.950496e+01	-7.048297e-05
1.961762e+01	-7.129953e-05
1.973093e+01	-7.212554e-05
1.984490e+01	-7.296113e-05
1.995952e+01	-7.380640e-05
2.007480e+01	-7.466146e-05
2.019076e+01	-7.552643e-05
2.030738e+01	-7.640141e-05
2.042467e+01	-7.728654e-05
2.054264e+01	-7.818191e-05
2.066130e+01	-7.908767e-05
2.078064e+01	-8.000391e-05
2.090066e+01	-8.093077e-05
2.102139e+01	-8.186837e-05
2.114280e+01	-8.281682e-05
2.126492e+01	-8.377627e-05
2.138775e+01	-8.474683e-05
2.151128e+01	-8.572864e-05
2.163553e+01	-8.672182e-05
2.176050e+01	-8.772651e-05
2.188619e+01	-8.874283e-05
2.201260e+01	-8.977093e-05
2.213974e+01	-9.081094e-05
2.226762e+01	-9.186300e-05
2.239624e+01	-9.292725e-05
2.252560e+01	-9.400382e-05
2.265571e+01	-9.509287e-05
2.278656e+01	-9.619454e-05
2.291818e+01	-9.730897e-05
2.305055e+01	-9.843631e-05
2.318369e+01	-9.957670e-05
2.331760e+01	-1.007303e-04
2.345228e+01	-1.018973e-04
2.358774e+01	-1.030778e-04
2.372398e+01	-1.042720e-04
2.386101e+01	-1.054800e-04
2.399883e+01	-1.067020e-04
2.413745e+01	-1.079381e-04
2.427686e+01	-1.091886e-04
2.441709e+01	-1.104536e-04
2.455812e+01	-1.117332e-04
2.469997e+01	-1.130276e-04
2.484263e+01	-1.143371e-04
2.498612e+01	-1.156617e-04
2.513044e+01	-1.170016e-04
2.527559e+01	-1.183571e-04
2.542158e+01	-1.197283e-04
2.556842e+01	-1.211153e-04
2.571610e+01	-1.225185e-04
2.586463e+01	-1.239379e-04
2.601403e+01	-1.253737e-04
2.616428e+01	-1.268262e-04
2.631541e+01	-1.282955e-04
2.646740e+01	-1.297818e-04
2.662028e+01	-1.312853e-04
2.677404e+01	-1.328063e-04
2.692868e+01	-1.343449e-04
2.708422e+01	-1.359013e-04
2.724066e+01	-1.374757e-04
2.739800e+01	-1.390683e-04
2.755625e+01	-1.406795e-04
2.771541e+01	-1.423093e-04
2.787550e+01	-1.439579e-04
2.803650e+01	-1.456257e-04
2.819844e+01	-1.473128e-04
2.836131e+01	-1.490194e-04
2.852513e+01	-1.507458e-04
2.868989e+01	-1.524922e-04
2.885560e+01	-1.542588e-04
2.902227e+01	-1.560459e-04
2.918990e+01	-1.578537e-04
2.935850e+01	-1.596825e-04
2.952807e+01	-1.615324e-04
2.969863e+01	-1.634038e-04
2.987016e+01	-1.652968e-04
3.004269e+01	-1.672118e-04
3.021622e+01	-1.691490e-04
3.039075e+01	-1.711085e-04
3.056628e+01	-1.730909e-04
3.074283e+01	-1.750961e-04
3.092040e+01	-1.771246e-04
3.109900e+01	-1.791766e-04
3.127862e+01	-1.812524e-04
3.145929e+01	-1.833522e-04
3.164099e+01	-1.854763e-04
3.182375e+01	-1.876251e-04
3.200756e+01	-1.897987e-04
3.219244e+01	-1.919975e-04
3.237838e+01	-1.942218e-04
3.256540e+01	-1.964719e-04
3.275349e+01	-1.987480e-04
3.294268e+01	-2.010505e-04
3.313295e+01	-2.033797e-04
3.332433e+01	-2.057359e-04
3.351681e+01	-2.081193e-04
3.371040e+01	-2.105304e-04
3.390511e+01	-2.129694e-04
3.410094e+01	-2.154366e-04
3.429791e+01	-2.179324e-04
3.449601e+01	-2.204572e-04
3.469526e+01	-2.230112e-04
3.489566e+01	-2.255948e-04
3.509721e+01	-2.282083e-04
3.529993e+01	-2.308521e-04
3.550382e+01	-2.335265e-04
3.570889e+01	-2.362319e-04
3.591515e+01	-2.389686e-04
3.612259e+01	-2.417370e-04
3.633123e+01	-2.445375e-04
3.654108e+01	-2.473705e-04
3.675214e+01	-2.502363e-04
3.696442e+01	-2.531352e-04
3.717792e+01	-2.560678e-04
3.739266e+01	-2.590343e-04
3.760864e+01	-2.620352e-04
3.782587e+01	-2.650709e-04
3.804435e+01	-2.681417e-04
3.826409e+01	-2.712481e-04
3.848510e+01	-2.743905e-04
3.870739e+01	-2.775693e-04
3.893096e+01	-2.807849e-04
3.915583e+01	-2.840378e-04
3.938199e+01	-2.873283e-04
3.960946e+01	-2.906570e-04
3.983824e+01	-2.940242e-04
4.006834e+01	-2.974304e-04
4.029978e+01	-3.008761e-04
4.053255e+01	-3.043617e-04
4.076666e+01	-3.078877e-04
4.100213e+01	-3.114546e-04
4.123896e+01	-3.150627e-04
4.147715e+01	-3.187127e-04
4.171672e+01	-3.224049e-04
4.195767e+01	-3.261399e-04
4.220002e+01	-3.299182e-04
4.244377e+01	-3.337403e-04
4.268892e+01	-3.376066e-04
4.293549e+01	-3.415177e-04
4.318348e+01	-3.454741e-04
4.343291e+01	-3.494764e-04
4.368377e+01	-3.535250e-04
4.393609e+01	-3.576205e-04
4.418986e+01	-3.617635e-04
4.444510e+01	-3.659544e-04
4.470182e+01	-3.701939e-04
4.496001e+01	-3.744825e-04
4.521970e+01	-3.788208e-04
4.548089e+01	-3.832094e-04
4.574358e+01	-3.876488e-04
4.600779e+01	-3.921396e-04
4.627353e+01	-3.966824e-04
4.654081e+01	-4.012779e-04
4.680963e+01	-4.059266e-04
4.708000e+01	-4.106291e-04
4.735193e+01	-4.153862e-04
4.762543e+01	-4.201983e-04
4.790051e+01	-4.250662e-04
4.817719e+01	-4.299904e-04
4.845545e+01	-4.349717e-04
4.873533e+01	-4.400107e-04
4.901682e+01	-4.451081e-04
4.929994e+01	-4.502646e-04
4.958470e+01	-4.554807e-04
4.987110e+01	-4.607573e-04
5.015915e+01	-4.660950e-04
5.044887e+01	-4.714946e-04
5.074026e+01	-4.769567e-04
5.103333e+01	-4.824820e-04
5.132810e+01	-4.880714e-04
5.162457e+01	-4.937255e-04
5.192275e+01	-4.994452e-04
5.222265e+01	-5.052310e-04
5.252429e+01	-5.110839e-04
5.282767e+01	-5.170046e-04
5.313280e+01	-5.229939e-04
5.343969e+01	-5.290526e-04
5.374836e+01	-5.351814e-04
5.405880e+01	-5.413812e-04
5.437105e+01	-5.476529e-04
5.468509e+01	-5.539972e-04
5.500095e+01	-5.604150e-04
5.531863e+01	-5.669071e-04
5.563815e+01	-5.734745e-04
5.595951e+01	-5.801179e-04
5.628273e+01	-5.868383e-04
5.660782e+01	-5.936365e-04
5.693479e+01	-6.005135e-04
5.726364e+01	-6.074701e-04
5.759439e+01	-6.145073e-04
5.792705e+01	-6.216260e-04
5.826164e+01	-6.288272e-04
5.859815e+01	-6.361118e-04
5.893662e+01	-6.434808e-04
5.927703e+01	-6.509351e-04
5.961941e+01	-6.584758e-04
5.996377e+01	-6.661039e-04
6.031012e+01	-6.738203e-04
6.065847e+01	-6.816260e-04
6.100883e+01	-6.895222e-04
6.136121e+01	-6.975099e-04
6.171563e+01	-7.055901e-04
6.207210e+01	-7.137639e-04
6.243063e+01	-7.220323e-04
6.279122e+01	-7.303966e-04
6.315390e+01	-7.388577e-04
6.351868e+01	-7.474168e-04
6.388556e+01	-7.560751e-04
6.425456e+01	-7.648337e-04
6.462569e+01	-7.736937e-04
6.499897e+01	-7.826563e-04
6.537440e+01	-7.917228e-04
6.575200e+01	-8.008943e-04
6.613178e+01	-8.101720e-04
6.651375e+01	-8.195572e-04
6.689793e+01	-8.290511e-04
6.728433e+01	-8.386549e-04
6.767297e+01	-8.483700e-04
6.806384e+01	-8.581976e-04
6.845698e+01	-8.681391e-04
6.885238e+01	-8.781957e-04
6.925007e+01	-8.883688e-04
6.965005e+01	-8.986597e-04
7.005235e+01	-9.090699e-04
7.045697e+01	-9.196006e-04
7.086393e+01	-9.302533e-04
7.127323e+01	-9.410293e-04
7.168490e+01	-9.519302e-04
7.209895e+01	-9.629574e-04
7.251539e+01	-9.741122e-04
7.293424e+01	-9.853963e-04
7.335551e+01	-9.968111e-04
7.377920e+01	-1.008358e-03
7.420535e+01	-1.020039e-03
7.463396e+01	-1.031855e-03
7.506504e+01	-1.043808e-03
7.549861e+01	-1.055899e-03
7.593469e+01	-1.068130e-03
7.637328e+01	-1.080503e-03
7.681441e+01	-1.093020e-03
7.725809e+01	-1.105681e-03
7.770433e+01	-1.118489e-03
7.815315e+01	-1.131445e-03
7.860456e+01	-1.144552e-03
7.905857e+01	-1.157810e-03
7.951521e+01	-1.171222e-03
7.997449e+01	-1.184789e-03
8.043642e+01	-1.198513e-03
8.090102e+01	-1.212396e-03
8.136830e+01	-1.226440e-03
8.183828e+01	-1.240647e-03
8.231097e+01	-1.255018e-03
8.278640e+01	-1.269555e-03
8.326457e+01	-1.284261e-03
8.374550e+01	-1.299138e-03
8.422921e+01	-1.314186e-03
8.471572e+01	-1.329409e-03
8.520503e+01	-1.344808e-03
8.569717e+01	-1.360386e-03
8.619215e+01	-1.376144e-03
8.669000e+01	-1.392084e-03
8.719071e+01	-1.408209e-03
8.769432e+01	-1.424521e-03
8.820084e+01	-1.441022e-03
8.871029e+01	-1.457714e-03
8.922267e+01	-1.474599e-03
8.973802e+01	-1.491679e-03
9.025634e+01	-1.508958e-03
9.077766e+01	-1.526437e-03
9.130199e+01	-1.544118e-03
9.182935e+01	-1.562003e-03
9.235975e+01	-1.580096e-03
9.289321e+01	-1.598399e-03
9.342976e+01	-1.616913e-03
9.396941e+01	-1.635642e-03
9.451217e+01	-1.654588e-03
9.505807e+01	-1.673753e-03
9.560712e+01	-1.693140e-03
9.615934e+01	-1.712752e-03
9.671476e+01	-1.732590e-03
9.727338e+01	-1.752659e-03
9.783522e+01	-1.772960e-03
9.840032e+01	-1.793496e-03
9.896867e+01	-1.814269e-03
9.954031e+01	-1.835284e-03
1.001153e+02	-1.856542e-03
1.006935e+02	-1.878045e-03
1.012751e+02	-1.899798e-03
1.018601e+02	-1.921803e-03
1.024484e+02	-1.944063e-03
1.030402e+02	-1.966580e-03
1.036353e+02	-1.989358e-03
1.042339e+02	-2.012400e-03
1.048360e+02	-2.035709e-03
1.054415e+02	-2.059288e-03
1.060505e+02	-2.083139e-03
1.066631e+02	-2.107267e-03
1.072791e+02	-2.131674e-03
1.078988e+02	-2.156364e-03
1.085220e+02	-2.181340e-03
1.091488e+02	-2.206605e-03
1.097793e+02	-2.232162e-03
1.104133e+02	-2.258016e-03
1.110511e+02	-2.284169e-03
1.116925e+02	-2.310624e-03
1.123376e+02	-2.337386e-03
1.129865e+02	-2.364458e-03
1.136391e+02	-2.391844e-03
1.142955e+02	-2.419546e-03
1.149556e+02	-2.447569e-03
1.156196e+02	-2.475917e-03
1.162874e+02	-2.504593e-03
1.169591e+02	-2.533601e-03
1.176347e+02	-2.562944e-03
1.183141e+02	-2.592628e-03
1.189975e+02	-2.622655e-03
1.196848e+02	-2.653030e-03
1.203761e+02	-2.683756e-03
1.210714e+02	-2.714839e-03
1.217707e+02	-2.746281e-03
1.224740e+02	-2.778087e-03
1.231814e+02	-2.810261e-03
1.238929e+02	-2.842808e-03
1.246085e+02	-2.875732e-03
1.253283e+02	-2.909037e-03
1.260522e+02	-2.942728e-03
1.267802e+02	-2.976808e-03
1.275125e+02	-3.011283e-03
1.282490e+02	-3.046158e-03
1.289898e+02	-3.081436e-03
1.297348e+02	-3.117122e-03
1.304842e+02	-3.153222e-03
1.312378e+02	-3.189739e-03
1.319959e+02	-3.226679e-03
1.327583e+02	-3.264047e-03
1.335251e+02	-3.301848e-03
1.342963e+02	-3.340086e-03
1.350720e+02	-3.378766e-03
1.358522e+02	-3.417895e-03
1.366368e+02	-3.457476e-03
1.374260e+02	-3.497516e-03
1.382198e+02	-3.538019e-03
1.390182e+02	-3.578991e-03
1.398211e+02	-3.620437e-03
1.406287e+02	-3.662363e-03
1.414410e+02	-3.704774e-03
1.422579e+02	-3.747677e-03
1.430796e+02	-3.791075e-03
1.439060e+02	-3.834977e-03
1.447372e+02	-3.879386e-03
1.455732e+02	-3.924309e-03
1.464141e+02	-3.969752e-03
1.472597e+02	-4.015722e-03
1.481103e+02	-4.062223e-03
1.489658e+02	-4.109263e-03
1.498262e+02	-4.156847e-03
1.506916e+02	-4.204982e-03
1.515620e+02	-4.253673e-03
1.524374e+02	-4.302929e-03
1.533179e+02	-4.352754e-03
1.542034e+02	-4.403157e-03
1.550941e+02	-4.454142e-03
1.559899e+02	-4.505718e-03
1.568909e+02	-4.557890e-03
1.577971e+02	-4.610666e-03
1.587085e+02	-4.664053e-03
1.596252e+02	-4.718058e-03
1.605472e+02	-4.772688e-03
1.614745e+02	-4.827950e-03
1.624072e+02	-4.883852e-03
1.633453e+02	-4.940400e-03
1.642887e+02	-4.997603e-03
1.652377e+02	-5.055468e-03
1.661921e+02	-5.114002e-03
1.671520e+02	-5.173214e-03
1.681175e+02	-5.233110e-03
1.690885e+02	-5.293700e-03
1.700651e+02	-5.354991e-03
1.710474e+02	-5.416991e-03
1.720354e+02	-5.479709e-03
1.730291e+02	-5.543152e-03
1.740285e+02	-5.607329e-03
1.750337e+02	-5.672249e-03
1.760446e+02	-5.737920e-03
1.770615e+02	-5.804351e-03
1.780842e+02	-5.871550e-03
1.791128e+02	-5.939527e-03
1.801473e+02	-6.008290e-03
1.811878e+02	-6.077849e-03
1.822344e+02	-6.148212e-03
1.832870e+02	-6.219390e-03
1.843456e+02	-6.291391e-03
1.854104e+02	-6.364225e-03
1.864813e+02	-6.437901e-03
1.875584e+02	-6.512430e-03
1.886418e+02	-6.587820e-03
1.897313e+02	-6.664083e-03
1.908272e+02	-6.741228e-03
1.919294e+02	-6.819266e-03
1.930380e+02	-6.898206e-03
1.941530e+02	-6.978059e-03
1.952744e+02	-7.058835e-03
1.964023e+02	-7.140546e-03
1.975367e+02	-7.223202e-03
1.986777e+02	-7.306814e-03
1.998252e+02	-7.391393e-03
2.009794e+02	-7.476951e-03
2.021403e+02	-7.563497e-03
2.033078e+02	-7.651045e-03
2.044821e+02	-7.739605e-03
2.056632e+02	-7.829189e-03
2.068511e+02	-7.919809e-03
2.080459e+02	-8.011478e-03
2.092475e+02	-8.104206e-03
2.104561e+02	-8.198006e-03
2.116717e+02	-8.292891e-03
2.128943e+02	-8.388873e-03
2.141240e+02	-8.485965e-03
2.153608e+02	-8.584180e-03
2.166047e+02	-8.683530e-03
2.178558e+02	-8.784029e-03
2.191141e+02	-8.885690e-03
2.203797e+02	-8.988526e-03
2.216526e+02	-9.092551e-03
2.229329e+02	-9.197778e-03
2.242205e+02	-9.304222e-03
2.255156e+02	-9.411897e-03
2.268182e+02	-9.520816e-03
2.281283e+02	-9.630995e-03
2.294459e+02	-9.742446e-03
2.307712e+02	-9.855187e-03
2.321041e+02	-9.969230e-03
2.334447e+02	-1.008459e-02
2.347931e+02	-1.020129e-02
2.361493e+02	-1.031933e-02
2.375133e+02	-1.043874e-02
2.388851e+02	-1.055953e-02
2.402649e+02	-1.068171e-02
2.416527e+02	-1.080531e-02
2.430484e+02	-1.093033e-02
2.444523e+02	-1.105680e-02
2.458642e+02	-1.118473e-02
2.472843e+02	-1.131414e-02
2.487126e+02	-1.144504e-02
2.501492e+02	-1.157746e-02
2.515940e+02	-1.171140e-02
2.530472e+02	-1.184690e-02
2.545088e+02	-1.198396e-02
2.559789e+02	-1.212260e-02
2.574574e+02	-1.226284e-02
2.589444e+02	-1.240471e-02
2.604401e+02	-1.254821e-02
2.619444e+02	-1.269337e-02
2.634574e+02	-1.284021e-02
2.649791e+02	-1.298874e-02
2.665096e+02	-1.313899e-02
2.680489e+02	-1.329098e-02
2.695972e+02	-1.344472e-02
2.711544e+02	-1.360023e-02
2.727205e+02	-1.375755e-02
2.742958e+02	-1.391667e-02
2.758801e+02	-1.407764e-02
2.774736e+02	-1.424047e-02
2.790762e+02	-1.440517e-02
2.806882e+02	-1.457178e-02
2.823094e+02	-1.474031e-02
2.839400e+02	-1.491078e-02
2.855800e+02	-1.508323e-02
2.872295e+02	-1.525766e-02
2.888886e+02	-1.543411e-02
2.905572e+02	-1.561260e-02
2.922354e+02	-1.579314e-02
2.939234e+02	-1.597577e-02
2.956211e+02	-1.616051e-02
2.973286e+02	-1.634738e-02
2.990459e+02	-1.653641e-02
3.007732e+02	-1.672761e-02
3.025104e+02	-1.692103e-02
3.042577e+02	-1.711667e-02
3.060151e+02	-1.731458e-02
3.077826e+02	-1.751477e-02
3.095604e+02	-1.771726e-02
3.113484e+02	-1.792210e-02
3.131467e+02	-1.812930e-02
3.149554e+02	-1.833888e-02
3.167746e+02	-1.855089e-02
3.186043e+02	-1.876534e-02
3.204445e+02	-1.898226e-02
3.222954e+02	-1.920169e-02
3.241570e+02	-1.942365e-02
3.260293e+02	-1.964816e-02
3.279124e+02	-1.987527e-02
3.298064e+02	-2.010499e-02
3.317114e+02	-2.033737e-02
3.336273e+02	-2.057242e-02
3.355544e+02	-2.081019e-02
3.374925e+02	-2.105069e-02
3.394418e+02	-2.129397e-02
3.414024e+02	-2.154005e-02
3.433744e+02	-2.178897e-02
3.453577e+02	-2.204076e-02
3.473525e+02	-2.229545e-02
3.493588e+02	-2.255307e-02
3.513766e+02	-2.281367e-02
3.534062e+02	-2.307726e-02
3.554474e+02	-2.334390e-02
3.575005e+02	-2.361361e-02
3.595654e+02	-2.388642e-02
3.616422e+02	-2.416238e-02
3.637311e+02	-2.444152e-02
3.658320e+02	-2.472387e-02
3.679450e+02	-2.500947e-02
3.700702e+02	-2.529837e-02
3.722077e+02	-2.559059e-02
3.743576e+02	-2.588618e-02
3.765199e+02	-2.618517e-02
3.786946e+02	-2.648760e-02
3.808820e+02	-2.679352e-02
3.830819e+02	-2.710295e-02
3.852946e+02	-2.741595e-02
3.875200e+02	-2.773256e-02
3.897583e+02	-2.805280e-02
3.920096e+02	-2.837674e-02
3.942738e+02	-2.870440e-02
3.965511e+02	-2.903583e-02
3.988416e+02	-2.937108e-02
4.011452e+02	-2.971018e-02
4.034622e+02	-3.005319e-02
4.057926e+02	-3.040014e-02
4.081365e+02	-3.075108e-02
4.104938e+02	-3.110606e-02
4.128648e+02	-3.146512e-02
4.152495e+02	-3.182831e-02
4.176480e+02	-3.219568e-02
4.200603e+02	-3.256727e-02
4.224866e+02	-3.294314e-02
4.249268e+02	-3.332332e-02
4.273812e+02	-3.370788e-02
4.298497e+02	-3.409686e-02
4.323325e+02	-3.449030e-02
4.348297e+02	-3.488827e-02
4.373412e+02	-3.529082e-02
4.398673e+02	-3.569798e-02
4.424079e+02	-3.610983e-02
4.449633e+02	-3.652641e-02
4.475334e+02	-3.694777e-02
4.501183e+02	-3.737397e-02
4.527182e+02	-3.780507e-02
4.553330e+02	-3.824112e-02
4.579630e+02	-3.868217e-02
4.606082e+02	-3.912829e-02
4.632687e+02	-3.957953e-02
4.659445e+02	-4.003595e-02
4.686358e+02	-4.049761e-02
4.713426e+02	-4.096457e-02
4.740650e+02	-4.143688e-02
4.768032e+02	-4.191461e-02
4.795572e+02	-4.239783e-02
4.823271e+02	-4.288659e-02
4.851130e+02	-4.338095e-02
4.879150e+02	-4.388099e-02
4.907332e+02	-4.438676e-02
4.935676e+02	-4.489832e-02
4.964185e+02	-4.541576e-02
4.992858e+02	-4.593912e-02
5.021696e+02	-4.646848e-02
5.050701e+02	-4.700391e-02
5.079874e+02	-4.754548e-02
5.109215e+02	-4.809325e-02
5.138726e+02	-4.864729e-02
5.168407e+02	-4.920768e-02
5.198259e+02	-4.977449e-02
5.228284e+02	-5.034780e-02
5.258482e+02	-5.092766e-02
5.288855e+02	-5.151416e-02
5.319403e+02	-5.210738e-02
5.350128e+02	-5.270739e-02
5.381030e+02	-5.331426e-02
5.412111e+02	-5.392808e-02
5.443371e+02	-5.454892e-02
5.474812e+02	-5.517686e-02
5.506434e+02	-5.581199e-02
5.538239e+02	-5.645438e-02
5.570228e+02	-5.710411e-02
5.602401e+02	-5.776127e-02
5.634760e+02	-5.842594e-02
5.667306e+02	-5.909821e-02
5.700040e+02	-5.977816e-02
5.732964e+02	-6.046587e-02
5.766077e+02	-6.116145e-02
5.799382e+02	-6.186497e-02
5.832879e+02	-6.257652e-02
5.866569e+02	-6.329619e-02
5.900454e+02	-6.402409e-02
5.934535e+02	-6.476029e-02
5.968813e+02	-6.550489e-02
6.003288e+02	-6.625798e-02
6.037963e+02	-6.701967e-02
6.072838e+02	-6.779005e-02
6.107914e+02	-6.856921e-02
6.143194e+02	-6.935725e-02
6.178676e+02	-7.015428e-02
6.214364e+02	-7.096039e-02
6.250258e+02	-7.177569e-02
6.286359e+02	-7.260028e-02
6.322669e+02	-7.343426e-02
6.359189e+02	-7.427773e-02
6.395919e+02	-7.513081e-02
6.432862e+02	-7.599361e-02
6.470017e+02	-7.686622e-02
6.507388e+02	-7.774876e-02
6.544974e+02	-7.864135e-02
6.582778e+02	-7.954409e-02
6.620800e+02	-8.045709e-02
6.659041e+02	-8.138047e-02
6.697504e+02	-8.231436e-02
6.736188e+02	-8.325885e-02
6.775096e+02	-8.421408e-02
6.814229e+02	-8.518016e-02
6.853587e+02	-8.615721e-02
6.893173e+02	-8.714535e-02
6.932988e+02	-8.814472e-02
6.973033e+02	-8.915542e-02
7.013309e+02	-9.017759e-02
