Frequency(Hz)	Magnitude(dB)
1.000000e+01	-1.936012e+00
1.005776e+01	-1.953954e+00
1.011585e+01	-1.972060e+00
1.017428e+01	-1.990458e+00
1.023305e+01	-2.008970e+00
1.029215e+01	-2.027823e+00
1.035160e+01	-2.046163e+00
1.041139e+01	-2.065031e+00
1.047153e+01	-2.084100e+00
1.053201e+01	-2.103391e+00
1.059284e+01	-2.122648e+00
1.065403e+01	-2.141901e+00
1.071556e+01	-2.161591e+00
1.077746e+01	-2.181178e+00
1.083971e+01	-2.200908e+00
1.090232e+01	-2.221088e+00
1.096529e+01	-2.241088e+00
1.102862e+01	-2.261308e+00
1.109232e+01	-2.281655e+00
1.115639e+01	-2.302368e+00
1.122083e+01	-2.322887e+00
1.128564e+01	-2.343736e+00
1.135083e+01	-2.364568e+00
1.141639e+01	-2.385585e+00
1.148233e+01	-2.407085e+00
1.154865e+01	-2.428327e+00
1.161536e+01	-2.449863e+00
1.168245e+01	-2.471470e+00
1.174992e+01	-2.493124e+00
1.181779e+01	-2.514978e+00
1.188605e+01	-2.537296e+00
1.195470e+01	-2.559245e+00
1.202375e+01	-2.581674e+00
1.209320e+01	-2.604191e+00
1.216305e+01	-2.626793e+00
1.223330e+01	-2.649530e+00
1.230396e+01	-2.672241e+00
1.237503e+01	-2.695692e+00
1.244651e+01	-2.718823e+00
1.251840e+01	-2.742048e+00
1.259070e+01	-2.765515e+00
1.266343e+01	-2.789261e+00
1.273657e+01	-2.813099e+00
1.281014e+01	-2.836856e+00
1.288413e+01	-2.861084e+00
1.295855e+01	-2.884961e+00
1.303339e+01	-2.909587e+00
1.310867e+01	-2.934073e+00
1.318439e+01	-2.958659e+00
1.326054e+01	-2.983328e+00
1.333713e+01	-3.008678e+00
1.341417e+01	-3.033296e+00
1.349165e+01	-3.058747e+00
1.356958e+01	-3.083994e+00
1.364795e+01	-3.109619e+00
1.372678e+01	-3.135197e+00
1.380607e+01	-3.161146e+00
1.388581e+01	-3.186964e+00
1.396602e+01	-3.213022e+00
1.404668e+01	-3.239357e+00
1.412782e+01	-3.265578e+00
1.420942e+01	-3.292120e+00
1.429149e+01	-3.318808e+00
1.437404e+01	-3.345605e+00
1.445706e+01	-3.372634e+00
1.454057e+01	-3.399485e+00
1.462455e+01	-3.426944e+00
1.470902e+01	-3.454189e+00
1.479398e+01	-3.481683e+00
1.487943e+01	-3.509608e+00
1.496537e+01	-3.537164e+00
1.505181e+01	-3.564958e+00
1.513875e+01	-3.593118e+00
1.522619e+01	-3.621244e+00
1.531414e+01	-3.649692e+00
1.540259e+01	-3.678294e+00
1.549156e+01	-3.706896e+00
1.558103e+01	-3.735711e+00
1.567103e+01	-3.764638e+00
1.576155e+01	-3.793899e+00
1.585258e+01	-3.822985e+00
1.594415e+01	-3.852251e+00
1.603624e+01	-3.881692e+00
1.612886e+01	-3.911428e+00
1.622202e+01	-3.941159e+00
1.631572e+01	-3.970995e+00
1.640996e+01	-4.000967e+00
1.650474e+01	-4.031208e+00
1.660008e+01	-4.061330e+00
1.669596e+01	-4.092160e+00
1.679239e+01	-4.122633e+00
1.688938e+01	-4.153540e+00
1.698694e+01	-4.184426e+00
1.708505e+01	-4.215330e+00
1.718373e+01	-4.246396e+00
1.728299e+01	-4.277710e+00
1.738281e+01	-4.309054e+00
1.748322e+01	-4.340747e+00
1.758420e+01	-4.372418e+00
1.768576e+01	-4.404120e+00
1.778792e+01	-4.436089e+00
1.789066e+01	-4.468264e+00
1.799399e+01	-4.500533e+00
1.809793e+01	-4.532650e+00
1.820246e+01	-4.565326e+00
1.830760e+01	-4.597973e+00
1.841334e+01	-4.630509e+00
1.851969e+01	-4.663144e+00
1.862666e+01	-4.696553e+00
1.873425e+01	-4.729405e+00
1.884246e+01	-4.762809e+00
1.895129e+01	-4.796223e+00
1.906075e+01	-4.829634e+00
1.917085e+01	-4.863216e+00
1.928158e+01	-4.897366e+00
1.939295e+01	-4.931060e+00
1.950496e+01	-4.965247e+00
1.961762e+01	-4.998981e+00
1.973093e+01	-5.033315e+00
1.984490e+01	-5.068011e+00
1.995952e+01	-5.102330e+00
2.007480e+01	-5.136999e+00
2.019076e+01	-5.171703e+00
2.030738e+01	-5.206408e+00
2.042467e+01	-5.241379e+00
2.054264e+01	-5.276597e+00
2.066130e+01	-5.311896e+00
2.078064e+01	-5.347455e+00
2.090066e+01	-5.382584e+00
2.102139e+01	-5.418413e+00
2.114280e+01	-5.454161e+00
2.126492e+01	-5.489952e+00
2.138775e+01	-5.526139e+00
2.151128e+01	-5.562348e+00
2.163553e+01	-5.598462e+00
2.176050e+01	-5.634529e+00
2.188619e+01	-5.670997e+00
2.201260e+01	-5.707670e+00
2.213974e+01	-5.743787e+00
2.226762e+01	-5.780794e+00
2.239624e+01	-5.817655e+00
2.252560e+01	-5.855001e+00
2.265571e+01	-5.891457e+00
2.278656e+01	-5.929002e+00
2.291818e+01	-5.966454e+00
2.305055e+01	-6.003512e+00
2.318369e+01	-6.041056e+00
2.331760e+01	-6.078917e+00
2.345228e+01	-6.116384e+00
2.358774e+01	-6.154312e+00
2.372398e+01	-6.192234e+00
2.386101e+01	-6.230462e+00
2.399883e+01	-6.268726e+00
2.413745e+01	-6.306577e+00
2.427686e+01	-6.345142e+00
2.441709e+01	-6.383526e+00
2.455812e+01	-6.422017e+00
2.469997e+01	-6.461023e+00
2.484263e+01	-6.499868e+00
2.498612e+01	-6.538665e+00
2.513044e+01	-6.577726e+00
2.527559e+01	-6.616556e+00
2.542158e+01	-6.655772e+00
2.556842e+01	-6.695016e+00
2.571610e+01	-6.734435e+00
2.586463e+01	-6.773629e+00
2.601403e+01	-6.813700e+00
2.616428e+01	-6.853219e+00
2.631541e+01	-6.893046e+00
2.646740e+01	-6.932471e+00
2.662028e+01	-6.972799e+00
2.677404e+01	-7.012974e+00
2.692868e+01	-7.052777e+00
2.708422e+01	-7.092888e+00
2.724066e+01	-7.133268e+00
2.739800e+01	-7.173813e+00
2.755625e+01	-7.214309e+00
2.771541e+01	-7.254530e+00
2.787550e+01	-7.295631e+00
2.803650e+01	-7.336026e+00
2.819844e+01	-7.376818e+00
2.836131e+01	-7.417499e+00
2.852513e+01	-7.458811e+00
2.868989e+01	-7.499637e+00
2.885560e+01	-7.541021e+00
2.902227e+01	-7.582240e+00
2.918990e+01	-7.623828e+00
2.935850e+01	-7.665223e+00
2.952807e+01	-7.706571e+00
2.969863e+01	-7.748375e+00
2.987016e+01	-7.790186e+00
3.004269e+01	-7.831597e+00
3.021622e+01	-7.873022e+00
3.039075e+01	-7.915396e+00
3.056628e+01	-7.957725e+00
3.074283e+01	-7.999211e+00
3.092040e+01	-8.041320e+00
3.109900e+01	-8.083413e+00
3.127862e+01	-8.126034e+00
3.145929e+01	-8.168708e+00
3.164099e+01	-8.211126e+00
3.182375e+01	-8.253412e+00
3.200756e+01	-8.295716e+00
3.219244e+01	-8.338307e+00
3.237838e+01	-8.381172e+00
3.256540e+01	-8.424194e+00
3.275349e+01	-8.467043e+00
3.294268e+01	-8.509812e+00
3.313295e+01	-8.552824e+00
3.332433e+01	-8.596025e+00
3.351681e+01	-8.639176e+00
3.371040e+01	-8.682138e+00
3.390511e+01	-8.724952e+00
3.410094e+01	-8.768800e+00
3.429791e+01	-8.812483e+00
3.449601e+01	-8.855856e+00
3.469526e+01	-8.899491e+00
3.489566e+01	-8.942786e+00
3.509721e+01	-8.986334e+00
3.529993e+01	-9.030601e+00
3.550382e+01	-9.074264e+00
3.570889e+01	-9.118219e+00
3.591515e+01	-9.162007e+00
3.612259e+01	-9.206108e+00
3.633123e+01	-9.250161e+00
3.654108e+01	-9.293891e+00
3.675214e+01	-9.338599e+00
3.696442e+01	-9.382545e+00
3.717792e+01	-9.426790e+00
3.739266e+01	-9.471083e+00
3.760864e+01	-9.516072e+00
3.782587e+01	-9.560207e+00
3.804435e+01	-9.604758e+00
3.826409e+01	-9.649116e+00
3.848510e+01	-9.694334e+00
3.870739e+01	-9.738403e+00
3.893096e+01	-9.783394e+00
3.915583e+01	-9.828148e+00
3.938199e+01	-9.872928e+00
3.960946e+01	-9.917611e+00
3.983824e+01	-9.962683e+00
4.006834e+01	-1.000782e+01
4.029978e+01	-1.005235e+01
4.053255e+01	-1.009789e+01
4.076666e+01	-1.014355e+01
4.100213e+01	-1.018825e+01
4.123896e+01	-1.023337e+01
4.147715e+01	-1.027953e+01
4.171672e+01	-1.032359e+01
4.195767e+01	-1.037015e+01
4.220002e+01	-1.041459e+01
4.244377e+01	-1.046024e+01
4.268892e+01	-1.050634e+01
4.293549e+01	-1.055164e+01
4.318348e+01	-1.059713e+01
4.343291e+01	-1.064317e+01
4.368377e+01	-1.068877e+01
4.393609e+01	-1.073469e+01
4.418986e+01	-1.078028e+01
4.444510e+01	-1.082642e+01
4.470182e+01	-1.087166e+01
4.496001e+01	-1.091844e+01
4.521970e+01	-1.096411e+01
4.548089e+01	-1.101064e+01
4.574358e+01	-1.105688e+01
4.600779e+01	-1.110243e+01
4.627353e+01	-1.114837e+01
4.654081e+01	-1.119491e+01
4.680963e+01	-1.124062e+01
4.708000e+01	-1.128731e+01
4.735193e+01	-1.133350e+01
4.762543e+01	-1.138006e+01
4.790051e+01	-1.142673e+01
4.817719e+01	-1.147281e+01
4.845545e+01	-1.151948e+01
4.873533e+01	-1.156597e+01
4.901682e+01	-1.161227e+01
4.929994e+01	-1.165940e+01
4.958470e+01	-1.170494e+01
4.987110e+01	-1.175187e+01
5.015915e+01	-1.179939e+01
5.044887e+01	-1.184606e+01
5.074026e+01	-1.189261e+01
5.103333e+01	-1.193931e+01
5.132810e+01	-1.198667e+01
5.162457e+01	-1.203345e+01
5.192275e+01	-1.208044e+01
5.222265e+01	-1.212703e+01
5.252429e+01	-1.217415e+01
5.282767e+01	-1.222081e+01
5.313280e+01	-1.226820e+01
5.343969e+01	-1.231502e+01
5.374836e+01	-1.236244e+01
5.405880e+01	-1.240967e+01
5.437105e+01	-1.245666e+01
5.468509e+01	-1.250413e+01
5.500095e+01	-1.255103e+01
5.531863e+01	-1.259803e+01
5.563815e+01	-1.264557e+01
5.595951e+01	-1.269295e+01
5.628273e+01	-1.274018e+01
5.660782e+01	-1.278838e+01
5.693479e+01	-1.283447e+01
5.726364e+01	-1.288236e+01
5.759439e+01	-1.293058e+01
5.792705e+01	-1.297788e+01
5.826164e+01	-1.302473e+01
5.859815e+01	-1.307275e+01
5.893662e+01	-1.311953e+01
5.927703e+01	-1.316801e+01
5.961941e+01	-1.321557e+01
5.996377e+01	-1.326385e+01
6.031012e+01	-1.331014e+01
6.065847e+01	-1.335825e+01
6.100883e+01	-1.340506e+01
6.136121e+01	-1.345273e+01
6.171563e+01	-1.350211e+01
6.207210e+01	-1.354906e+01
6.243063e+01	-1.359679e+01
6.279122e+01	-1.364525e+01
6.315390e+01	-1.369276e+01
6.351868e+01	-1.374064e+01
6.388556e+01	-1.378865e+01
6.425456e+01	-1.383801e+01
6.462569e+01	-1.388505e+01
6.499897e+01	-1.393273e+01
6.537440e+01	-1.398108e+01
6.575200e+01	-1.402932e+01
6.613178e+01	-1.407682e+01
6.651375e+01	-1.412517e+01
6.689793e+01	-1.417248e+01
6.728433e+01	-1.422140e+01
6.767297e+01	-1.426931e+01
6.806384e+01	-1.431720e+01
6.845698e+01	-1.436562e+01
6.885238e+01	-1.441322e+01
6.925007e+01	-1.446218e+01
6.965005e+01	-1.451080e+01
7.005235e+01	-1.455803e+01
7.045697e+01	-1.460652e+01
7.086393e+01	-1.465515e+01
7.127323e+01	-1.470314e+01
7.168490e+01	-1.475187e+01
7.209895e+01	-1.479998e+01
7.251539e+01	-1.484907e+01
7.293424e+01	-1.489692e+01
7.335551e+01	-1.494524e+01
7.377920e+01	-1.499381e+01
7.420535e+01	-1.504286e+01
7.463396e+01	-1.509190e+01
7.506504e+01	-1.513856e+01
7.549861e+01	-1.518779e+01
7.593469e+01	-1.523603e+01
7.637328e+01	-1.528542e+01
7.681441e+01	-1.533338e+01
7.725809e+01	-1.538234e+01
7.770433e+01	-1.543068e+01
7.815315e+01	-1.548002e+01
7.860456e+01	-1.552747e+01
7.905857e+01	-1.557604e+01
7.951521e+01	-1.562461e+01
7.997449e+01	-1.567306e+01
8.043642e+01	-1.572320e+01
8.090102e+01	-1.577122e+01
8.136830e+01	-1.582057e+01
8.183828e+01	-1.586751e+01
8.231097e+01	-1.591709e+01
8.278640e+01	-1.596546e+01
8.326457e+01	-1.601383e+01
8.374550e+01	-1.606346e+01
8.422921e+01	-1.611211e+01
8.471572e+01	-1.616003e+01
8.520503e+01	-1.620946e+01
8.569717e+01	-1.625866e+01
8.619215e+01	-1.630713e+01
8.669000e+01	-1.635589e+01
8.719071e+01	-1.640544e+01
8.769432e+01	-1.645402e+01
8.820084e+01	-1.650325e+01
8.871029e+01	-1.655241e+01
8.922267e+01	-1.660167e+01
8.973802e+01	-1.665061e+01
9.025634e+01	-1.669871e+01
9.077766e+01	-1.674741e+01
9.130199e+01	-1.679726e+01
9.182935e+01	-1.684572e+01
9.235975e+01	-1.689467e+01
9.289321e+01	-1.694386e+01
9.342976e+01	-1.699327e+01
9.396941e+01	-1.704249e+01
9.451217e+01	-1.709120e+01
9.505807e+01	-1.714053e+01
9.560712e+01	-1.718910e+01
9.615934e+01	-1.723716e+01
9.671476e+01	-1.728714e+01
9.727338e+01	-1.733689e+01
9.783522e+01	-1.738468e+01
9.840032e+01	-1.743464e+01
9.896867e+01	-1.748422e+01
9.954031e+01	-1.753276e+01
1.001153e+02	-1.758239e+01
1.006935e+02	-1.763076e+01
1.012751e+02	-1.768077e+01
1.018601e+02	-1.773068e+01
1.024484e+02	-1.777905e+01
1.030402e+02	-1.782822e+01
1.036353e+02	-1.787693e+01
1.042339e+02	-1.792616e+01
1.048360e+02	-1.797534e+01
1.054415e+02	-1.802400e+01
1.060505e+02	-1.807486e+01
1.066631e+02	-1.812305e+01
1.072791e+02	-1.817286e+01
1.078988e+02	-1.822152e+01
1.085220e+02	-1.827193e+01
1.091488e+02	-1.831888e+01
1.097793e+02	-1.837003e+01
1.104133e+02	-1.841797e+01
1.110511e+02	-1.846756e+01
1.116925e+02	-1.851907e+01
1.123376e+02	-1.856654e+01
1.129865e+02	-1.861637e+01
1.136391e+02	-1.866713e+01
1.142955e+02	-1.871506e+01
1.149556e+02	-1.876371e+01
1.156196e+02	-1.881509e+01
1.162874e+02	-1.886342e+01
1.169591e+02	-1.891207e+01
1.176347e+02	-1.896219e+01
1.183141e+02	-1.901127e+01
1.189975e+02	-1.906150e+01
1.196848e+02	-1.911026e+01
1.203761e+02	-1.915971e+01
1.210714e+02	-1.920814e+01
1.217707e+02	-1.925842e+01
1.224740e+02	-1.930870e+01
1.231814e+02	-1.935746e+01
1.238929e+02	-1.940615e+01
1.246085e+02	-1.945630e+01
1.253283e+02	-1.950592e+01
1.260522e+02	-1.955540e+01
1.267802e+02	-1.960534e+01
1.275125e+02	-1.965450e+01
1.282490e+02	-1.970409e+01
1.289898e+02	-1.975363e+01
1.297348e+02	-1.980337e+01
1.304842e+02	-1.985340e+01
1.312378e+02	-1.990216e+01
1.319959e+02	-1.995015e+01
1.327583e+02	-2.000044e+01
1.335251e+02	-2.005160e+01
1.342963e+02	-2.009923e+01
1.350720e+02	-2.014946e+01
1.358522e+02	-2.019981e+01
1.366368e+02	-2.024833e+01
1.374260e+02	-2.029792e+01
1.382198e+02	-2.034712e+01
1.390182e+02	-2.039814e+01
1.398211e+02	-2.044633e+01
1.406287e+02	-2.049765e+01
1.414410e+02	-2.054596e+01
1.422579e+02	-2.059515e+01
1.430796e+02	-2.064650e+01
1.439060e+02	-2.069540e+01
1.447372e+02	-2.074625e+01
1.455732e+02	-2.079523e+01
1.464141e+02	-2.084355e+01
1.472597e+02	-2.089270e+01
1.481103e+02	-2.094323e+01
1.489658e+02	-2.099453e+01
1.498262e+02	-2.104101e+01
1.506916e+02	-2.109240e+01
1.515620e+02	-2.114159e+01
1.524374e+02	-2.119158e+01
1.533179e+02	-2.124206e+01
1.542034e+02	-2.129165e+01
1.550941e+02	-2.134069e+01
1.559899e+02	-2.138862e+01
1.568909e+02	-2.143961e+01
1.577971e+02	-2.149064e+01
1.587085e+02	-2.153968e+01
1.596252e+02	-2.158896e+01
1.605472e+02	-2.163860e+01
1.614745e+02	-2.168700e+01
1.624072e+02	-2.173722e+01
1.633453e+02	-2.178858e+01
1.642887e+02	-2.183616e+01
1.652377e+02	-2.188626e+01
1.661921e+02	-2.193636e+01
1.671520e+02	-2.198631e+01
1.681175e+02	-2.203537e+01
1.690885e+02	-2.208594e+01
1.700651e+02	-2.213574e+01
1.710474e+02	-2.218414e+01
1.720354e+02	-2.223525e+01
1.730291e+02	-2.228508e+01
1.740285e+02	-2.233380e+01
1.750337e+02	-2.238492e+01
1.760446e+02	-2.243405e+01
1.770615e+02	-2.248541e+01
1.780842e+02	-2.253379e+01
1.791128e+02	-2.258379e+01
1.801473e+02	-2.263502e+01
1.811878e+02	-2.268130e+01
1.822344e+02	-2.273340e+01
1.832870e+02	-2.278135e+01
1.843456e+02	-2.283424e+01
1.854104e+02	-2.288124e+01
1.864813e+02	-2.293058e+01
1.875584e+02	-2.298111e+01
1.886418e+02	-2.303130e+01
1.897313e+02	-2.308004e+01
1.908272e+02	-2.313141e+01
1.919294e+02	-2.318146e+01
1.930380e+02	-2.323124e+01
1.941530e+02	-2.328093e+01
1.952744e+02	-2.333188e+01
1.964023e+02	-2.337892e+01
1.975367e+02	-2.342980e+01
1.986777e+02	-2.347738e+01
1.998252e+02	-2.352906e+01
2.009794e+02	-2.357932e+01
2.021403e+02	-2.363023e+01
2.033078e+02	-2.368012e+01
2.044821e+02	-2.372975e+01
2.056632e+02	-2.377814e+01
2.068511e+02	-2.382788e+01
2.080459e+02	-2.387833e+01
2.092475e+02	-2.392971e+01
2.104561e+02	-2.397762e+01
2.116717e+02	-2.402842e+01
2.128943e+02	-2.407875e+01
2.141240e+02	-2.412717e+01
2.153608e+02	-2.417658e+01
2.166047e+02	-2.422791e+01
2.178558e+02	-2.427995e+01
2.191141e+02	-2.432909e+01
2.203797e+02	-2.437774e+01
2.216526e+02	-2.442433e+01
2.229329e+02	-2.447779e+01
2.242205e+02	-2.452722e+01
2.255156e+02	-2.457780e+01
2.268182e+02	-2.462815e+01
2.281283e+02	-2.467778e+01
2.294459e+02	-2.472685e+01
2.307712e+02	-2.477630e+01
2.321041e+02	-2.482735e+01
2.334447e+02	-2.487795e+01
2.347931e+02	-2.492615e+01
2.361493e+02	-2.497928e+01
2.375133e+02	-2.502558e+01
2.388851e+02	-2.507530e+01
2.402649e+02	-2.512443e+01
2.416527e+02	-2.517674e+01
2.430484e+02	-2.522700e+01
2.444523e+02	-2.527407e+01
2.458642e+02	-2.532573e+01
2.472843e+02	-2.537320e+01
2.487126e+02	-2.542621e+01
2.501492e+02	-2.547512e+01
2.515940e+02	-2.552382e+01
2.530472e+02	-2.557587e+01
2.545088e+02	-2.562722e+01
2.559789e+02	-2.567675e+01
2.574574e+02	-2.572497e+01
2.589444e+02	-2.577424e+01
2.604401e+02	-2.582569e+01
2.619444e+02	-2.587341e+01
2.634574e+02	-2.592372e+01
2.649791e+02	-2.597435e+01
2.665096e+02	-2.602850e+01
2.680489e+02	-2.607753e+01
2.695972e+02	-2.612503e+01
2.711544e+02	-2.617271e+01
2.727205e+02	-2.622438e+01
2.742958e+02	-2.627386e+01
2.758801e+02	-2.632277e+01
2.774736e+02	-2.637551e+01
2.790762e+02	-2.642770e+01
2.806882e+02	-2.647611e+01
2.823094e+02	-2.652555e+01
2.839400e+02	-2.658194e+01
2.855800e+02	-2.662294e+01
2.872295e+02	-2.667671e+01
2.888886e+02	-2.672247e+01
2.905572e+02	-2.677597e+01
2.922354e+02	-2.682127e+01
2.939234e+02	-2.687520e+01
2.956211e+02	-2.692409e+01
2.973286e+02	-2.697467e+01
2.990459e+02	-2.702299e+01
3.007732e+02	-2.707125e+01
3.025104e+02	-2.712405e+01
3.042577e+02	-2.717302e+01
3.060151e+02	-2.722556e+01
3.077826e+02	-2.727563e+01
3.095604e+02	-2.732535e+01
3.113484e+02	-2.737232e+01
3.131467e+02	-2.742513e+01
3.149554e+02	-2.747579e+01
3.167746e+02	-2.752349e+01
3.186043e+02	-2.756964e+01
3.204445e+02	-2.762309e+01
3.222954e+02	-2.767507e+01
3.241570e+02	-2.772438e+01
3.260293e+02	-2.777476e+01
3.279124e+02	-2.782345e+01
3.298064e+02	-2.787285e+01
3.317114e+02	-2.792630e+01
3.336273e+02	-2.797416e+01
3.355544e+02	-2.802256e+01
3.374925e+02	-2.807591e+01
3.394418e+02	-2.812667e+01
3.414024e+02	-2.817317e+01
3.433744e+02	-2.822191e+01
3.453577e+02	-2.827166e+01
3.473525e+02	-2.832516e+01
3.493588e+02	-2.837698e+01
3.513766e+02	-2.842361e+01
3.534062e+02	-2.847160e+01
3.554474e+02	-2.852753e+01
3.575005e+02	-2.857596e+01
3.595654e+02	-2.862313e+01
3.616422e+02	-2.867752e+01
3.637311e+02	-2.872661e+01
3.658320e+02	-2.878234e+01
3.679450e+02	-2.882488e+01
3.700702e+02	-2.887370e+01
3.722077e+02	-2.892866e+01
3.743576e+02	-2.897249e+01
3.765199e+02	-2.902580e+01
3.786946e+02	-2.907712e+01
3.808820e+02	-2.912718e+01
3.830819e+02	-2.917757e+01
3.852946e+02	-2.922584e+01
3.875200e+02	-2.927139e+01
3.897583e+02	-2.932604e+01
3.920096e+02	-2.937467e+01
3.942738e+02	-2.942319e+01
3.965511e+02	-2.947829e+01
3.988416e+02	-2.952974e+01
4.011452e+02	-2.957370e+01
4.034622e+02	-2.962224e+01
4.057926e+02	-2.967437e+01
4.081365e+02	-2.972372e+01
4.104938e+02	-2.977737e+01
4.128648e+02	-2.983122e+01
4.152495e+02	-2.987653e+01
4.176480e+02	-2.992628e+01
4.200603e+02	-2.997543e+01
4.224866e+02	-3.002832e+01
4.249268e+02	-3.007606e+01
4.273812e+02	-3.012633e+01
4.298497e+02	-3.017516e+01
4.323325e+02	-3.022773e+01
4.348297e+02	-3.027470e+01
4.373412e+02	-3.033225e+01
4.398673e+02	-3.037869e+01
4.424079e+02	-3.042978e+01
4.449633e+02	-3.047304e+01
4.475334e+02	-3.052757e+01
4.501183e+02	-3.058162e+01
4.527182e+02	-3.063388e+01
4.553330e+02	-3.067618e+01
4.579630e+02	-3.072878e+01
4.606082e+02	-3.078242e+01
4.632687e+02	-3.083528e+01
4.659445e+02	-3.088448e+01
4.686358e+02	-3.093224e+01
4.713426e+02	-3.097793e+01
4.740650e+02	-3.102764e+01
4.768032e+02	-3.107959e+01
4.795572e+02	-3.113420e+01
4.823271e+02	-3.118346e+01
4.851130e+02	-3.123339e+01
4.879150e+02	-3.128153e+01
4.907332e+02	-3.133051e+01
4.935676e+02	-3.137834e+01
4.964185e+02	-3.142725e+01
4.992858e+02	-3.148489e+01
5.021696e+02	-3.153364e+01
5.050701e+02	-3.158061e+01
5.079874e+02	-3.163310e+01
5.109215e+02	-3.168201e+01
5.138726e+02	-3.173539e+01
5.168407e+02	-3.177997e+01
5.198259e+02	-3.182761e+01
5.228284e+02	-3.188923e+01
5.258482e+02	-3.193279e+01
5.288855e+02	-3.198673e+01
5.319403e+02	-3.203609e+01
5.350128e+02	-3.208392e+01
5.381030e+02	-3.213952e+01
5.412111e+02	-3.218225e+01
5.443371e+02	-3.223509e+01
5.474812e+02	-3.228480e+01
5.506434e+02	-3.233749e+01
5.538239e+02	-3.238362e+01
5.570228e+02	-3.244024e+01
5.602401e+02	-3.249134e+01
5.634760e+02	-3.253737e+01
5.667306e+02	-3.257686e+01
5.700040e+02	-3.264021e+01
5.732964e+02	-3.269043e+01
5.766077e+02	-3.274474e+01
5.799382e+02	-3.278419e+01
5.832879e+02	-3.284430e+01
5.866569e+02	-3.288941e+01
5.900454e+02	-3.293932e+01
5.934535e+02	-3.298718e+01
5.968813e+02	-3.304435e+01
6.003288e+02	-3.308739e+01
6.037963e+02	-3.313897e+01
6.072838e+02	-3.318868e+01
6.107914e+02	-3.324109e+01
6.143194e+02	-3.328100e+01
6.178676e+02	-3.333547e+01
6.214364e+02	-3.339402e+01
6.250258e+02	-3.343674e+01
6.286359e+02	-3.348985e+01
6.322669e+02	-3.353851e+01
6.359189e+02	-3.359186e+01
6.395919e+02	-3.364030e+01
6.432862e+02	-3.369332e+01
6.470017e+02	-3.374449e+01
6.507388e+02	-3.379646e+01
6.544974e+02	-3.384120e+01
6.582778e+02	-3.389385e+01
6.620800e+02	-3.394760e+01
6.659041e+02	-3.399912e+01
6.697504e+02	-3.403671e+01
6.736188e+02	-3.409883e+01
6.775096e+02	-3.414709e+01
6.814229e+02	-3.419696e+01
6.853587e+02	-3.424704e+01
6.893173e+02	-3.430088e+01
6.932988e+02	-3.434925e+01
6.973033e+02	-3.439676e+01
7.013309e+02	-3.444958e+01
