Frequency(Hz)	Magnitude(dB)
1.000000e+01	-2.081950e+00
1.005776e+01	-2.101236e+00
1.011585e+01	-2.120426e+00
1.017428e+01	-2.139795e+00
1.023305e+01	-2.159377e+00
1.029215e+01	-2.179062e+00
1.035160e+01	-2.198755e+00
1.041139e+01	-2.218765e+00
1.047153e+01	-2.238625e+00
1.053201e+01	-2.259006e+00
1.059284e+01	-2.279235e+00
1.065403e+01	-2.300056e+00
1.071556e+01	-2.320648e+00
1.077746e+01	-2.341094e+00
1.083971e+01	-2.362247e+00
1.090232e+01	-2.383425e+00
1.096529e+01	-2.404697e+00
1.102862e+01	-2.425845e+00
1.109232e+01	-2.447274e+00
1.115639e+01	-2.468641e+00
1.122083e+01	-2.490688e+00
1.128564e+01	-2.512518e+00
1.135083e+01	-2.534643e+00
1.141639e+01	-2.556963e+00
1.148233e+01	-2.579131e+00
1.154865e+01	-2.601601e+00
1.161536e+01	-2.624162e+00
1.168245e+01	-2.646995e+00
1.174992e+01	-2.669857e+00
1.181779e+01	-2.692696e+00
1.188605e+01	-2.716186e+00
1.195470e+01	-2.739270e+00
1.202375e+01	-2.763183e+00
1.209320e+01	-2.786520e+00
1.216305e+01	-2.810403e+00
1.223330e+01	-2.834258e+00
1.230396e+01	-2.858469e+00
1.237503e+01	-2.882666e+00
1.244651e+01	-2.906530e+00
1.251840e+01	-2.931560e+00
1.259070e+01	-2.955968e+00
1.266343e+01	-2.980689e+00
1.273657e+01	-3.005520e+00
1.281014e+01	-3.030769e+00
1.288413e+01	-3.056073e+00
1.295855e+01	-3.081195e+00
1.303339e+01	-3.106697e+00
1.310867e+01	-3.132252e+00
1.318439e+01	-3.158051e+00
1.326054e+01	-3.183846e+00
1.333713e+01	-3.210220e+00
1.341417e+01	-3.236364e+00
1.349165e+01	-3.262897e+00
1.356958e+01	-3.289147e+00
1.364795e+01	-3.315836e+00
1.372678e+01	-3.342678e+00
1.380607e+01	-3.369551e+00
1.388581e+01	-3.396480e+00
1.396602e+01	-3.423908e+00
1.404668e+01	-3.451253e+00
1.412782e+01	-3.478548e+00
1.420942e+01	-3.506254e+00
1.429149e+01	-3.534017e+00
1.437404e+01	-3.562112e+00
1.445706e+01	-3.590025e+00
1.454057e+01	-3.618436e+00
1.462455e+01	-3.646549e+00
1.470902e+01	-3.675139e+00
1.479398e+01	-3.703686e+00
1.487943e+01	-3.732337e+00
1.496537e+01	-3.761233e+00
1.505181e+01	-3.790420e+00
1.513875e+01	-3.819837e+00
1.522619e+01	-3.848938e+00
1.531414e+01	-3.878621e+00
1.540259e+01	-3.908160e+00
1.549156e+01	-3.937907e+00
1.558103e+01	-3.967405e+00
1.567103e+01	-3.997931e+00
1.576155e+01	-4.027984e+00
1.585258e+01	-4.058502e+00
1.594415e+01	-4.088647e+00
1.603624e+01	-4.119379e+00
1.612886e+01	-4.149790e+00
1.622202e+01	-4.180655e+00
1.631572e+01	-4.211791e+00
1.640996e+01	-4.242980e+00
1.650474e+01	-4.274372e+00
1.660008e+01	-4.305707e+00
1.669596e+01	-4.337307e+00
1.679239e+01	-4.368767e+00
1.688938e+01	-4.400813e+00
1.698694e+01	-4.432384e+00
1.708505e+01	-4.464468e+00
1.718373e+01	-4.496599e+00
1.728299e+01	-4.529304e+00
1.738281e+01	-4.561461e+00
1.748322e+01	-4.594522e+00
1.758420e+01	-4.627244e+00
1.768576e+01	-4.659682e+00
1.778792e+01	-4.692591e+00
1.789066e+01	-4.725878e+00
1.799399e+01	-4.758951e+00
1.809793e+01	-4.792404e+00
1.820246e+01	-4.826058e+00
1.830760e+01	-4.859913e+00
1.841334e+01	-4.893153e+00
1.851969e+01	-4.927274e+00
1.862666e+01	-4.961389e+00
1.873425e+01	-4.995358e+00
1.884246e+01	-5.029649e+00
1.895129e+01	-5.063966e+00
1.906075e+01	-5.098600e+00
1.917085e+01	-5.133305e+00
1.928158e+01	-5.168136e+00
1.939295e+01	-5.202713e+00
1.950496e+01	-5.237782e+00
1.961762e+01	-5.272942e+00
1.973093e+01	-5.307826e+00
1.984490e+01	-5.343305e+00
1.995952e+01	-5.378840e+00
2.007480e+01	-5.414295e+00
2.019076e+01	-5.450146e+00
2.030738e+01	-5.486204e+00
2.042467e+01	-5.521979e+00
2.054264e+01	-5.558172e+00
2.066130e+01	-5.594001e+00
2.078064e+01	-5.630462e+00
2.090066e+01	-5.666888e+00
2.102139e+01	-5.703150e+00
2.114280e+01	-5.740052e+00
2.126492e+01	-5.776684e+00
2.138775e+01	-5.813558e+00
2.151128e+01	-5.850411e+00
2.163553e+01	-5.887321e+00
2.176050e+01	-5.925085e+00
2.188619e+01	-5.962299e+00
2.201260e+01	-5.999422e+00
2.213974e+01	-6.036676e+00
2.226762e+01	-6.074880e+00
2.239624e+01	-6.112487e+00
2.252560e+01	-6.150164e+00
2.265571e+01	-6.188152e+00
2.278656e+01	-6.225898e+00
2.291818e+01	-6.264149e+00
2.305055e+01	-6.302797e+00
2.318369e+01	-6.340809e+00
2.331760e+01	-6.379528e+00
2.345228e+01	-6.418158e+00
2.358774e+01	-6.456816e+00
2.372398e+01	-6.495561e+00
2.386101e+01	-6.534011e+00
2.399883e+01	-6.572901e+00
2.413745e+01	-6.612528e+00
2.427686e+01	-6.651538e+00
2.441709e+01	-6.690453e+00
2.455812e+01	-6.730136e+00
2.469997e+01	-6.769634e+00
2.484263e+01	-6.808993e+00
2.498612e+01	-6.848537e+00
2.513044e+01	-6.888458e+00
2.527559e+01	-6.928608e+00
2.542158e+01	-6.968345e+00
2.556842e+01	-7.008558e+00
2.571610e+01	-7.048156e+00
2.586463e+01	-7.088237e+00
2.601403e+01	-7.128243e+00
2.616428e+01	-7.169142e+00
2.631541e+01	-7.209682e+00
2.646740e+01	-7.250002e+00
2.662028e+01	-7.290648e+00
2.677404e+01	-7.331358e+00
2.692868e+01	-7.372590e+00
2.708422e+01	-7.413541e+00
2.724066e+01	-7.454199e+00
2.739800e+01	-7.495400e+00
2.755625e+01	-7.536403e+00
2.771541e+01	-7.578201e+00
2.787550e+01	-7.618779e+00
2.803650e+01	-7.660383e+00
2.819844e+01	-7.702208e+00
2.836131e+01	-7.743954e+00
2.852513e+01	-7.784864e+00
2.868989e+01	-7.826706e+00
2.885560e+01	-7.869005e+00
2.902227e+01	-7.910666e+00
2.918990e+01	-7.952513e+00
2.935850e+01	-7.994325e+00
2.952807e+01	-8.036575e+00
2.969863e+01	-8.078889e+00
2.987016e+01	-8.121388e+00
3.004269e+01	-8.163593e+00
3.021622e+01	-8.205838e+00
3.039075e+01	-8.248352e+00
3.056628e+01	-8.291125e+00
3.074283e+01	-8.333805e+00
3.092040e+01	-8.376218e+00
3.109900e+01	-8.419316e+00
3.127862e+01	-8.462187e+00
3.145929e+01	-8.504949e+00
3.164099e+01	-8.548224e+00
3.182375e+01	-8.590790e+00
3.200756e+01	-8.633758e+00
3.219244e+01	-8.677266e+00
3.237838e+01	-8.720859e+00
3.256540e+01	-8.764370e+00
3.275349e+01	-8.807535e+00
3.294268e+01	-8.850812e+00
3.313295e+01	-8.894562e+00
3.332433e+01	-8.938044e+00
3.351681e+01	-8.981778e+00
3.371040e+01	-9.025303e+00
3.390511e+01	-9.069090e+00
3.410094e+01	-9.112667e+00
3.429791e+01	-9.156991e+00
3.449601e+01	-9.201410e+00
3.469526e+01	-9.244851e+00
3.489566e+01	-9.288673e+00
3.509721e+01	-9.333191e+00
3.529993e+01	-9.377807e+00
3.550382e+01	-9.421791e+00
3.570889e+01	-9.466058e+00
3.591515e+01	-9.510634e+00
3.612259e+01	-9.555023e+00
3.633123e+01	-9.599453e+00
3.654108e+01	-9.644172e+00
3.675214e+01	-9.688818e+00
3.696442e+01	-9.733571e+00
3.717792e+01	-9.778704e+00
3.739266e+01	-9.822800e+00
3.760864e+01	-9.867831e+00
3.782587e+01	-9.912586e+00
3.804435e+01	-9.958007e+00
3.826409e+01	-1.000232e+01
3.848510e+01	-1.004799e+01
3.870739e+01	-1.009241e+01
3.893096e+01	-1.013774e+01
3.915583e+01	-1.018333e+01
3.938199e+01	-1.022854e+01
3.960946e+01	-1.027428e+01
3.983824e+01	-1.031974e+01
4.006834e+01	-1.036475e+01
4.029978e+01	-1.040985e+01
4.053255e+01	-1.045587e+01
4.076666e+01	-1.050103e+01
4.100213e+01	-1.054669e+01
4.123896e+01	-1.059242e+01
4.147715e+01	-1.063786e+01
4.171672e+01	-1.068409e+01
4.195767e+01	-1.072955e+01
4.220002e+01	-1.077508e+01
4.244377e+01	-1.082115e+01
4.268892e+01	-1.086684e+01
4.293549e+01	-1.091297e+01
4.318348e+01	-1.095859e+01
4.343291e+01	-1.100465e+01
4.368377e+01	-1.105174e+01
4.393609e+01	-1.109734e+01
4.418986e+01	-1.114375e+01
4.444510e+01	-1.119052e+01
4.470182e+01	-1.123591e+01
4.496001e+01	-1.128213e+01
4.521970e+01	-1.132866e+01
4.548089e+01	-1.137430e+01
4.574358e+01	-1.142163e+01
4.600779e+01	-1.146785e+01
4.627353e+01	-1.151435e+01
4.654081e+01	-1.156076e+01
4.680963e+01	-1.160669e+01
4.708000e+01	-1.165391e+01
4.735193e+01	-1.170072e+01
4.762543e+01	-1.174736e+01
4.790051e+01	-1.179353e+01
4.817719e+01	-1.184036e+01
4.845545e+01	-1.188736e+01
4.873533e+01	-1.193386e+01
4.901682e+01	-1.198100e+01
4.929994e+01	-1.202888e+01
4.958470e+01	-1.207453e+01
4.987110e+01	-1.212209e+01
5.015915e+01	-1.216873e+01
5.044887e+01	-1.221606e+01
5.074026e+01	-1.226313e+01
5.103333e+01	-1.230933e+01
5.132810e+01	-1.235680e+01
5.162457e+01	-1.240434e+01
5.192275e+01	-1.245220e+01
5.222265e+01	-1.249800e+01
5.252429e+01	-1.254599e+01
5.282767e+01	-1.259257e+01
5.313280e+01	-1.264081e+01
5.343969e+01	-1.268784e+01
5.374836e+01	-1.273521e+01
5.405880e+01	-1.278200e+01
5.437105e+01	-1.282890e+01
5.468509e+01	-1.287630e+01
5.500095e+01	-1.292412e+01
5.531863e+01	-1.297137e+01
5.563815e+01	-1.301980e+01
5.595951e+01	-1.306723e+01
5.628273e+01	-1.311433e+01
5.660782e+01	-1.316142e+01
5.693479e+01	-1.320964e+01
5.726364e+01	-1.325655e+01
5.759439e+01	-1.330465e+01
5.792705e+01	-1.335348e+01
5.826164e+01	-1.340073e+01
5.859815e+01	-1.344868e+01
5.893662e+01	-1.349642e+01
5.927703e+01	-1.354470e+01
5.961941e+01	-1.359185e+01
5.996377e+01	-1.363999e+01
6.031012e+01	-1.368715e+01
6.065847e+01	-1.373579e+01
6.100883e+01	-1.378338e+01
6.136121e+01	-1.383109e+01
6.171563e+01	-1.387926e+01
6.207210e+01	-1.392804e+01
6.243063e+01	-1.397553e+01
6.279122e+01	-1.402340e+01
6.315390e+01	-1.407058e+01
6.351868e+01	-1.411902e+01
6.388556e+01	-1.416700e+01
6.425456e+01	-1.421534e+01
6.462569e+01	-1.426377e+01
6.499897e+01	-1.431247e+01
6.537440e+01	-1.435978e+01
6.575200e+01	-1.440732e+01
6.613178e+01	-1.445620e+01
6.651375e+01	-1.450469e+01
6.689793e+01	-1.455321e+01
6.728433e+01	-1.460204e+01
6.767297e+01	-1.465027e+01
6.806384e+01	-1.469790e+01
6.845698e+01	-1.474667e+01
6.885238e+01	-1.479470e+01
6.925007e+01	-1.484343e+01
6.965005e+01	-1.489069e+01
7.005235e+01	-1.493947e+01
7.045697e+01	-1.498805e+01
7.086393e+01	-1.503683e+01
7.127323e+01	-1.508574e+01
7.168490e+01	-1.513415e+01
7.209895e+01	-1.518240e+01
7.251539e+01	-1.523185e+01
7.293424e+01	-1.527930e+01
7.335551e+01	-1.532837e+01
7.377920e+01	-1.537680e+01
7.420535e+01	-1.542464e+01
7.463396e+01	-1.547377e+01
7.506504e+01	-1.552195e+01
7.549861e+01	-1.557024e+01
7.593469e+01	-1.561959e+01
7.637328e+01	-1.566846e+01
7.681441e+01	-1.571606e+01
7.725809e+01	-1.576483e+01
7.770433e+01	-1.581278e+01
7.815315e+01	-1.586314e+01
7.860456e+01	-1.591342e+01
7.905857e+01	-1.596108e+01
7.951521e+01	-1.600955e+01
7.997449e+01	-1.605806e+01
8.043642e+01	-1.610654e+01
8.090102e+01	-1.615486e+01
8.136830e+01	-1.620449e+01
8.183828e+01	-1.625391e+01
8.231097e+01	-1.630169e+01
8.278640e+01	-1.635056e+01
8.326457e+01	-1.640046e+01
8.374550e+01	-1.644813e+01
8.422921e+01	-1.649818e+01
8.471572e+01	-1.654666e+01
8.520503e+01	-1.659418e+01
8.569717e+01	-1.664515e+01
8.619215e+01	-1.669355e+01
8.669000e+01	-1.674261e+01
8.719071e+01	-1.679192e+01
8.769432e+01	-1.683995e+01
8.820084e+01	-1.688952e+01
8.871029e+01	-1.693759e+01
8.922267e+01	-1.698769e+01
8.973802e+01	-1.703580e+01
9.025634e+01	-1.708515e+01
9.077766e+01	-1.713486e+01
9.130199e+01	-1.718525e+01
9.182935e+01	-1.723231e+01
9.235975e+01	-1.728144e+01
9.289321e+01	-1.733089e+01
9.342976e+01	-1.737933e+01
9.396941e+01	-1.742867e+01
9.451217e+01	-1.747734e+01
9.505807e+01	-1.752757e+01
9.560712e+01	-1.757688e+01
9.615934e+01	-1.762600e+01
9.671476e+01	-1.767338e+01
9.727338e+01	-1.772304e+01
9.783522e+01	-1.777379e+01
9.840032e+01	-1.782159e+01
9.896867e+01	-1.787289e+01
9.954031e+01	-1.792029e+01
1.001153e+02	-1.796970e+01
1.006935e+02	-1.801857e+01
1.012751e+02	-1.806774e+01
1.018601e+02	-1.811722e+01
1.024484e+02	-1.816651e+01
1.030402e+02	-1.821571e+01
1.036353e+02	-1.826578e+01
1.042339e+02	-1.831539e+01
1.048360e+02	-1.836323e+01
1.054415e+02	-1.841345e+01
1.060505e+02	-1.846271e+01
1.066631e+02	-1.851285e+01
1.072791e+02	-1.856176e+01
1.078988e+02	-1.861065e+01
1.085220e+02	-1.866032e+01
1.091488e+02	-1.871011e+01
1.097793e+02	-1.875867e+01
1.104133e+02	-1.880988e+01
1.110511e+02	-1.885646e+01
1.116925e+02	-1.890720e+01
1.123376e+02	-1.895626e+01
1.129865e+02	-1.900539e+01
1.136391e+02	-1.905588e+01
1.142955e+02	-1.910546e+01
1.149556e+02	-1.915593e+01
1.156196e+02	-1.920415e+01
1.162874e+02	-1.925230e+01
1.169591e+02	-1.930335e+01
1.176347e+02	-1.935107e+01
1.183141e+02	-1.940134e+01
1.189975e+02	-1.945031e+01
1.196848e+02	-1.950043e+01
1.203761e+02	-1.954981e+01
1.210714e+02	-1.960043e+01
1.217707e+02	-1.964870e+01
1.224740e+02	-1.970030e+01
1.231814e+02	-1.974789e+01
1.238929e+02	-1.979636e+01
1.246085e+02	-1.984660e+01
1.253283e+02	-1.989619e+01
1.260522e+02	-1.994648e+01
1.267802e+02	-1.999534e+01
1.275125e+02	-2.004517e+01
1.282490e+02	-2.009428e+01
1.289898e+02	-2.014411e+01
1.297348e+02	-2.019427e+01
1.304842e+02	-2.024292e+01
1.312378e+02	-2.029174e+01
1.319959e+02	-2.034198e+01
1.327583e+02	-2.039231e+01
1.335251e+02	-2.044236e+01
1.342963e+02	-2.049184e+01
1.350720e+02	-2.053966e+01
1.358522e+02	-2.058845e+01
1.366368e+02	-2.063921e+01
1.374260e+02	-2.069001e+01
1.382198e+02	-2.074058e+01
1.390182e+02	-2.078683e+01
1.398211e+02	-2.083799e+01
1.406287e+02	-2.088975e+01
1.414410e+02	-2.093735e+01
1.422579e+02	-2.098728e+01
1.430796e+02	-2.103739e+01
1.439060e+02	-2.108803e+01
1.447372e+02	-2.113566e+01
1.455732e+02	-2.118602e+01
1.464141e+02	-2.123428e+01
1.472597e+02	-2.128590e+01
1.481103e+02	-2.133492e+01
1.489658e+02	-2.138317e+01
1.498262e+02	-2.143294e+01
1.506916e+02	-2.148363e+01
1.515620e+02	-2.153441e+01
1.524374e+02	-2.158360e+01
1.533179e+02	-2.163213e+01
1.542034e+02	-2.168370e+01
1.550941e+02	-2.173232e+01
1.559899e+02	-2.178269e+01
1.568909e+02	-2.183170e+01
1.577971e+02	-2.188182e+01
1.587085e+02	-2.193056e+01
1.596252e+02	-2.198039e+01
1.605472e+02	-2.203216e+01
1.614745e+02	-2.207939e+01
1.624072e+02	-2.213016e+01
1.633453e+02	-2.218056e+01
1.642887e+02	-2.223185e+01
1.652377e+02	-2.227941e+01
1.661921e+02	-2.232652e+01
1.671520e+02	-2.238059e+01
1.681175e+02	-2.242687e+01
1.690885e+02	-2.247762e+01
1.700651e+02	-2.252748e+01
1.710474e+02	-2.257824e+01
1.720354e+02	-2.262840e+01
1.730291e+02	-2.267708e+01
1.740285e+02	-2.272899e+01
1.750337e+02	-2.277637e+01
1.760446e+02	-2.282682e+01
1.770615e+02	-2.287810e+01
1.780842e+02	-2.292867e+01
1.791128e+02	-2.297621e+01
1.801473e+02	-2.302675e+01
1.811878e+02	-2.307550e+01
1.822344e+02	-2.312687e+01
1.832870e+02	-2.317489e+01
1.843456e+02	-2.322473e+01
1.854104e+02	-2.327357e+01
1.864813e+02	-2.332200e+01
1.875584e+02	-2.337298e+01
1.886418e+02	-2.342367e+01
1.897313e+02	-2.347357e+01
1.908272e+02	-2.352131e+01
1.919294e+02	-2.357209e+01
1.930380e+02	-2.362704e+01
1.941530e+02	-2.367414e+01
1.952744e+02	-2.372187e+01
1.964023e+02	-2.377247e+01
1.975367e+02	-2.382702e+01
1.986777e+02	-2.387191e+01
1.998252e+02	-2.392380e+01
2.009794e+02	-2.397361e+01
2.021403e+02	-2.402351e+01
2.033078e+02	-2.406925e+01
2.044821e+02	-2.412113e+01
2.056632e+02	-2.417345e+01
2.068511e+02	-2.422013e+01
2.080459e+02	-2.427437e+01
2.092475e+02	-2.432251e+01
2.104561e+02	-2.437240e+01
2.116717e+02	-2.442245e+01
2.128943e+02	-2.447109e+01
2.141240e+02	-2.452327e+01
2.153608e+02	-2.457144e+01
2.166047e+02	-2.462022e+01
2.178558e+02	-2.467222e+01
2.191141e+02	-2.472371e+01
2.203797e+02	-2.476931e+01
2.216526e+02	-2.481963e+01
2.229329e+02	-2.487222e+01
2.242205e+02	-2.491766e+01
2.255156e+02	-2.497129e+01
2.268182e+02	-2.502040e+01
2.281283e+02	-2.506906e+01
2.294459e+02	-2.512091e+01
2.307712e+02	-2.516741e+01
2.321041e+02	-2.521956e+01
2.334447e+02	-2.527051e+01
2.347931e+02	-2.531964e+01
2.361493e+02	-2.537231e+01
2.375133e+02	-2.542176e+01
2.388851e+02	-2.546978e+01
2.402649e+02	-2.552034e+01
2.416527e+02	-2.557388e+01
2.430484e+02	-2.562278e+01
2.444523e+02	-2.566926e+01
2.458642e+02	-2.571897e+01
2.472843e+02	-2.576842e+01
2.487126e+02	-2.581838e+01
2.501492e+02	-2.586689e+01
2.515940e+02	-2.592006e+01
2.530472e+02	-2.596811e+01
2.545088e+02	-2.601953e+01
2.559789e+02	-2.607052e+01
2.574574e+02	-2.611864e+01
2.589444e+02	-2.616675e+01
2.604401e+02	-2.621751e+01
2.619444e+02	-2.627048e+01
2.634574e+02	-2.631822e+01
2.649791e+02	-2.636845e+01
2.665096e+02	-2.642226e+01
2.680489e+02	-2.646673e+01
2.695972e+02	-2.651667e+01
2.711544e+02	-2.656984e+01
2.727205e+02	-2.661977e+01
2.742958e+02	-2.666857e+01
2.758801e+02	-2.671567e+01
2.774736e+02	-2.676864e+01
2.790762e+02	-2.681587e+01
2.806882e+02	-2.687055e+01
2.823094e+02	-2.691943e+01
2.839400e+02	-2.696621e+01
2.855800e+02	-2.701744e+01
2.872295e+02	-2.707175e+01
2.888886e+02	-2.711962e+01
2.905572e+02	-2.716803e+01
2.922354e+02	-2.721452e+01
2.939234e+02	-2.726569e+01
2.956211e+02	-2.732112e+01
2.973286e+02	-2.737107e+01
2.990459e+02	-2.741924e+01
3.007732e+02	-2.746860e+01
3.025104e+02	-2.751856e+01
3.042577e+02	-2.757211e+01
3.060151e+02	-2.761831e+01
3.077826e+02	-2.766437e+01
3.095604e+02	-2.771994e+01
3.113484e+02	-2.777217e+01
3.131467e+02	-2.781385e+01
3.149554e+02	-2.786901e+01
3.167746e+02	-2.792002e+01
3.186043e+02	-2.796494e+01
3.204445e+02	-2.802342e+01
3.222954e+02	-2.806905e+01
3.241570e+02	-2.811971e+01
3.260293e+02	-2.817497e+01
3.279124e+02	-2.821921e+01
3.298064e+02	-2.827148e+01
3.317114e+02	-2.831581e+01
3.336273e+02	-2.837349e+01
3.355544e+02	-2.842370e+01
3.374925e+02	-2.847117e+01
3.394418e+02	-2.851784e+01
3.414024e+02	-2.856935e+01
3.433744e+02	-2.861563e+01
3.453577e+02	-2.866819e+01
3.473525e+02	-2.871952e+01
3.493588e+02	-2.876975e+01
3.513766e+02	-2.881955e+01
3.534062e+02	-2.887174e+01
3.554474e+02	-2.892149e+01
3.575005e+02	-2.896827e+01
3.595654e+02	-2.901884e+01
3.616422e+02	-2.907081e+01
3.637311e+02	-2.911847e+01
3.658320e+02	-2.916868e+01
3.679450e+02	-2.922526e+01
3.700702e+02	-2.926777e+01
3.722077e+02	-2.931768e+01
3.743576e+02	-2.937037e+01
3.765199e+02	-2.941911e+01
3.786946e+02	-2.947222e+01
3.808820e+02	-2.952296e+01
3.830819e+02	-2.957105e+01
3.852946e+02	-2.962112e+01
3.875200e+02	-2.967270e+01
3.897583e+02	-2.972170e+01
3.920096e+02	-2.977319e+01
3.942738e+02	-2.982510e+01
3.965511e+02	-2.987593e+01
3.988416e+02	-2.991876e+01
4.011452e+02	-2.997282e+01
4.034622e+02	-3.001885e+01
4.057926e+02	-3.007140e+01
4.081365e+02	-3.011940e+01
4.104938e+02	-3.017353e+01
4.128648e+02	-3.022532e+01
4.152495e+02	-3.027418e+01
4.176480e+02	-3.032450e+01
4.200603e+02	-3.037774e+01
4.224866e+02	-3.042395e+01
4.249268e+02	-3.047208e+01
4.273812e+02	-3.052121e+01
4.298497e+02	-3.057142e+01
4.323325e+02	-3.062612e+01
4.348297e+02	-3.066940e+01
4.373412e+02	-3.072267e+01
4.398673e+02	-3.077544e+01
4.424079e+02	-3.082309e+01
4.449633e+02	-3.087159e+01
4.475334e+02	-3.092179e+01
4.501183e+02	-3.097364e+01
4.527182e+02	-3.102600e+01
4.553330e+02	-3.107379e+01
4.579630e+02	-3.112416e+01
4.606082e+02	-3.117709e+01
4.632687e+02	-3.122187e+01
4.659445e+02	-3.127668e+01
4.686358e+02	-3.131999e+01
4.713426e+02	-3.138090e+01
4.740650e+02	-3.142835e+01
4.768032e+02	-3.147218e+01
4.795572e+02	-3.152348e+01
4.823271e+02	-3.156959e+01
4.851130e+02	-3.162202e+01
4.879150e+02	-3.167876e+01
4.907332e+02	-3.172389e+01
4.935676e+02	-3.177669e+01
4.964185e+02	-3.182279e+01
4.992858e+02	-3.187641e+01
5.021696e+02	-3.192449e+01
5.050701e+02	-3.197378e+01
5.079874e+02	-3.202358e+01
5.109215e+02	-3.207909e+01
5.138726e+02	-3.212677e+01
5.168407e+02	-3.218286e+01
5.198259e+02	-3.222351e+01
5.228284e+02	-3.227712e+01
5.258482e+02	-3.233019e+01
5.288855e+02	-3.238974e+01
5.319403e+02	-3.243267e+01
5.350128e+02	-3.247826e+01
5.381030e+02	-3.252838e+01
5.412111e+02	-3.258250e+01
5.443371e+02	-3.262321e+01
5.474812e+02	-3.269340e+01
5.506434e+02	-3.273402e+01
5.538239e+02	-3.277870e+01
5.570228e+02	-3.282980e+01
5.602401e+02	-3.288513e+01
5.634760e+02	-3.293277e+01
5.667306e+02	-3.298045e+01
5.700040e+02	-3.302571e+01
5.732964e+02	-3.307640e+01
5.766077e+02	-3.313169e+01
5.799382e+02	-3.318646e+01
5.832879e+02	-3.323583e+01
5.866569e+02	-3.327482e+01
5.900454e+02	-3.333435e+01
5.934535e+02	-3.338602e+01
5.968813e+02	-3.343493e+01
6.003288e+02	-3.348847e+01
6.037963e+02	-3.353500e+01
6.072838e+02	-3.358585e+01
6.107914e+02	-3.363567e+01
6.143194e+02	-3.368891e+01
6.178676e+02	-3.373561e+01
6.214364e+02	-3.379379e+01
6.250258e+02	-3.383931e+01
6.286359e+02	-3.388153e+01
6.322669e+02	-3.393857e+01
6.359189e+02	-3.399034e+01
6.395919e+02	-3.402970e+01
6.432862e+02	-3.408639e+01
6.470017e+02	-3.413548e+01
6.507388e+02	-3.418907e+01
6.544974e+02	-3.424314e+01
6.582778e+02	-3.428708e+01
6.620800e+02	-3.433616e+01
6.659041e+02	-3.439334e+01
6.697504e+02	-3.444121e+01
6.736188e+02	-3.449105e+01
6.775096e+02	-3.454522e+01
6.814229e+02	-3.459739e+01
6.853587e+02	-3.464296e+01
6.893173e+02	-3.469696e+01
6.932988e+02	-3.473767e+01
6.973033e+02	-3.480108e+01
7.013309e+02	-3.484077e+01
