Frequency(Hz)	Magnitude(dB)
1.000000e+01	-2.049308e+00
1.005776e+01	-2.068192e+00
1.011585e+01	-2.087370e+00
1.017428e+01	-2.106583e+00
1.023305e+01	-2.125745e+00
1.029215e+01	-2.145235e+00
1.035160e+01	-2.164790e+00
1.041139e+01	-2.184408e+00
1.047153e+01	-2.204355e+00
1.053201e+01	-2.224490e+00
1.059284e+01	-2.244327e+00
1.065403e+01	-2.264691e+00
1.071556e+01	-2.285092e+00
1.077746e+01	-2.305682e+00
1.083971e+01	-2.326381e+00
1.090232e+01	-2.347210e+00
1.096529e+01	-2.367985e+00
1.102862e+01	-2.389054e+00
1.109232e+01	-2.410337e+00
1.115639e+01	-2.431895e+00
1.122083e+01	-2.453366e+00
1.128564e+01	-2.474831e+00
1.135083e+01	-2.496580e+00
1.141639e+01	-2.518845e+00
1.148233e+01	-2.540680e+00
1.154865e+01	-2.563173e+00
1.161536e+01	-2.585368e+00
1.168245e+01	-2.608079e+00
1.174992e+01	-2.630380e+00
1.181779e+01	-2.653315e+00
1.188605e+01	-2.676477e+00
1.195470e+01	-2.699296e+00
1.202375e+01	-2.722445e+00
1.209320e+01	-2.745833e+00
1.216305e+01	-2.769562e+00
1.223330e+01	-2.793165e+00
1.230396e+01	-2.817071e+00
1.237503e+01	-2.840763e+00
1.244651e+01	-2.864889e+00
1.251840e+01	-2.889387e+00
1.259070e+01	-2.913717e+00
1.266343e+01	-2.938023e+00
1.273657e+01	-2.962762e+00
1.281014e+01	-2.987505e+00
1.288413e+01	-3.012746e+00
1.295855e+01	-3.037701e+00
1.303339e+01	-3.062968e+00
1.310867e+01	-3.088396e+00
1.318439e+01	-3.113692e+00
1.326054e+01	-3.139225e+00
1.333713e+01	-3.165503e+00
1.341417e+01	-3.190996e+00
1.349165e+01	-3.217417e+00
1.356958e+01	-3.243588e+00
1.364795e+01	-3.270122e+00
1.372678e+01	-3.296358e+00
1.380607e+01	-3.323360e+00
1.388581e+01	-3.350173e+00
1.396602e+01	-3.376965e+00
1.404668e+01	-3.404239e+00
1.412782e+01	-3.431358e+00
1.420942e+01	-3.458664e+00
1.429149e+01	-3.486277e+00
1.437404e+01	-3.513984e+00
1.445706e+01	-3.541859e+00
1.454057e+01	-3.569839e+00
1.462455e+01	-3.597715e+00
1.470902e+01	-3.626271e+00
1.479398e+01	-3.654403e+00
1.487943e+01	-3.683027e+00
1.496537e+01	-3.711700e+00
1.505181e+01	-3.740637e+00
1.513875e+01	-3.769556e+00
1.522619e+01	-3.798768e+00
1.531414e+01	-3.827725e+00
1.540259e+01	-3.857548e+00
1.549156e+01	-3.886675e+00
1.558103e+01	-3.916504e+00
1.567103e+01	-3.946014e+00
1.576155e+01	-3.976228e+00
1.585258e+01	-4.006145e+00
1.594415e+01	-4.036119e+00
1.603624e+01	-4.066727e+00
1.612886e+01	-4.097489e+00
1.622202e+01	-4.128013e+00
1.631572e+01	-4.158722e+00
1.640996e+01	-4.189446e+00
1.650474e+01	-4.220659e+00
1.660008e+01	-4.251573e+00
1.669596e+01	-4.282944e+00
1.679239e+01	-4.314760e+00
1.688938e+01	-4.345829e+00
1.698694e+01	-4.377538e+00
1.708505e+01	-4.409597e+00
1.718373e+01	-4.441823e+00
1.728299e+01	-4.473694e+00
1.738281e+01	-4.505757e+00
1.748322e+01	-4.538263e+00
1.758420e+01	-4.570829e+00
1.768576e+01	-4.603475e+00
1.778792e+01	-4.635884e+00
1.789066e+01	-4.668849e+00
1.799399e+01	-4.702024e+00
1.809793e+01	-4.735414e+00
1.820246e+01	-4.768663e+00
1.830760e+01	-4.801729e+00
1.841334e+01	-4.835195e+00
1.851969e+01	-4.869113e+00
1.862666e+01	-4.902826e+00
1.873425e+01	-4.936516e+00
1.884246e+01	-4.970485e+00
1.895129e+01	-5.004852e+00
1.906075e+01	-5.039188e+00
1.917085e+01	-5.073673e+00
1.928158e+01	-5.107934e+00
1.939295e+01	-5.142691e+00
1.950496e+01	-5.177330e+00
1.961762e+01	-5.212603e+00
1.973093e+01	-5.247138e+00
1.984490e+01	-5.282580e+00
1.995952e+01	-5.318005e+00
2.007480e+01	-5.353012e+00
2.019076e+01	-5.388534e+00
2.030738e+01	-5.424288e+00
2.042467e+01	-5.460261e+00
2.054264e+01	-5.495767e+00
2.066130e+01	-5.531965e+00
2.078064e+01	-5.568208e+00
2.090066e+01	-5.604036e+00
2.102139e+01	-5.640576e+00
2.114280e+01	-5.676984e+00
2.126492e+01	-5.713809e+00
2.138775e+01	-5.750011e+00
2.151128e+01	-5.786700e+00
2.163553e+01	-5.823844e+00
2.176050e+01	-5.860667e+00
2.188619e+01	-5.897980e+00
2.201260e+01	-5.935026e+00
2.213974e+01	-5.972679e+00
2.226762e+01	-6.010050e+00
2.239624e+01	-6.047378e+00
2.252560e+01	-6.084906e+00
2.265571e+01	-6.123098e+00
2.278656e+01	-6.160720e+00
2.291818e+01	-6.199091e+00
2.305055e+01	-6.236758e+00
2.318369e+01	-6.274678e+00
2.331760e+01	-6.313073e+00
2.345228e+01	-6.351691e+00
2.358774e+01	-6.390100e+00
2.372398e+01	-6.428539e+00
2.386101e+01	-6.467409e+00
2.399883e+01	-6.506546e+00
2.413745e+01	-6.545068e+00
2.427686e+01	-6.583941e+00
2.441709e+01	-6.623106e+00
2.455812e+01	-6.662445e+00
2.469997e+01	-6.701480e+00
2.484263e+01	-6.740762e+00
2.498612e+01	-6.780545e+00
2.513044e+01	-6.820239e+00
2.527559e+01	-6.859694e+00
2.542158e+01	-6.899405e+00
2.556842e+01	-6.938921e+00
2.571610e+01	-6.979486e+00
2.586463e+01	-7.018995e+00
2.601403e+01	-7.059374e+00
2.616428e+01	-7.099725e+00
2.631541e+01	-7.139926e+00
2.646740e+01	-7.180257e+00
2.662028e+01	-7.220856e+00
2.677404e+01	-7.261549e+00
2.692868e+01	-7.302184e+00
2.708422e+01	-7.342979e+00
2.724066e+01	-7.383465e+00
2.739800e+01	-7.424761e+00
2.755625e+01	-7.465635e+00
2.771541e+01	-7.506706e+00
2.787550e+01	-7.547838e+00
2.803650e+01	-7.589029e+00
2.819844e+01	-7.630605e+00
2.836131e+01	-7.672051e+00
2.852513e+01	-7.713678e+00
2.868989e+01	-7.754756e+00
2.885560e+01	-7.796991e+00
2.902227e+01	-7.838515e+00
2.918990e+01	-7.880350e+00
2.935850e+01	-7.922184e+00
2.952807e+01	-7.964372e+00
2.969863e+01	-8.006477e+00
2.987016e+01	-8.048599e+00
3.004269e+01	-8.090848e+00
3.021622e+01	-8.132918e+00
3.039075e+01	-8.175359e+00
3.056628e+01	-8.218048e+00
3.074283e+01	-8.260461e+00
3.092040e+01	-8.303065e+00
3.109900e+01	-8.345682e+00
3.127862e+01	-8.388325e+00
3.145929e+01	-8.430954e+00
3.164099e+01	-8.474087e+00
3.182375e+01	-8.517077e+00
3.200756e+01	-8.559730e+00
3.219244e+01	-8.603296e+00
3.237838e+01	-8.646264e+00
3.256540e+01	-8.689366e+00
3.275349e+01	-8.733056e+00
3.294268e+01	-8.776405e+00
3.313295e+01	-8.819898e+00
3.332433e+01	-8.862561e+00
3.351681e+01	-8.906268e+00
3.371040e+01	-8.950106e+00
3.390511e+01	-8.994238e+00
3.410094e+01	-9.037426e+00
3.429791e+01	-9.081759e+00
3.449601e+01	-9.125085e+00
3.469526e+01	-9.169017e+00
3.489566e+01	-9.213344e+00
3.509721e+01	-9.257343e+00
3.529993e+01	-9.301524e+00
3.550382e+01	-9.345809e+00
3.570889e+01	-9.390284e+00
3.591515e+01	-9.434416e+00
3.612259e+01	-9.478719e+00
3.633123e+01	-9.522771e+00
3.654108e+01	-9.567278e+00
3.675214e+01	-9.612488e+00
3.696442e+01	-9.656828e+00
3.717792e+01	-9.701312e+00
3.739266e+01	-9.746317e+00
3.760864e+01	-9.790774e+00
3.782587e+01	-9.835408e+00
3.804435e+01	-9.880693e+00
3.826409e+01	-9.925448e+00
3.848510e+01	-9.970865e+00
3.870739e+01	-1.001560e+01
3.893096e+01	-1.006030e+01
3.915583e+01	-1.010516e+01
3.938199e+01	-1.015070e+01
3.960946e+01	-1.019549e+01
3.983824e+01	-1.024147e+01
4.006834e+01	-1.028625e+01
4.029978e+01	-1.033208e+01
4.053255e+01	-1.037724e+01
4.076666e+01	-1.042252e+01
4.100213e+01	-1.046830e+01
4.123896e+01	-1.051343e+01
4.147715e+01	-1.055917e+01
4.171672e+01	-1.060490e+01
4.195767e+01	-1.065073e+01
4.220002e+01	-1.069595e+01
4.244377e+01	-1.074220e+01
4.268892e+01	-1.078863e+01
4.293549e+01	-1.083356e+01
4.318348e+01	-1.087984e+01
4.343291e+01	-1.092517e+01
4.368377e+01	-1.097182e+01
4.393609e+01	-1.101819e+01
4.418986e+01	-1.106404e+01
4.444510e+01	-1.111010e+01
4.470182e+01	-1.115597e+01
4.496001e+01	-1.120232e+01
4.521970e+01	-1.124831e+01
4.548089e+01	-1.129470e+01
4.574358e+01	-1.134096e+01
4.600779e+01	-1.138781e+01
4.627353e+01	-1.143417e+01
4.654081e+01	-1.148063e+01
4.680963e+01	-1.152743e+01
4.708000e+01	-1.157329e+01
4.735193e+01	-1.162042e+01
4.762543e+01	-1.166698e+01
4.790051e+01	-1.171366e+01
4.817719e+01	-1.176002e+01
4.845545e+01	-1.180678e+01
4.873533e+01	-1.185344e+01
4.901682e+01	-1.189977e+01
4.929994e+01	-1.194682e+01
4.958470e+01	-1.199365e+01
4.987110e+01	-1.204039e+01
5.015915e+01	-1.208811e+01
5.044887e+01	-1.213548e+01
5.074026e+01	-1.218170e+01
5.103333e+01	-1.222861e+01
5.132810e+01	-1.227617e+01
5.162457e+01	-1.232343e+01
5.192275e+01	-1.236983e+01
5.222265e+01	-1.241790e+01
5.252429e+01	-1.246427e+01
5.282767e+01	-1.251093e+01
5.313280e+01	-1.255865e+01
5.343969e+01	-1.260583e+01
5.374836e+01	-1.265397e+01
5.405880e+01	-1.270054e+01
5.437105e+01	-1.274851e+01
5.468509e+01	-1.279662e+01
5.500095e+01	-1.284189e+01
5.531863e+01	-1.289070e+01
5.563815e+01	-1.293692e+01
5.595951e+01	-1.298484e+01
5.628273e+01	-1.303296e+01
5.660782e+01	-1.308080e+01
5.693479e+01	-1.312832e+01
5.726364e+01	-1.317562e+01
5.759439e+01	-1.322341e+01
5.792705e+01	-1.327084e+01
5.826164e+01	-1.331833e+01
5.859815e+01	-1.336609e+01
5.893662e+01	-1.341385e+01
5.927703e+01	-1.346185e+01
5.961941e+01	-1.350964e+01
5.996377e+01	-1.355663e+01
6.031012e+01	-1.360581e+01
6.065847e+01	-1.365266e+01
6.100883e+01	-1.370131e+01
6.136121e+01	-1.374838e+01
6.171563e+01	-1.379696e+01
6.207210e+01	-1.384449e+01
6.243063e+01	-1.389302e+01
6.279122e+01	-1.394087e+01
6.315390e+01	-1.398851e+01
6.351868e+01	-1.403664e+01
6.388556e+01	-1.408430e+01
6.425456e+01	-1.413270e+01
6.462569e+01	-1.418099e+01
6.499897e+01	-1.422942e+01
6.537440e+01	-1.427623e+01
6.575200e+01	-1.432457e+01
6.613178e+01	-1.437389e+01
6.651375e+01	-1.442145e+01
6.689793e+01	-1.447018e+01
6.728433e+01	-1.451801e+01
6.767297e+01	-1.456663e+01
6.806384e+01	-1.461509e+01
6.845698e+01	-1.466336e+01
6.885238e+01	-1.471027e+01
6.925007e+01	-1.476024e+01
6.965005e+01	-1.480897e+01
7.005235e+01	-1.485667e+01
7.045697e+01	-1.490522e+01
7.086393e+01	-1.495289e+01
7.127323e+01	-1.500174e+01
7.168490e+01	-1.504979e+01
7.209895e+01	-1.509844e+01
7.251539e+01	-1.514732e+01
7.293424e+01	-1.519600e+01
7.335551e+01	-1.524406e+01
7.377920e+01	-1.529229e+01
7.420535e+01	-1.534215e+01
7.463396e+01	-1.539044e+01
7.506504e+01	-1.543838e+01
7.549861e+01	-1.548764e+01
7.593469e+01	-1.553613e+01
7.637328e+01	-1.558482e+01
7.681441e+01	-1.563279e+01
7.725809e+01	-1.568230e+01
7.770433e+01	-1.573051e+01
7.815315e+01	-1.577986e+01
7.860456e+01	-1.582779e+01
7.905857e+01	-1.587718e+01
7.951521e+01	-1.592521e+01
7.997449e+01	-1.597431e+01
8.043642e+01	-1.602286e+01
8.090102e+01	-1.607260e+01
8.136830e+01	-1.612079e+01
8.183828e+01	-1.616873e+01
8.231097e+01	-1.621668e+01
8.278640e+01	-1.626807e+01
8.326457e+01	-1.631578e+01
8.374550e+01	-1.636488e+01
8.422921e+01	-1.641312e+01
8.471572e+01	-1.646191e+01
8.520503e+01	-1.651042e+01
8.569717e+01	-1.656006e+01
8.619215e+01	-1.660976e+01
8.669000e+01	-1.665872e+01
8.719071e+01	-1.670671e+01
8.769432e+01	-1.675594e+01
8.820084e+01	-1.680479e+01
8.871029e+01	-1.685335e+01
8.922267e+01	-1.690409e+01
8.973802e+01	-1.695202e+01
9.025634e+01	-1.700103e+01
9.077766e+01	-1.704874e+01
9.130199e+01	-1.709943e+01
9.182935e+01	-1.714787e+01
9.235975e+01	-1.719727e+01
9.289321e+01	-1.724769e+01
9.342976e+01	-1.729482e+01
9.396941e+01	-1.734505e+01
9.451217e+01	-1.739377e+01
9.505807e+01	-1.744307e+01
9.560712e+01	-1.749209e+01
9.615934e+01	-1.754046e+01
9.671476e+01	-1.759085e+01
9.727338e+01	-1.764051e+01
9.783522e+01	-1.768773e+01
9.840032e+01	-1.773735e+01
9.896867e+01	-1.778790e+01
9.954031e+01	-1.783543e+01
1.001153e+02	-1.788558e+01
1.006935e+02	-1.793497e+01
1.012751e+02	-1.798401e+01
1.018601e+02	-1.803361e+01
1.024484e+02	-1.808185e+01
1.030402e+02	-1.813190e+01
1.036353e+02	-1.818077e+01
1.042339e+02	-1.822977e+01
1.048360e+02	-1.827845e+01
1.054415e+02	-1.832794e+01
1.060505e+02	-1.837702e+01
1.066631e+02	-1.842690e+01
1.072791e+02	-1.847604e+01
1.078988e+02	-1.852523e+01
1.085220e+02	-1.857533e+01
1.091488e+02	-1.862505e+01
1.097793e+02	-1.867277e+01
1.104133e+02	-1.872393e+01
1.110511e+02	-1.877440e+01
1.116925e+02	-1.882257e+01
1.123376e+02	-1.887075e+01
1.129865e+02	-1.892166e+01
1.136391e+02	-1.897032e+01
1.142955e+02	-1.902055e+01
1.149556e+02	-1.906901e+01
1.156196e+02	-1.911906e+01
1.162874e+02	-1.916964e+01
1.169591e+02	-1.921810e+01
1.176347e+02	-1.926607e+01
1.183141e+02	-1.931405e+01
1.189975e+02	-1.936525e+01
1.196848e+02	-1.941574e+01
1.203761e+02	-1.946294e+01
1.210714e+02	-1.951400e+01
1.217707e+02	-1.956276e+01
1.224740e+02	-1.961360e+01
1.231814e+02	-1.966169e+01
1.238929e+02	-1.971246e+01
1.246085e+02	-1.975995e+01
1.253283e+02	-1.981059e+01
1.260522e+02	-1.985988e+01
1.267802e+02	-1.991066e+01
1.275125e+02	-1.995982e+01
1.282490e+02	-2.000930e+01
1.289898e+02	-2.005808e+01
1.297348e+02	-2.010701e+01
1.304842e+02	-2.015833e+01
1.312378e+02	-2.020672e+01
1.319959e+02	-2.025726e+01
1.327583e+02	-2.030545e+01
1.335251e+02	-2.035630e+01
1.342963e+02	-2.040617e+01
1.350720e+02	-2.045393e+01
1.358522e+02	-2.050518e+01
1.366368e+02	-2.055453e+01
1.374260e+02	-2.060470e+01
1.382198e+02	-2.065354e+01
1.390182e+02	-2.070502e+01
1.398211e+02	-2.075263e+01
1.406287e+02	-2.080183e+01
1.414410e+02	-2.085112e+01
1.422579e+02	-2.090327e+01
1.430796e+02	-2.095210e+01
1.439060e+02	-2.099999e+01
1.447372e+02	-2.105184e+01
1.455732e+02	-2.109978e+01
1.464141e+02	-2.114922e+01
1.472597e+02	-2.119899e+01
1.481103e+02	-2.124965e+01
1.489658e+02	-2.130013e+01
1.498262e+02	-2.134769e+01
1.506916e+02	-2.139930e+01
1.515620e+02	-2.144828e+01
1.524374e+02	-2.149726e+01
1.533179e+02	-2.154742e+01
1.542034e+02	-2.159647e+01
1.550941e+02	-2.164590e+01
1.559899e+02	-2.169539e+01
1.568909e+02	-2.174599e+01
1.577971e+02	-2.179603e+01
1.587085e+02	-2.184600e+01
1.596252e+02	-2.189496e+01
1.605472e+02	-2.194296e+01
1.614745e+02	-2.199496e+01
1.624072e+02	-2.204644e+01
1.633453e+02	-2.209349e+01
1.642887e+02	-2.214362e+01
1.652377e+02	-2.219358e+01
1.661921e+02	-2.224201e+01
1.671520e+02	-2.229309e+01
1.681175e+02	-2.234411e+01
1.690885e+02	-2.239521e+01
1.700651e+02	-2.244439e+01
1.710474e+02	-2.249350e+01
1.720354e+02	-2.254374e+01
1.730291e+02	-2.259144e+01
1.740285e+02	-2.264301e+01
1.750337e+02	-2.268946e+01
1.760446e+02	-2.274078e+01
1.770615e+02	-2.279166e+01
1.780842e+02	-2.284045e+01
1.791128e+02	-2.289015e+01
1.801473e+02	-2.293977e+01
1.811878e+02	-2.299121e+01
1.822344e+02	-2.303886e+01
1.832870e+02	-2.309103e+01
1.843456e+02	-2.313979e+01
1.854104e+02	-2.318926e+01
1.864813e+02	-2.323983e+01
1.875584e+02	-2.328854e+01
1.886418e+02	-2.333713e+01
1.897313e+02	-2.338768e+01
1.908272e+02	-2.344131e+01
1.919294e+02	-2.348713e+01
1.930380e+02	-2.353845e+01
1.941530e+02	-2.358852e+01
1.952744e+02	-2.363776e+01
1.964023e+02	-2.368837e+01
1.975367e+02	-2.373687e+01
1.986777e+02	-2.378568e+01
1.998252e+02	-2.383540e+01
2.009794e+02	-2.388437e+01
2.021403e+02	-2.393558e+01
2.033078e+02	-2.398726e+01
2.044821e+02	-2.403557e+01
2.056632e+02	-2.408638e+01
2.068511e+02	-2.413577e+01
2.080459e+02	-2.418480e+01
2.092475e+02	-2.423412e+01
2.104561e+02	-2.428800e+01
2.116717e+02	-2.433611e+01
2.128943e+02	-2.438676e+01
2.141240e+02	-2.443474e+01
2.153608e+02	-2.448762e+01
2.166047e+02	-2.453463e+01
2.178558e+02	-2.458473e+01
2.191141e+02	-2.463473e+01
2.203797e+02	-2.468354e+01
2.216526e+02	-2.473545e+01
2.229329e+02	-2.478380e+01
2.242205e+02	-2.483711e+01
2.255156e+02	-2.488508e+01
2.268182e+02	-2.493407e+01
2.281283e+02	-2.498192e+01
2.294459e+02	-2.503438e+01
2.307712e+02	-2.508610e+01
2.321041e+02	-2.513234e+01
2.334447e+02	-2.518410e+01
2.347931e+02	-2.523395e+01
2.361493e+02	-2.528295e+01
2.375133e+02	-2.533453e+01
2.388851e+02	-2.538397e+01
2.402649e+02	-2.543298e+01
2.416527e+02	-2.548646e+01
2.430484e+02	-2.553399e+01
2.444523e+02	-2.558397e+01
2.458642e+02	-2.563041e+01
2.472843e+02	-2.568262e+01
2.487126e+02	-2.573111e+01
2.501492e+02	-2.578227e+01
2.515940e+02	-2.583340e+01
2.530472e+02	-2.588367e+01
2.545088e+02	-2.593124e+01
2.559789e+02	-2.598139e+01
2.574574e+02	-2.603252e+01
2.589444e+02	-2.608229e+01
2.604401e+02	-2.613526e+01
2.619444e+02	-2.618206e+01
2.634574e+02	-2.623169e+01
2.649791e+02	-2.628044e+01
2.665096e+02	-2.633106e+01
2.680489e+02	-2.638370e+01
2.695972e+02	-2.643206e+01
2.711544e+02	-2.648224e+01
2.727205e+02	-2.653364e+01
2.742958e+02	-2.658497e+01
2.758801e+02	-2.663139e+01
2.774736e+02	-2.668460e+01
2.790762e+02	-2.673487e+01
2.806882e+02	-2.678080e+01
2.823094e+02	-2.683138e+01
2.839400e+02	-2.688094e+01
2.855800e+02	-2.693438e+01
2.872295e+02	-2.698008e+01
2.888886e+02	-2.703272e+01
2.905572e+02	-2.708042e+01
2.922354e+02	-2.713428e+01
2.939234e+02	-2.717939e+01
2.956211e+02	-2.723502e+01
2.973286e+02	-2.728704e+01
2.990459e+02	-2.733178e+01
3.007732e+02	-2.738078e+01
3.025104e+02	-2.743030e+01
3.042577e+02	-2.747979e+01
3.060151e+02	-2.753032e+01
3.077826e+02	-2.757962e+01
3.095604e+02	-2.763045e+01
3.113484e+02	-2.768133e+01
3.131467e+02	-2.773240e+01
3.149554e+02	-2.778099e+01
3.167746e+02	-2.783545e+01
3.186043e+02	-2.788071e+01
3.204445e+02	-2.792977e+01
3.222954e+02	-2.798521e+01
3.241570e+02	-2.803202e+01
3.260293e+02	-2.808015e+01
3.279124e+02	-2.813125e+01
3.298064e+02	-2.818293e+01
3.317114e+02	-2.822610e+01
3.336273e+02	-2.828479e+01
3.355544e+02	-2.833048e+01
3.374925e+02	-2.837971e+01
3.394418e+02	-2.843223e+01
3.414024e+02	-2.848237e+01
3.433744e+02	-2.853405e+01
3.453577e+02	-2.858256e+01
3.473525e+02	-2.863190e+01
3.493588e+02	-2.868397e+01
3.513766e+02	-2.873667e+01
3.534062e+02	-2.877927e+01
3.554474e+02	-2.883198e+01
3.575005e+02	-2.887992e+01
3.595654e+02	-2.893320e+01
3.616422e+02	-2.898400e+01
3.637311e+02	-2.903322e+01
3.658320e+02	-2.908109e+01
3.679450e+02	-2.913444e+01
3.700702e+02	-2.918356e+01
3.722077e+02	-2.923260e+01
3.743576e+02	-2.928136e+01
3.765199e+02	-2.933080e+01
3.786946e+02	-2.938402e+01
3.808820e+02	-2.943817e+01
3.830819e+02	-2.948900e+01
3.852946e+02	-2.953105e+01
3.875200e+02	-2.958029e+01
3.897583e+02	-2.963109e+01
3.920096e+02	-2.967983e+01
3.942738e+02	-2.973621e+01
3.965511e+02	-2.978640e+01
3.988416e+02	-2.983029e+01
4.011452e+02	-2.988181e+01
4.034622e+02	-2.993356e+01
4.057926e+02	-2.998508e+01
4.081365e+02	-3.003747e+01
4.104938e+02	-3.008195e+01
4.128648e+02	-3.013105e+01
4.152495e+02	-3.018297e+01
4.176480e+02	-3.024175e+01
4.200603e+02	-3.028638e+01
4.224866e+02	-3.033259e+01
4.249268e+02	-3.038521e+01
4.273812e+02	-3.043599e+01
4.298497e+02	-3.048439e+01
4.323325e+02	-3.053079e+01
4.348297e+02	-3.058130e+01
4.373412e+02	-3.063521e+01
4.398673e+02	-3.068403e+01
4.424079e+02	-3.073421e+01
4.449633e+02	-3.079029e+01
4.475334e+02	-3.083426e+01
4.501183e+02	-3.088520e+01
4.527182e+02	-3.093629e+01
4.553330e+02	-3.098605e+01
4.579630e+02	-3.104163e+01
4.606082e+02	-3.108989e+01
4.632687e+02	-3.113953e+01
4.659445e+02	-3.118127e+01
4.686358e+02	-3.124302e+01
4.713426e+02	-3.128921e+01
4.740650e+02	-3.134115e+01
4.768032e+02	-3.138717e+01
4.795572e+02	-3.143845e+01
4.823271e+02	-3.148726e+01
4.851130e+02	-3.153849e+01
4.879150e+02	-3.158819e+01
4.907332e+02	-3.164043e+01
4.935676e+02	-3.168592e+01
4.964185e+02	-3.173689e+01
4.992858e+02	-3.179138e+01
5.021696e+02	-3.183937e+01
5.050701e+02	-3.188828e+01
5.079874e+02	-3.193521e+01
5.109215e+02	-3.199095e+01
5.138726e+02	-3.204046e+01
5.168407e+02	-3.209111e+01
5.198259e+02	-3.214419e+01
5.228284e+02	-3.219393e+01
5.258482e+02	-3.223433e+01
5.288855e+02	-3.228610e+01
5.319403e+02	-3.234258e+01
5.350128e+02	-3.238665e+01
5.381030e+02	-3.244533e+01
5.412111e+02	-3.248881e+01
5.443371e+02	-3.254257e+01
5.474812e+02	-3.259627e+01
5.506434e+02	-3.263768e+01
5.538239e+02	-3.269212e+01
5.570228e+02	-3.273763e+01
5.602401e+02	-3.279056e+01
5.634760e+02	-3.284413e+01
5.667306e+02	-3.288879e+01
5.700040e+02	-3.294384e+01
5.732964e+02	-3.299464e+01
5.766077e+02	-3.304763e+01
5.799382e+02	-3.309672e+01
5.832879e+02	-3.314232e+01
5.866569e+02	-3.319489e+01
5.900454e+02	-3.324879e+01
5.934535e+02	-3.329669e+01
5.968813e+02	-3.334842e+01
6.003288e+02	-3.339427e+01
6.037963e+02	-3.343826e+01
6.072838e+02	-3.349740e+01
6.107914e+02	-3.355081e+01
6.143194e+02	-3.359234e+01
6.178676e+02	-3.365173e+01
6.214364e+02	-3.368990e+01
6.250258e+02	-3.374553e+01
6.286359e+02	-3.379952e+01
6.322669e+02	-3.384258e+01
6.359189e+02	-3.389427e+01
6.395919e+02	-3.395353e+01
6.432862e+02	-3.399112e+01
6.470017e+02	-3.404770e+01
6.507388e+02	-3.409663e+01
6.544974e+02	-3.414697e+01
6.582778e+02	-3.420094e+01
6.620800e+02	-3.425190e+01
6.659041e+02	-3.430337e+01
6.697504e+02	-3.435256e+01
6.736188e+02	-3.440238e+01
6.775096e+02	-3.445361e+01
6.814229e+02	-3.450094e+01
6.853587e+02	-3.455570e+01
6.893173e+02	-3.460356e+01
6.932988e+02	-3.464827e+01
6.973033e+02	-3.470281e+01
7.013309e+02	-3.475219e+01
