Frequency(Hz)	Magnitude(dB)
1.000000e+01	-2.199896e+00
1.005776e+01	-2.219923e+00
1.011585e+01	-2.240086e+00
1.017428e+01	-2.260164e+00
1.023305e+01	-2.280763e+00
1.029215e+01	-2.301336e+00
1.035160e+01	-2.321639e+00
1.041139e+01	-2.342525e+00
1.047153e+01	-2.363508e+00
1.053201e+01	-2.384475e+00
1.059284e+01	-2.405648e+00
1.065403e+01	-2.427217e+00
1.071556e+01	-2.448542e+00
1.077746e+01	-2.470121e+00
1.083971e+01	-2.491810e+00
1.090232e+01	-2.513973e+00
1.096529e+01	-2.535870e+00
1.102862e+01	-2.558291e+00
1.109232e+01	-2.580544e+00
1.115639e+01	-2.602856e+00
1.122083e+01	-2.625693e+00
1.128564e+01	-2.648624e+00
1.135083e+01	-2.671145e+00
1.141639e+01	-2.694264e+00
1.148233e+01	-2.717458e+00
1.154865e+01	-2.740832e+00
1.161536e+01	-2.764164e+00
1.168245e+01	-2.788058e+00
1.174992e+01	-2.811772e+00
1.181779e+01	-2.835473e+00
1.188605e+01	-2.859812e+00
1.195470e+01	-2.884005e+00
1.202375e+01	-2.908268e+00
1.209320e+01	-2.932727e+00
1.216305e+01	-2.957256e+00
1.223330e+01	-2.982141e+00
1.230396e+01	-3.006878e+00
1.237503e+01	-3.032177e+00
1.244651e+01	-3.057353e+00
1.251840e+01	-3.082736e+00
1.259070e+01	-3.108196e+00
1.266343e+01	-3.133955e+00
1.273657e+01	-3.159505e+00
1.281014e+01	-3.185761e+00
1.288413e+01	-3.211633e+00
1.295855e+01	-3.237959e+00
1.303339e+01	-3.264253e+00
1.310867e+01	-3.290742e+00
1.318439e+01	-3.317474e+00
1.326054e+01	-3.344117e+00
1.333713e+01	-3.371164e+00
1.341417e+01	-3.398259e+00
1.349165e+01	-3.425468e+00
1.356958e+01	-3.452900e+00
1.364795e+01	-3.480144e+00
1.372678e+01	-3.507878e+00
1.380607e+01	-3.535573e+00
1.388581e+01	-3.563653e+00
1.396602e+01	-3.591882e+00
1.404668e+01	-3.620212e+00
1.412782e+01	-3.648223e+00
1.420942e+01	-3.676771e+00
1.429149e+01	-3.705551e+00
1.437404e+01	-3.734348e+00
1.445706e+01	-3.763075e+00
1.454057e+01	-3.792002e+00
1.462455e+01	-3.821427e+00
1.470902e+01	-3.850637e+00
1.479398e+01	-3.880320e+00
1.487943e+01	-3.909739e+00
1.496537e+01	-3.939592e+00
1.505181e+01	-3.969417e+00
1.513875e+01	-3.999559e+00
1.522619e+01	-4.029899e+00
1.531414e+01	-4.060265e+00
1.540259e+01	-4.090330e+00
1.549156e+01	-4.121302e+00
1.558103e+01	-4.151844e+00
1.567103e+01	-4.182956e+00
1.576155e+01	-4.213582e+00
1.585258e+01	-4.244653e+00
1.594415e+01	-4.276165e+00
1.603624e+01	-4.307519e+00
1.612886e+01	-4.338943e+00
1.622202e+01	-4.370691e+00
1.631572e+01	-4.402427e+00
1.640996e+01	-4.434307e+00
1.650474e+01	-4.466558e+00
1.660008e+01	-4.498738e+00
1.669596e+01	-4.531071e+00
1.679239e+01	-4.563392e+00
1.688938e+01	-4.596166e+00
1.698694e+01	-4.628745e+00
1.708505e+01	-4.661868e+00
1.718373e+01	-4.694676e+00
1.728299e+01	-4.727884e+00
1.738281e+01	-4.761272e+00
1.748322e+01	-4.794443e+00
1.758420e+01	-4.827891e+00
1.768576e+01	-4.861648e+00
1.778792e+01	-4.895276e+00
1.789066e+01	-4.929386e+00
1.799399e+01	-4.963045e+00
1.809793e+01	-4.997267e+00
1.820246e+01	-5.031674e+00
1.830760e+01	-5.066082e+00
1.841334e+01	-5.100591e+00
1.851969e+01	-5.135188e+00
1.862666e+01	-5.170188e+00
1.873425e+01	-5.204780e+00
1.884246e+01	-5.239724e+00
1.895129e+01	-5.275169e+00
1.906075e+01	-5.310061e+00
1.917085e+01	-5.345359e+00
1.928158e+01	-5.381121e+00
1.939295e+01	-5.416796e+00
1.950496e+01	-5.452578e+00
1.961762e+01	-5.488022e+00
1.973093e+01	-5.523916e+00
1.984490e+01	-5.560266e+00
1.995952e+01	-5.596065e+00
2.007480e+01	-5.632448e+00
2.019076e+01	-5.668805e+00
2.030738e+01	-5.705205e+00
2.042467e+01	-5.742180e+00
2.054264e+01	-5.779218e+00
2.066130e+01	-5.815653e+00
2.078064e+01	-5.852544e+00
2.090066e+01	-5.890065e+00
2.102139e+01	-5.926958e+00
2.114280e+01	-5.964328e+00
2.126492e+01	-6.001908e+00
2.138775e+01	-6.039287e+00
2.151128e+01	-6.076850e+00
2.163553e+01	-6.114356e+00
2.176050e+01	-6.152335e+00
2.188619e+01	-6.190352e+00
2.201260e+01	-6.228433e+00
2.213974e+01	-6.266351e+00
2.226762e+01	-6.304795e+00
2.239624e+01	-6.343470e+00
2.252560e+01	-6.381720e+00
2.265571e+01	-6.420474e+00
2.278656e+01	-6.458872e+00
2.291818e+01	-6.497773e+00
2.305055e+01	-6.536627e+00
2.318369e+01	-6.575502e+00
2.331760e+01	-6.614623e+00
2.345228e+01	-6.653539e+00
2.358774e+01	-6.693247e+00
2.372398e+01	-6.732427e+00
2.386101e+01	-6.771549e+00
2.399883e+01	-6.811258e+00
2.413745e+01	-6.850984e+00
2.427686e+01	-6.890689e+00
2.441709e+01	-6.930714e+00
2.455812e+01	-6.970381e+00
2.469997e+01	-7.010434e+00
2.484263e+01	-7.050905e+00
2.498612e+01	-7.090806e+00
2.513044e+01	-7.131284e+00
2.527559e+01	-7.171586e+00
2.542158e+01	-7.212297e+00
2.556842e+01	-7.252384e+00
2.571610e+01	-7.293305e+00
2.586463e+01	-7.334287e+00
2.601403e+01	-7.375104e+00
2.616428e+01	-7.415792e+00
2.631541e+01	-7.456641e+00
2.646740e+01	-7.497463e+00
2.662028e+01	-7.539059e+00
2.677404e+01	-7.580489e+00
2.692868e+01	-7.621467e+00
2.708422e+01	-7.662907e+00
2.724066e+01	-7.704521e+00
2.739800e+01	-7.746195e+00
2.755625e+01	-7.787397e+00
2.771541e+01	-7.829632e+00
2.787550e+01	-7.871026e+00
2.803650e+01	-7.912814e+00
2.819844e+01	-7.955161e+00
2.836131e+01	-7.997224e+00
2.852513e+01	-8.039385e+00
2.868989e+01	-8.081624e+00
2.885560e+01	-8.123860e+00
2.902227e+01	-8.166369e+00
2.918990e+01	-8.208485e+00
2.935850e+01	-8.251305e+00
2.952807e+01	-8.293820e+00
2.969863e+01	-8.336343e+00
2.987016e+01	-8.379263e+00
3.004269e+01	-8.422012e+00
3.021622e+01	-8.464531e+00
3.039075e+01	-8.507800e+00
3.056628e+01	-8.550292e+00
3.074283e+01	-8.593371e+00
3.092040e+01	-8.636582e+00
3.109900e+01	-8.679719e+00
3.127862e+01	-8.723476e+00
3.145929e+01	-8.766555e+00
3.164099e+01	-8.810110e+00
3.182375e+01	-8.853321e+00
3.200756e+01	-8.897120e+00
3.219244e+01	-8.940688e+00
3.237838e+01	-8.984325e+00
3.256540e+01	-9.028114e+00
3.275349e+01	-9.072162e+00
3.294268e+01	-9.115829e+00
3.313295e+01	-9.159793e+00
3.332433e+01	-9.203656e+00
3.351681e+01	-9.247673e+00
3.371040e+01	-9.291873e+00
3.390511e+01	-9.336419e+00
3.410094e+01	-9.380467e+00
3.429791e+01	-9.424555e+00
3.449601e+01	-9.468470e+00
3.469526e+01	-9.512918e+00
3.489566e+01	-9.557443e+00
3.509721e+01	-9.602181e+00
3.529993e+01	-9.647461e+00
3.550382e+01	-9.691594e+00
3.570889e+01	-9.735939e+00
3.591515e+01	-9.781157e+00
3.612259e+01	-9.825758e+00
3.633123e+01	-9.870548e+00
3.654108e+01	-9.915817e+00
3.675214e+01	-9.960539e+00
3.696442e+01	-1.000581e+01
3.717792e+01	-1.005064e+01
3.739266e+01	-1.009586e+01
3.760864e+01	-1.014082e+01
3.782587e+01	-1.018578e+01
3.804435e+01	-1.023131e+01
3.826409e+01	-1.027637e+01
3.848510e+01	-1.032178e+01
3.870739e+01	-1.036725e+01
3.893096e+01	-1.041251e+01
3.915583e+01	-1.045822e+01
3.938199e+01	-1.050350e+01
3.960946e+01	-1.054991e+01
3.983824e+01	-1.059505e+01
4.006834e+01	-1.064050e+01
4.029978e+01	-1.068668e+01
4.053255e+01	-1.073193e+01
4.076666e+01	-1.077825e+01
4.100213e+01	-1.082363e+01
4.123896e+01	-1.086935e+01
4.147715e+01	-1.091566e+01
4.171672e+01	-1.096209e+01
4.195767e+01	-1.100794e+01
4.220002e+01	-1.105398e+01
4.244377e+01	-1.109960e+01
4.268892e+01	-1.114640e+01
4.293549e+01	-1.119268e+01
4.318348e+01	-1.123869e+01
4.343291e+01	-1.128442e+01
4.368377e+01	-1.133106e+01
4.393609e+01	-1.137772e+01
4.418986e+01	-1.142377e+01
4.444510e+01	-1.147032e+01
4.470182e+01	-1.151681e+01
4.496001e+01	-1.156320e+01
4.521970e+01	-1.161039e+01
4.548089e+01	-1.165641e+01
4.574358e+01	-1.170290e+01
4.600779e+01	-1.175011e+01
4.627353e+01	-1.179702e+01
4.654081e+01	-1.184301e+01
4.680963e+01	-1.189087e+01
4.708000e+01	-1.193689e+01
4.735193e+01	-1.198308e+01
4.762543e+01	-1.203097e+01
4.790051e+01	-1.207717e+01
4.817719e+01	-1.212421e+01
4.845545e+01	-1.217144e+01
4.873533e+01	-1.221826e+01
4.901682e+01	-1.226530e+01
4.929994e+01	-1.231244e+01
4.958470e+01	-1.236007e+01
4.987110e+01	-1.240734e+01
5.015915e+01	-1.245425e+01
5.044887e+01	-1.250121e+01
5.074026e+01	-1.254781e+01
5.103333e+01	-1.259523e+01
5.132810e+01	-1.264235e+01
5.162457e+01	-1.268965e+01
5.192275e+01	-1.273784e+01
5.222265e+01	-1.278537e+01
5.252429e+01	-1.283232e+01
5.282767e+01	-1.287953e+01
5.313280e+01	-1.292737e+01
5.343969e+01	-1.297508e+01
5.374836e+01	-1.302147e+01
5.405880e+01	-1.306973e+01
5.437105e+01	-1.311716e+01
5.468509e+01	-1.316508e+01
5.500095e+01	-1.321266e+01
5.531863e+01	-1.325995e+01
5.563815e+01	-1.330779e+01
5.595951e+01	-1.335606e+01
5.628273e+01	-1.340357e+01
5.660782e+01	-1.345104e+01
5.693479e+01	-1.349999e+01
5.726364e+01	-1.354672e+01
5.759439e+01	-1.359402e+01
5.792705e+01	-1.364297e+01
5.826164e+01	-1.369038e+01
5.859815e+01	-1.373819e+01
5.893662e+01	-1.378589e+01
5.927703e+01	-1.383420e+01
5.961941e+01	-1.388173e+01
5.996377e+01	-1.393075e+01
6.031012e+01	-1.397864e+01
6.065847e+01	-1.402594e+01
6.100883e+01	-1.407352e+01
6.136121e+01	-1.412296e+01
6.171563e+01	-1.417061e+01
6.207210e+01	-1.421818e+01
6.243063e+01	-1.426671e+01
6.279122e+01	-1.431420e+01
6.315390e+01	-1.436263e+01
6.351868e+01	-1.441093e+01
6.388556e+01	-1.445887e+01
6.425456e+01	-1.450726e+01
6.462569e+01	-1.455579e+01
6.499897e+01	-1.460413e+01
6.537440e+01	-1.465212e+01
6.575200e+01	-1.470077e+01
6.613178e+01	-1.474894e+01
6.651375e+01	-1.479819e+01
6.689793e+01	-1.484656e+01
6.728433e+01	-1.489418e+01
6.767297e+01	-1.494252e+01
6.806384e+01	-1.499124e+01
6.845698e+01	-1.503982e+01
6.885238e+01	-1.508799e+01
6.925007e+01	-1.513670e+01
6.965005e+01	-1.518477e+01
7.005235e+01	-1.523390e+01
7.045697e+01	-1.528266e+01
7.086393e+01	-1.533128e+01
7.127323e+01	-1.537985e+01
7.168490e+01	-1.542797e+01
7.209895e+01	-1.547587e+01
7.251539e+01	-1.552402e+01
7.293424e+01	-1.557374e+01
7.335551e+01	-1.562284e+01
7.377920e+01	-1.567051e+01
7.420535e+01	-1.571956e+01
7.463396e+01	-1.576930e+01
7.506504e+01	-1.581659e+01
7.549861e+01	-1.586542e+01
7.593469e+01	-1.591400e+01
7.637328e+01	-1.596353e+01
7.681441e+01	-1.601164e+01
7.725809e+01	-1.606111e+01
7.770433e+01	-1.611067e+01
7.815315e+01	-1.615823e+01
7.860456e+01	-1.620741e+01
7.905857e+01	-1.625737e+01
7.951521e+01	-1.630581e+01
7.997449e+01	-1.635459e+01
8.043642e+01	-1.640313e+01
8.090102e+01	-1.645191e+01
8.136830e+01	-1.650077e+01
8.183828e+01	-1.654926e+01
8.231097e+01	-1.659778e+01
8.278640e+01	-1.664793e+01
8.326457e+01	-1.669628e+01
8.374550e+01	-1.674598e+01
8.422921e+01	-1.679328e+01
8.471572e+01	-1.684294e+01
8.520503e+01	-1.689244e+01
8.569717e+01	-1.694197e+01
8.619215e+01	-1.699103e+01
8.669000e+01	-1.703878e+01
8.719071e+01	-1.708813e+01
8.769432e+01	-1.713800e+01
8.820084e+01	-1.718734e+01
8.871029e+01	-1.723583e+01
8.922267e+01	-1.728453e+01
8.973802e+01	-1.733336e+01
9.025634e+01	-1.738207e+01
9.077766e+01	-1.743094e+01
9.130199e+01	-1.748011e+01
9.182935e+01	-1.753067e+01
9.235975e+01	-1.757893e+01
9.289321e+01	-1.762868e+01
9.342976e+01	-1.767778e+01
9.396941e+01	-1.772564e+01
9.451217e+01	-1.777652e+01
9.505807e+01	-1.782526e+01
9.560712e+01	-1.787501e+01
9.615934e+01	-1.792487e+01
9.671476e+01	-1.797268e+01
9.727338e+01	-1.802238e+01
9.783522e+01	-1.807284e+01
9.840032e+01	-1.812139e+01
9.896867e+01	-1.816990e+01
9.954031e+01	-1.822008e+01
1.001153e+02	-1.826721e+01
1.006935e+02	-1.831798e+01
1.012751e+02	-1.836616e+01
1.018601e+02	-1.841548e+01
1.024484e+02	-1.846543e+01
1.030402e+02	-1.851537e+01
1.036353e+02	-1.856387e+01
1.042339e+02	-1.861225e+01
1.048360e+02	-1.866380e+01
1.054415e+02	-1.871252e+01
1.060505e+02	-1.876314e+01
1.066631e+02	-1.881201e+01
1.072791e+02	-1.885994e+01
1.078988e+02	-1.891108e+01
1.085220e+02	-1.896169e+01
1.091488e+02	-1.900800e+01
1.097793e+02	-1.905788e+01
1.104133e+02	-1.910685e+01
1.110511e+02	-1.915728e+01
1.116925e+02	-1.920767e+01
1.123376e+02	-1.925569e+01
1.129865e+02	-1.930547e+01
1.136391e+02	-1.935565e+01
1.142955e+02	-1.940447e+01
1.149556e+02	-1.945446e+01
1.156196e+02	-1.950367e+01
1.162874e+02	-1.955468e+01
1.169591e+02	-1.960170e+01
1.176347e+02	-1.965320e+01
1.183141e+02	-1.970062e+01
1.189975e+02	-1.975002e+01
1.196848e+02	-1.980055e+01
1.203761e+02	-1.984818e+01
1.210714e+02	-1.989910e+01
1.217707e+02	-1.994960e+01
1.224740e+02	-1.999821e+01
1.231814e+02	-2.004582e+01
1.238929e+02	-2.009800e+01
1.246085e+02	-2.014754e+01
1.253283e+02	-2.019635e+01
1.260522e+02	-2.024565e+01
1.267802e+02	-2.029592e+01
1.275125e+02	-2.034590e+01
1.282490e+02	-2.039296e+01
1.289898e+02	-2.044285e+01
1.297348e+02	-2.049336e+01
1.304842e+02	-2.054201e+01
1.312378e+02	-2.059344e+01
1.319959e+02	-2.064171e+01
1.327583e+02	-2.069238e+01
1.335251e+02	-2.074140e+01
1.342963e+02	-2.079239e+01
1.350720e+02	-2.084370e+01
1.358522e+02	-2.089256e+01
1.366368e+02	-2.094182e+01
1.374260e+02	-2.099055e+01
1.382198e+02	-2.104070e+01
1.390182e+02	-2.108760e+01
1.398211e+02	-2.114027e+01
1.406287e+02	-2.118994e+01
1.414410e+02	-2.123981e+01
1.422579e+02	-2.128886e+01
1.430796e+02	-2.133775e+01
1.439060e+02	-2.138697e+01
1.447372e+02	-2.143835e+01
1.455732e+02	-2.148683e+01
1.464141e+02	-2.153410e+01
1.472597e+02	-2.158526e+01
1.481103e+02	-2.163571e+01
1.489658e+02	-2.168517e+01
1.498262e+02	-2.173575e+01
1.506916e+02	-2.178278e+01
1.515620e+02	-2.183382e+01
1.524374e+02	-2.188376e+01
1.533179e+02	-2.193545e+01
1.542034e+02	-2.198605e+01
1.550941e+02	-2.203332e+01
1.559899e+02	-2.208387e+01
1.568909e+02	-2.213372e+01
1.577971e+02	-2.218478e+01
1.587085e+02	-2.223314e+01
1.596252e+02	-2.228271e+01
1.605472e+02	-2.232998e+01
1.614745e+02	-2.238168e+01
1.624072e+02	-2.243147e+01
1.633453e+02	-2.248071e+01
1.642887e+02	-2.253146e+01
1.652377e+02	-2.258098e+01
1.661921e+02	-2.263180e+01
1.671520e+02	-2.268177e+01
1.681175e+02	-2.273272e+01
1.690885e+02	-2.277803e+01
1.700651e+02	-2.282943e+01
1.710474e+02	-2.287931e+01
1.720354e+02	-2.293043e+01
1.730291e+02	-2.298006e+01
1.740285e+02	-2.302880e+01
1.750337e+02	-2.308237e+01
1.760446e+02	-2.312688e+01
1.770615e+02	-2.317696e+01
1.780842e+02	-2.322914e+01
1.791128e+02	-2.327943e+01
1.801473e+02	-2.332894e+01
1.811878e+02	-2.337716e+01
1.822344e+02	-2.342823e+01
1.832870e+02	-2.347754e+01
1.843456e+02	-2.352779e+01
1.854104e+02	-2.357712e+01
1.864813e+02	-2.362836e+01
1.875584e+02	-2.367868e+01
1.886418e+02	-2.372669e+01
1.897313e+02	-2.377744e+01
1.908272e+02	-2.382446e+01
1.919294e+02	-2.387642e+01
1.930380e+02	-2.392385e+01
1.941530e+02	-2.397693e+01
1.952744e+02	-2.402582e+01
1.964023e+02	-2.407509e+01
1.975367e+02	-2.412522e+01
1.986777e+02	-2.417763e+01
1.998252e+02	-2.422507e+01
2.009794e+02	-2.427459e+01
2.021403e+02	-2.432468e+01
2.033078e+02	-2.437555e+01
2.044821e+02	-2.442365e+01
2.056632e+02	-2.447405e+01
2.068511e+02	-2.452367e+01
2.080459e+02	-2.457350e+01
2.092475e+02	-2.462357e+01
2.104561e+02	-2.467068e+01
2.116717e+02	-2.472424e+01
2.128943e+02	-2.477099e+01
2.141240e+02	-2.482516e+01
2.153608e+02	-2.487346e+01
2.166047e+02	-2.492169e+01
2.178558e+02	-2.497403e+01
2.191141e+02	-2.502391e+01
2.203797e+02	-2.507111e+01
2.216526e+02	-2.512454e+01
2.229329e+02	-2.517262e+01
2.242205e+02	-2.522453e+01
2.255156e+02	-2.527466e+01
2.268182e+02	-2.532061e+01
2.281283e+02	-2.537309e+01
2.294459e+02	-2.542370e+01
2.307712e+02	-2.547178e+01
2.321041e+02	-2.552315e+01
2.334447e+02	-2.557267e+01
2.347931e+02	-2.562275e+01
2.361493e+02	-2.567225e+01
2.375133e+02	-2.572280e+01
2.388851e+02	-2.577254e+01
2.402649e+02	-2.582185e+01
2.416527e+02	-2.587245e+01
2.430484e+02	-2.592130e+01
2.444523e+02	-2.597353e+01
2.458642e+02	-2.602205e+01
2.472843e+02	-2.607591e+01
2.487126e+02	-2.612351e+01
2.501492e+02	-2.617241e+01
2.515940e+02	-2.622011e+01
2.530472e+02	-2.627319e+01
2.545088e+02	-2.632181e+01
2.559789e+02	-2.637023e+01
2.574574e+02	-2.642098e+01
2.589444e+02	-2.647088e+01
2.604401e+02	-2.652316e+01
2.619444e+02	-2.657224e+01
2.634574e+02	-2.661954e+01
2.649791e+02	-2.667363e+01
2.665096e+02	-2.672047e+01
2.680489e+02	-2.676776e+01
2.695972e+02	-2.682466e+01
2.711544e+02	-2.687074e+01
2.727205e+02	-2.691922e+01
2.742958e+02	-2.697019e+01
2.758801e+02	-2.702367e+01
2.774736e+02	-2.707252e+01
2.790762e+02	-2.711810e+01
2.806882e+02	-2.717337e+01
2.823094e+02	-2.721891e+01
2.839400e+02	-2.727022e+01
2.855800e+02	-2.732099e+01
2.872295e+02	-2.737391e+01
2.888886e+02	-2.742292e+01
2.905572e+02	-2.747237e+01
2.922354e+02	-2.752274e+01
2.939234e+02	-2.757299e+01
2.956211e+02	-2.762085e+01
2.973286e+02	-2.767209e+01
2.990459e+02	-2.772571e+01
3.007732e+02	-2.776941e+01
3.025104e+02	-2.782390e+01
3.042577e+02	-2.787030e+01
3.060151e+02	-2.791797e+01
3.077826e+02	-2.797273e+01
3.095604e+02	-2.802452e+01
3.113484e+02	-2.806845e+01
3.131467e+02	-2.811918e+01
3.149554e+02	-2.816877e+01
3.167746e+02	-2.822505e+01
3.186043e+02	-2.827140e+01
3.204445e+02	-2.832046e+01
3.222954e+02	-2.837152e+01
3.241570e+02	-2.842086e+01
3.260293e+02	-2.847602e+01
3.279124e+02	-2.852087e+01
3.298064e+02	-2.857220e+01
3.317114e+02	-2.861964e+01
3.336273e+02	-2.867368e+01
3.355544e+02	-2.872900e+01
3.374925e+02	-2.877291e+01
3.394418e+02	-2.882172e+01
3.414024e+02	-2.887270e+01
3.433744e+02	-2.892445e+01
3.453577e+02	-2.897497e+01
3.473525e+02	-2.902140e+01
3.493588e+02	-2.906958e+01
3.513766e+02	-2.912372e+01
3.534062e+02	-2.917592e+01
3.554474e+02	-2.922005e+01
3.575005e+02	-2.927718e+01
3.595654e+02	-2.932183e+01
3.616422e+02	-2.937196e+01
3.637311e+02	-2.943204e+01
3.658320e+02	-2.947804e+01
3.679450e+02	-2.952322e+01
3.700702e+02	-2.957398e+01
3.722077e+02	-2.962962e+01
3.743576e+02	-2.967117e+01
3.765199e+02	-2.972559e+01
3.786946e+02	-2.977127e+01
3.808820e+02	-2.982167e+01
3.830819e+02	-2.987421e+01
3.852946e+02	-2.992232e+01
3.875200e+02	-2.997266e+01
3.897583e+02	-3.002259e+01
3.920096e+02	-3.007789e+01
3.942738e+02	-3.012688e+01
3.965511e+02	-3.017465e+01
3.988416e+02	-3.022440e+01
4.011452e+02	-3.027540e+01
4.034622e+02	-3.032682e+01
4.057926e+02	-3.037878e+01
4.081365e+02	-3.042524e+01
4.104938e+02	-3.047670e+01
4.128648e+02	-3.052724e+01
4.152495e+02	-3.057073e+01
4.176480e+02	-3.062826e+01
4.200603e+02	-3.067494e+01
4.224866e+02	-3.072615e+01
4.249268e+02	-3.077796e+01
4.273812e+02	-3.082632e+01
4.298497e+02	-3.087968e+01
4.323325e+02	-3.092431e+01
4.348297e+02	-3.097969e+01
4.373412e+02	-3.102468e+01
4.398673e+02	-3.107765e+01
4.424079e+02	-3.112800e+01
4.449633e+02	-3.117979e+01
4.475334e+02	-3.122837e+01
4.501183e+02	-3.127811e+01
4.527182e+02	-3.132953e+01
4.553330e+02	-3.138019e+01
4.579630e+02	-3.143011e+01
4.606082e+02	-3.147691e+01
4.632687e+02	-3.153136e+01
4.659445e+02	-3.158271e+01
4.686358e+02	-3.162970e+01
4.713426e+02	-3.168150e+01
4.740650e+02	-3.173307e+01
4.768032e+02	-3.177877e+01
4.795572e+02	-3.183068e+01
4.823271e+02	-3.187954e+01
4.851130e+02	-3.192623e+01
4.879150e+02	-3.197659e+01
4.907332e+02	-3.203362e+01
4.935676e+02	-3.207857e+01
4.964185e+02	-3.213011e+01
4.992858e+02	-3.218239e+01
5.021696e+02	-3.223798e+01
5.050701e+02	-3.228762e+01
5.079874e+02	-3.233406e+01
5.109215e+02	-3.238100e+01
5.138726e+02	-3.243229e+01
5.168407e+02	-3.248399e+01
5.198259e+02	-3.253739e+01
5.228284e+02	-3.258836e+01
5.258482e+02	-3.263529e+01
5.288855e+02	-3.268311e+01
5.319403e+02	-3.273275e+01
5.350128e+02	-3.279074e+01
5.381030e+02	-3.283860e+01
5.412111e+02	-3.288817e+01
5.443371e+02	-3.294116e+01
5.474812e+02	-3.298786e+01
5.506434e+02	-3.303531e+01
5.538239e+02	-3.308506e+01
5.570228e+02	-3.314510e+01
5.602401e+02	-3.318311e+01
5.634760e+02	-3.323535e+01
5.667306e+02	-3.328769e+01
5.700040e+02	-3.333621e+01
5.732964e+02	-3.339050e+01
5.766077e+02	-3.343982e+01
5.799382e+02	-3.348850e+01
5.832879e+02	-3.354334e+01
5.866569e+02	-3.359309e+01
5.900454e+02	-3.363508e+01
5.934535e+02	-3.368781e+01
5.968813e+02	-3.373665e+01
6.003288e+02	-3.378799e+01
6.037963e+02	-3.383851e+01
6.072838e+02	-3.388986e+01
6.107914e+02	-3.394646e+01
6.143194e+02	-3.399040e+01
6.178676e+02	-3.404685e+01
6.214364e+02	-3.409386e+01
6.250258e+02	-3.414585e+01
6.286359e+02	-3.420501e+01
6.322669e+02	-3.424415e+01
6.359189e+02	-3.428986e+01
6.395919e+02	-3.433916e+01
6.432862e+02	-3.439017e+01
6.470017e+02	-3.444742e+01
6.507388e+02	-3.448736e+01
6.544974e+02	-3.455314e+01
6.582778e+02	-3.460178e+01
6.620800e+02	-3.464494e+01
6.659041e+02	-3.469751e+01
6.697504e+02	-3.474535e+01
6.736188e+02	-3.480081e+01
6.775096e+02	-3.485028e+01
6.814229e+02	-3.490205e+01
6.853587e+02	-3.494086e+01
6.893173e+02	-3.500239e+01
6.932988e+02	-3.504920e+01
6.973033e+02	-3.510726e+01
7.013309e+02	-3.515282e+01
