Frequency(Hz)	Magnitude(dB)
1.000000e+01	-1.630350e-05
1.005776e+01	-1.649238e-05
1.011585e+01	-1.668345e-05
1.017428e+01	-1.687673e-05
1.023305e+01	-1.707225e-05
1.029215e+01	-1.727004e-05
1.035160e+01	-1.747011e-05
1.041139e+01	-1.767251e-05
1.047153e+01	-1.787725e-05
1.053201e+01	-1.808436e-05
1.059284e+01	-1.829388e-05
1.065403e+01	-1.850582e-05
1.071556e+01	-1.872021e-05
1.077746e+01	-1.893709e-05
1.083971e+01	-1.915648e-05
1.090232e+01	-1.937841e-05
1.096529e+01	-1.960292e-05
1.102862e+01	-1.983002e-05
1.109232e+01	-2.005976e-05
1.115639e+01	-2.029215e-05
1.122083e+01	-2.052724e-05
1.128564e+01	-2.076506e-05
1.135083e+01	-2.100562e-05
1.141639e+01	-2.124898e-05
1.148233e+01	-2.149515e-05
1.154865e+01	-2.174418e-05
1.161536e+01	-2.199609e-05
1.168245e+01	-2.225092e-05
1.174992e+01	-2.250871e-05
1.181779e+01	-2.276948e-05
1.188605e+01	-2.303327e-05
1.195470e+01	-2.330011e-05
1.202375e+01	-2.357005e-05
1.209320e+01	-2.384311e-05
1.216305e+01	-2.411934e-05
1.223330e+01	-2.439877e-05
1.230396e+01	-2.468144e-05
1.237503e+01	-2.496738e-05
1.244651e+01	-2.525663e-05
1.251840e+01	-2.554923e-05
1.259070e+01	-2.584523e-05
1.266343e+01	-2.614465e-05
1.273657e+01	-2.644754e-05
1.281014e+01	-2.675395e-05
1.288413e+01	-2.706390e-05
1.295855e+01	-2.737744e-05
1.303339e+01	-2.769461e-05
1.310867e+01	-2.801546e-05
1.318439e+01	-2.834003e-05
1.326054e+01	-2.866835e-05
1.333713e+01	-2.900048e-05
1.341417e+01	-2.933646e-05
1.349165e+01	-2.967633e-05
1.356958e+01	-3.002014e-05
1.364795e+01	-3.036793e-05
1.372678e+01	-3.071975e-05
1.380607e+01	-3.107564e-05
1.388581e+01	-3.143566e-05
1.396602e+01	-3.179985e-05
1.404668e+01	-3.216826e-05
1.412782e+01	-3.254094e-05
1.420942e+01	-3.291793e-05
1.429149e+01	-3.329929e-05
1.437404e+01	-3.368507e-05
1.445706e+01	-3.407532e-05
1.454057e+01	-3.447010e-05
1.462455e+01	-3.486944e-05
1.470902e+01	-3.527341e-05
1.479398e+01	-3.568206e-05
1.487943e+01	-3.609545e-05
1.496537e+01	-3.651362e-05
1.505181e+01	-3.693664e-05
1.513875e+01	-3.736456e-05
1.522619e+01	-3.779743e-05
1.531414e+01	-3.823533e-05
1.540259e+01	-3.867829e-05
1.549156e+01	-3.912639e-05
1.558103e+01	-3.957968e-05
1.567103e+01	-4.003822e-05
1.576155e+01	-4.050207e-05
1.585258e+01	-4.097129e-05
1.594415e+01	-4.144596e-05
1.603624e+01	-4.192612e-05
1.612886e+01	-4.241184e-05
1.622202e+01	-4.290319e-05
1.631572e+01	-4.340023e-05
1.640996e+01	-4.390303e-05
1.650474e+01	-4.441166e-05
1.660008e+01	-4.492618e-05
1.669596e+01	-4.544666e-05
1.679239e+01	-4.597317e-05
1.688938e+01	-4.650578e-05
1.698694e+01	-4.704456e-05
1.708505e+01	-4.758958e-05
1.718373e+01	-4.814091e-05
1.728299e+01	-4.869864e-05
1.738281e+01	-4.926282e-05
1.748322e+01	-4.983354e-05
1.758420e+01	-5.041087e-05
1.768576e+01	-5.099489e-05
1.778792e+01	-5.158568e-05
1.789066e+01	-5.218331e-05
1.799399e+01	-5.278787e-05
1.809793e+01	-5.339942e-05
1.820246e+01	-5.401807e-05
1.830760e+01	-5.464388e-05
1.841334e+01	-5.527694e-05
1.851969e+01	-5.591733e-05
1.862666e+01	-5.656515e-05
1.873425e+01	-5.722047e-05
1.884246e+01	-5.788338e-05
1.895129e+01	-5.855397e-05
1.906075e+01	-5.923233e-05
1.917085e+01	-5.991855e-05
1.928158e+01	-6.061271e-05
1.939295e+01	-6.131492e-05
1.950496e+01	-6.202527e-05
1.961762e+01	-6.274384e-05
1.973093e+01	-6.347074e-05
1.984490e+01	-6.420606e-05
1.995952e+01	-6.494990e-05
2.007480e+01	-6.570236e-05
2.019076e+01	-6.646354e-05
2.030738e+01	-6.723353e-05
2.042467e+01	-6.801244e-05
2.054264e+01	-6.880038e-05
2.066130e+01	-6.959744e-05
2.078064e+01	-7.040374e-05
2.090066e+01	-7.121938e-05
2.102139e+01	-7.204447e-05
2.114280e+01	-7.287912e-05
2.126492e+01	-7.372344e-05
2.138775e+01	-7.457754e-05
2.151128e+01	-7.544153e-05
2.163553e+01	-7.631554e-05
2.176050e+01	-7.719967e-05
2.188619e+01	-7.809404e-05
2.201260e+01	-7.899877e-05
2.213974e+01	-7.991398e-05
2.226762e+01	-8.083980e-05
2.239624e+01	-8.177634e-05
2.252560e+01	-8.272374e-05
2.265571e+01	-8.368211e-05
2.278656e+01	-8.465158e-05
2.291818e+01	-8.563228e-05
2.305055e+01	-8.662434e-05
2.318369e+01	-8.762790e-05
2.331760e+01	-8.864308e-05
2.345228e+01	-8.967003e-05
2.358774e+01	-9.070887e-05
2.372398e+01	-9.175975e-05
2.386101e+01	-9.282280e-05
2.399883e+01	-9.389816e-05
2.413745e+01	-9.498599e-05
2.427686e+01	-9.608642e-05
2.441709e+01	-9.719959e-05
2.455812e+01	-9.832566e-05
2.469997e+01	-9.946478e-05
2.484263e+01	-1.006171e-04
2.498612e+01	-1.017828e-04
2.513044e+01	-1.029619e-04
2.527559e+01	-1.041548e-04
2.542158e+01	-1.053614e-04
2.556842e+01	-1.065820e-04
2.571610e+01	-1.078168e-04
2.586463e+01	-1.090659e-04
2.601403e+01	-1.103294e-04
2.616428e+01	-1.116076e-04
2.631541e+01	-1.129006e-04
2.646740e+01	-1.142085e-04
2.662028e+01	-1.155317e-04
2.677404e+01	-1.168701e-04
2.692868e+01	-1.182241e-04
2.708422e+01	-1.195937e-04
2.724066e+01	-1.209792e-04
2.739800e+01	-1.223808e-04
2.755625e+01	-1.237986e-04
2.771541e+01	-1.252328e-04
2.787550e+01	-1.266836e-04
2.803650e+01	-1.281513e-04
2.819844e+01	-1.296359e-04
2.836131e+01	-1.311378e-04
2.852513e+01	-1.326570e-04
2.868989e+01	-1.341939e-04
2.885560e+01	-1.357485e-04
2.902227e+01	-1.373212e-04
2.918990e+01	-1.389120e-04
2.935850e+01	-1.405213e-04
2.952807e+01	-1.421493e-04
2.969863e+01	-1.437961e-04
2.987016e+01	-1.454620e-04
3.004269e+01	-1.471472e-04
3.021622e+01	-1.488519e-04
3.039075e+01	-1.505764e-04
3.056628e+01	-1.523208e-04
3.074283e+01	-1.540854e-04
3.092040e+01	-1.558705e-04
3.109900e+01	-1.576763e-04
3.127862e+01	-1.595030e-04
3.145929e+01	-1.613509e-04
3.164099e+01	-1.632201e-04
3.182375e+01	-1.651110e-04
3.200756e+01	-1.670238e-04
3.219244e+01	-1.689588e-04
3.237838e+01	-1.709162e-04
3.256540e+01	-1.728963e-04
3.275349e+01	-1.748993e-04
3.294268e+01	-1.769255e-04
3.313295e+01	-1.789752e-04
3.332433e+01	-1.810486e-04
3.351681e+01	-1.831461e-04
3.371040e+01	-1.852679e-04
3.390511e+01	-1.874142e-04
3.410094e+01	-1.895854e-04
3.429791e+01	-1.917817e-04
3.449601e+01	-1.940035e-04
3.469526e+01	-1.962511e-04
3.489566e+01	-1.985246e-04
3.509721e+01	-2.008246e-04
3.529993e+01	-2.031511e-04
3.550382e+01	-2.055046e-04
3.570889e+01	-2.078854e-04
3.591515e+01	-2.102937e-04
3.612259e+01	-2.127300e-04
3.633123e+01	-2.151945e-04
3.654108e+01	-2.176875e-04
3.675214e+01	-2.202094e-04
3.696442e+01	-2.227605e-04
3.717792e+01	-2.253412e-04
3.739266e+01	-2.279518e-04
3.760864e+01	-2.305926e-04
3.782587e+01	-2.332640e-04
3.804435e+01	-2.359663e-04
3.826409e+01	-2.387000e-04
3.848510e+01	-2.414653e-04
3.870739e+01	-2.442627e-04
3.893096e+01	-2.470925e-04
3.915583e+01	-2.499550e-04
3.938199e+01	-2.528507e-04
3.960946e+01	-2.557800e-04
3.983824e+01	-2.587432e-04
4.006834e+01	-2.617407e-04
4.029978e+01	-2.647730e-04
4.053255e+01	-2.678403e-04
4.076666e+01	-2.709432e-04
4.100213e+01	-2.740821e-04
4.123896e+01	-2.772573e-04
4.147715e+01	-2.804693e-04
4.171672e+01	-2.837185e-04
4.195767e+01	-2.870054e-04
4.220002e+01	-2.903303e-04
4.244377e+01	-2.936937e-04
4.268892e+01	-2.970961e-04
4.293549e+01	-3.005380e-04
4.318348e+01	-3.040197e-04
4.343291e+01	-3.075417e-04
4.368377e+01	-3.111045e-04
4.393609e+01	-3.147086e-04
4.418986e+01	-3.183545e-04
4.444510e+01	-3.220426e-04
4.470182e+01	-3.257734e-04
4.496001e+01	-3.295474e-04
4.521970e+01	-3.333651e-04
4.548089e+01	-3.372271e-04
4.574358e+01	-3.411338e-04
4.600779e+01	-3.450858e-04
4.627353e+01	-3.490836e-04
4.654081e+01	-3.531276e-04
4.680963e+01	-3.572185e-04
4.708000e+01	-3.613569e-04
4.735193e+01	-3.655431e-04
4.762543e+01	-3.697778e-04
4.790051e+01	-3.740616e-04
4.817719e+01	-3.783950e-04
4.845545e+01	-3.827787e-04
4.873533e+01	-3.872131e-04
4.901682e+01	-3.916988e-04
4.929994e+01	-3.962366e-04
4.958470e+01	-4.008269e-04
4.987110e+01	-4.054703e-04
5.015915e+01	-4.101676e-04
5.044887e+01	-4.149193e-04
5.074026e+01	-4.197260e-04
5.103333e+01	-4.245884e-04
5.132810e+01	-4.295071e-04
5.162457e+01	-4.344828e-04
5.192275e+01	-4.395162e-04
5.222265e+01	-4.446079e-04
5.252429e+01	-4.497585e-04
5.282767e+01	-4.549688e-04
5.313280e+01	-4.602395e-04
5.343969e+01	-4.655712e-04
5.374836e+01	-4.709646e-04
5.405880e+01	-4.764206e-04
5.437105e+01	-4.819398e-04
5.468509e+01	-4.875229e-04
5.500095e+01	-4.931706e-04
5.531863e+01	-4.988838e-04
5.563815e+01	-5.046632e-04
5.595951e+01	-5.105095e-04
5.628273e+01	-5.164235e-04
5.660782e+01	-5.224061e-04
5.693479e+01	-5.284579e-04
5.726364e+01	-5.345799e-04
5.759439e+01	-5.407728e-04
5.792705e+01	-5.470374e-04
5.826164e+01	-5.533745e-04
5.859815e+01	-5.597851e-04
5.893662e+01	-5.662700e-04
5.927703e+01	-5.728299e-04
5.961941e+01	-5.794659e-04
5.996377e+01	-5.861787e-04
6.031012e+01	-5.929693e-04
6.065847e+01	-5.998385e-04
6.100883e+01	-6.067873e-04
6.136121e+01	-6.138166e-04
6.171563e+01	-6.209274e-04
6.207210e+01	-6.281205e-04
6.243063e+01	-6.353969e-04
6.279122e+01	-6.427576e-04
6.315390e+01	-6.502035e-04
6.351868e+01	-6.577358e-04
6.388556e+01	-6.653552e-04
6.425456e+01	-6.730629e-04
6.462569e+01	-6.808600e-04
6.499897e+01	-6.887473e-04
6.537440e+01	-6.967260e-04
6.575200e+01	-7.047971e-04
6.613178e+01	-7.129617e-04
6.651375e+01	-7.212208e-04
6.689793e+01	-7.295757e-04
6.728433e+01	-7.380273e-04
6.767297e+01	-7.465768e-04
6.806384e+01	-7.552254e-04
6.845698e+01	-7.639741e-04
6.885238e+01	-7.728241e-04
6.925007e+01	-7.817767e-04
6.965005e+01	-7.908330e-04
7.005235e+01	-7.999942e-04
7.045697e+01	-8.092614e-04
7.086393e+01	-8.186361e-04
7.127323e+01	-8.281193e-04
7.168490e+01	-8.377124e-04
7.209895e+01	-8.474165e-04
7.251539e+01	-8.572331e-04
7.293424e+01	-8.671634e-04
7.335551e+01	-8.772087e-04
7.377920e+01	-8.873704e-04
7.420535e+01	-8.976498e-04
7.463396e+01	-9.080482e-04
7.506504e+01	-9.185671e-04
7.549861e+01	-9.292078e-04
7.593469e+01	-9.399717e-04
7.637328e+01	-9.508604e-04
7.681441e+01	-9.618751e-04
7.725809e+01	-9.730175e-04
7.770433e+01	-9.842889e-04
7.815315e+01	-9.956908e-04
7.860456e+01	-1.007225e-03
7.905857e+01	-1.018892e-03
7.951521e+01	-1.030695e-03
7.997449e+01	-1.042635e-03
8.043642e+01	-1.054712e-03
8.090102e+01	-1.066930e-03
8.136830e+01	-1.079289e-03
8.183828e+01	-1.091791e-03
8.231097e+01	-1.104438e-03
8.278640e+01	-1.117232e-03
8.326457e+01	-1.130174e-03
8.374550e+01	-1.143265e-03
8.422921e+01	-1.156509e-03
8.471572e+01	-1.169905e-03
8.520503e+01	-1.183457e-03
8.569717e+01	-1.197166e-03
8.619215e+01	-1.211034e-03
8.669000e+01	-1.225062e-03
8.719071e+01	-1.239252e-03
8.769432e+01	-1.253607e-03
8.820084e+01	-1.268129e-03
8.871029e+01	-1.282818e-03
8.922267e+01	-1.297678e-03
8.973802e+01	-1.312709e-03
9.025634e+01	-1.327915e-03
9.077766e+01	-1.343297e-03
9.130199e+01	-1.358857e-03
9.182935e+01	-1.374597e-03
9.235975e+01	-1.390520e-03
9.289321e+01	-1.406627e-03
9.342976e+01	-1.422920e-03
9.396941e+01	-1.439402e-03
9.451217e+01	-1.456075e-03
9.505807e+01	-1.472942e-03
9.560712e+01	-1.490003e-03
9.615934e+01	-1.507262e-03
9.671476e+01	-1.524721e-03
9.727338e+01	-1.542382e-03
9.783522e+01	-1.560248e-03
9.840032e+01	-1.578321e-03
9.896867e+01	-1.596603e-03
9.954031e+01	-1.615096e-03
1.001153e+02	-1.633804e-03
1.006935e+02	-1.652728e-03
1.012751e+02	-1.671872e-03
1.018601e+02	-1.691237e-03
1.024484e+02	-1.710827e-03
1.030402e+02	-1.730643e-03
1.036353e+02	-1.750689e-03
1.042339e+02	-1.770967e-03
1.048360e+02	-1.791480e-03
1.054415e+02	-1.812231e-03
1.060505e+02	-1.833221e-03
1.066631e+02	-1.854455e-03
1.072791e+02	-1.875935e-03
1.078988e+02	-1.897663e-03
1.085220e+02	-1.919644e-03
1.091488e+02	-1.941878e-03
1.097793e+02	-1.964370e-03
1.104133e+02	-1.987123e-03
1.110511e+02	-2.010139e-03
1.116925e+02	-2.033421e-03
1.123376e+02	-2.056973e-03
1.129865e+02	-2.080798e-03
1.136391e+02	-2.104899e-03
1.142955e+02	-2.129279e-03
1.149556e+02	-2.153941e-03
1.156196e+02	-2.178889e-03
1.162874e+02	-2.204125e-03
1.169591e+02	-2.229654e-03
1.176347e+02	-2.255479e-03
1.183141e+02	-2.281602e-03
1.189975e+02	-2.308028e-03
1.196848e+02	-2.334760e-03
1.203761e+02	-2.361801e-03
1.210714e+02	-2.389156e-03
1.217707e+02	-2.416827e-03
1.224740e+02	-2.444819e-03
1.231814e+02	-2.473135e-03
1.238929e+02	-2.501778e-03
1.246085e+02	-2.530754e-03
1.253283e+02	-2.560064e-03
1.260522e+02	-2.589715e-03
1.267802e+02	-2.619708e-03
1.275125e+02	-2.650049e-03
1.282490e+02	-2.680741e-03
1.289898e+02	-2.711788e-03
1.297348e+02	-2.743195e-03
1.304842e+02	-2.774966e-03
1.312378e+02	-2.807104e-03
1.319959e+02	-2.839614e-03
1.327583e+02	-2.872501e-03
1.335251e+02	-2.905769e-03
1.342963e+02	-2.939421e-03
1.350720e+02	-2.973464e-03
1.358522e+02	-3.007900e-03
1.366368e+02	-3.042735e-03
1.374260e+02	-3.077973e-03
1.382198e+02	-3.113620e-03
1.390182e+02	-3.149679e-03
1.398211e+02	-3.186155e-03
1.406287e+02	-3.223054e-03
1.414410e+02	-3.260380e-03
1.422579e+02	-3.298138e-03
1.430796e+02	-3.336333e-03
1.439060e+02	-3.374970e-03
1.447372e+02	-3.414055e-03
1.455732e+02	-3.453592e-03
1.464141e+02	-3.493586e-03
1.472597e+02	-3.534044e-03
1.481103e+02	-3.574970e-03
1.489658e+02	-3.616370e-03
1.498262e+02	-3.658248e-03
1.506916e+02	-3.700612e-03
1.515620e+02	-3.743466e-03
1.524374e+02	-3.786816e-03
1.533179e+02	-3.830668e-03
1.542034e+02	-3.875028e-03
1.550941e+02	-3.919900e-03
1.559899e+02	-3.965293e-03
1.568909e+02	-4.011210e-03
1.577971e+02	-4.057660e-03
1.587085e+02	-4.104646e-03
1.596252e+02	-4.152177e-03
1.605472e+02	-4.200258e-03
1.614745e+02	-4.248895e-03
1.624072e+02	-4.298095e-03
1.633453e+02	-4.347865e-03
1.642887e+02	-4.398210e-03
1.652377e+02	-4.449139e-03
1.661921e+02	-4.500656e-03
1.671520e+02	-4.552770e-03
1.681175e+02	-4.605487e-03
1.690885e+02	-4.658814e-03
1.700651e+02	-4.712758e-03
1.710474e+02	-4.767327e-03
1.720354e+02	-4.822527e-03
1.730291e+02	-4.878366e-03
1.740285e+02	-4.934851e-03
1.750337e+02	-4.991989e-03
1.760446e+02	-5.049789e-03
1.770615e+02	-5.108257e-03
1.780842e+02	-5.167403e-03
1.791128e+02	-5.227232e-03
1.801473e+02	-5.287754e-03
1.811878e+02	-5.348976e-03
1.822344e+02	-5.410907e-03
1.832870e+02	-5.473554e-03
1.843456e+02	-5.536926e-03
1.854104e+02	-5.601031e-03
1.864813e+02	-5.665878e-03
1.875584e+02	-5.731475e-03
1.886418e+02	-5.797832e-03
1.897313e+02	-5.864956e-03
1.908272e+02	-5.932856e-03
1.919294e+02	-6.001542e-03
1.930380e+02	-6.071023e-03
1.941530e+02	-6.141307e-03
1.952744e+02	-6.212405e-03
1.964023e+02	-6.284325e-03
1.975367e+02	-6.357077e-03
1.986777e+02	-6.430671e-03
1.998252e+02	-6.505116e-03
2.009794e+02	-6.580422e-03
2.021403e+02	-6.656599e-03
2.033078e+02	-6.733658e-03
2.044821e+02	-6.811607e-03
2.056632e+02	-6.890459e-03
2.068511e+02	-6.970222e-03
2.080459e+02	-7.050908e-03
2.092475e+02	-7.132528e-03
2.104561e+02	-7.215091e-03
2.116717e+02	-7.298609e-03
2.128943e+02	-7.383093e-03
2.141240e+02	-7.468555e-03
2.153608e+02	-7.555004e-03
2.166047e+02	-7.642454e-03
2.178558e+02	-7.730914e-03
2.191141e+02	-7.820398e-03
2.203797e+02	-7.910917e-03
2.216526e+02	-8.002482e-03
2.229329e+02	-8.095106e-03
2.242205e+02	-8.188801e-03
2.255156e+02	-8.283580e-03
2.268182e+02	-8.379454e-03
2.281283e+02	-8.476438e-03
2.294459e+02	-8.574542e-03
2.307712e+02	-8.673781e-03
2.321041e+02	-8.774167e-03
2.334447e+02	-8.875714e-03
2.347931e+02	-8.978434e-03
2.361493e+02	-9.082343e-03
2.375133e+02	-9.187452e-03
2.388851e+02	-9.293777e-03
2.402649e+02	-9.401331e-03
2.416527e+02	-9.510128e-03
2.430484e+02	-9.620183e-03
2.444523e+02	-9.731510e-03
2.458642e+02	-9.844124e-03
2.472843e+02	-9.958039e-03
2.487126e+02	-1.007327e-02
2.501492e+02	-1.018984e-02
2.515940e+02	-1.030775e-02
2.530472e+02	-1.042702e-02
2.545088e+02	-1.054767e-02
2.559789e+02	-1.066972e-02
2.574574e+02	-1.079318e-02
2.589444e+02	-1.091806e-02
2.604401e+02	-1.104439e-02
2.619444e+02	-1.117218e-02
2.634574e+02	-1.130144e-02
2.649791e+02	-1.143220e-02
2.665096e+02	-1.156446e-02
2.680489e+02	-1.169826e-02
2.695972e+02	-1.183360e-02
2.711544e+02	-1.197051e-02
2.727205e+02	-1.210900e-02
2.742958e+02	-1.224908e-02
2.758801e+02	-1.239079e-02
2.774736e+02	-1.253413e-02
2.790762e+02	-1.267913e-02
2.806882e+02	-1.282580e-02
2.823094e+02	-1.297417e-02
2.839400e+02	-1.312425e-02
2.855800e+02	-1.327607e-02
2.872295e+02	-1.342963e-02
2.888886e+02	-1.358497e-02
2.905572e+02	-1.374211e-02
2.922354e+02	-1.390106e-02
2.939234e+02	-1.406185e-02
2.956211e+02	-1.422449e-02
2.973286e+02	-1.438901e-02
2.990459e+02	-1.455543e-02
3.007732e+02	-1.472377e-02
3.025104e+02	-1.489406e-02
3.042577e+02	-1.506631e-02
3.060151e+02	-1.524055e-02
3.077826e+02	-1.541680e-02
3.095604e+02	-1.559508e-02
3.113484e+02	-1.577543e-02
3.131467e+02	-1.595785e-02
3.149554e+02	-1.614238e-02
3.167746e+02	-1.632904e-02
3.186043e+02	-1.651786e-02
3.204445e+02	-1.670885e-02
3.222954e+02	-1.690205e-02
3.241570e+02	-1.709748e-02
3.260293e+02	-1.729516e-02
3.279124e+02	-1.749513e-02
3.298064e+02	-1.769740e-02
3.317114e+02	-1.790200e-02
3.336273e+02	-1.810897e-02
3.355544e+02	-1.831832e-02
3.374925e+02	-1.853009e-02
3.394418e+02	-1.874430e-02
3.414024e+02	-1.896098e-02
3.433744e+02	-1.918016e-02
3.453577e+02	-1.940187e-02
3.473525e+02	-1.962614e-02
3.493588e+02	-1.985299e-02
3.513766e+02	-2.008246e-02
3.534062e+02	-2.031457e-02
3.554474e+02	-2.054936e-02
3.575005e+02	-2.078686e-02
3.595654e+02	-2.102710e-02
3.616422e+02	-2.127010e-02
3.637311e+02	-2.151591e-02
3.658320e+02	-2.176455e-02
3.679450e+02	-2.201605e-02
3.700702e+02	-2.227046e-02
3.722077e+02	-2.252780e-02
3.743576e+02	-2.278810e-02
3.765199e+02	-2.305140e-02
3.786946e+02	-2.331774e-02
3.808820e+02	-2.358715e-02
3.830819e+02	-2.385966e-02
3.852946e+02	-2.413531e-02
3.875200e+02	-2.441413e-02
3.897583e+02	-2.469617e-02
3.920096e+02	-2.498145e-02
3.942738e+02	-2.527003e-02
3.965511e+02	-2.556192e-02
3.988416e+02	-2.585718e-02
4.011452e+02	-2.615583e-02
4.034622e+02	-2.645793e-02
4.057926e+02	-2.676351e-02
4.081365e+02	-2.707260e-02
4.104938e+02	-2.738525e-02
4.128648e+02	-2.770150e-02
4.152495e+02	-2.802139e-02
4.176480e+02	-2.834496e-02
4.200603e+02	-2.867226e-02
4.224866e+02	-2.900332e-02
4.249268e+02	-2.933819e-02
4.273812e+02	-2.967692e-02
4.298497e+02	-3.001954e-02
4.323325e+02	-3.036610e-02
4.348297e+02	-3.071666e-02
4.373412e+02	-3.107124e-02
4.398673e+02	-3.142990e-02
4.424079e+02	-3.179269e-02
4.449633e+02	-3.215965e-02
4.475334e+02	-3.253082e-02
4.501183e+02	-3.290627e-02
4.527182e+02	-3.328603e-02
4.553330e+02	-3.367016e-02
4.579630e+02	-3.405870e-02
4.606082e+02	-3.445171e-02
4.632687e+02	-3.484924e-02
4.659445e+02	-3.525133e-02
4.686358e+02	-3.565805e-02
4.713426e+02	-3.606944e-02
4.740650e+02	-3.648555e-02
4.768032e+02	-3.690644e-02
4.795572e+02	-3.733217e-02
4.823271e+02	-3.776279e-02
4.851130e+02	-3.819835e-02
4.879150e+02	-3.863891e-02
4.907332e+02	-3.908454e-02
4.935676e+02	-3.953527e-02
4.964185e+02	-3.999119e-02
4.992858e+02	-4.045233e-02
5.021696e+02	-4.091877e-02
5.050701e+02	-4.139056e-02
5.079874e+02	-4.186776e-02
5.109215e+02	-4.235044e-02
5.138726e+02	-4.283866e-02
5.168407e+02	-4.333247e-02
5.198259e+02	-4.383195e-02
5.228284e+02	-4.433716e-02
5.258482e+02	-4.484815e-02
5.288855e+02	-4.536501e-02
5.319403e+02	-4.588780e-02
5.350128e+02	-4.641657e-02
5.381030e+02	-4.695141e-02
5.412111e+02	-4.749237e-02
5.443371e+02	-4.803953e-02
5.474812e+02	-4.859296e-02
5.506434e+02	-4.915273e-02
5.538239e+02	-4.971891e-02
5.570228e+02	-5.029158e-02
5.602401e+02	-5.087080e-02
5.634760e+02	-5.145665e-02
5.667306e+02	-5.204921e-02
5.700040e+02	-5.264856e-02
5.732964e+02	-5.325476e-02
5.766077e+02	-5.386790e-02
5.799382e+02	-5.448805e-02
5.832879e+02	-5.511529e-02
5.866569e+02	-5.574971e-02
5.900454e+02	-5.639139e-02
5.934535e+02	-5.704040e-02
5.968813e+02	-5.769683e-02
6.003288e+02	-5.836077e-02
6.037963e+02	-5.903229e-02
6.072838e+02	-5.971149e-02
6.107914e+02	-6.039845e-02
6.143194e+02	-6.109325e-02
6.178676e+02	-6.179599e-02
6.214364e+02	-6.250676e-02
6.250258e+02	-6.322564e-02
6.286359e+02	-6.395273e-02
6.322669e+02	-6.468811e-02
6.359189e+02	-6.543189e-02
6.395919e+02	-6.618416e-02
6.432862e+02	-6.694500e-02
6.470017e+02	-6.771453e-02
6.507388e+02	-6.849283e-02
6.544974e+02	-6.928000e-02
6.582778e+02	-7.007615e-02
6.620800e+02	-7.088137e-02
6.659041e+02	-7.169577e-02
6.697504e+02	-7.251945e-02
6.736188e+02	-7.335251e-02
6.775096e+02	-7.419506e-02
6.814229e+02	-7.504720e-02
6.853587e+02	-7.590904e-02
6.893173e+02	-7.678069e-02
6.932988e+02	-7.766226e-02
6.973033e+02	-7.855387e-02
7.013309e+02	-7.945561e-02
