Frequency(Hz)	Magnitude(dB)
1.000000e+01	-1.616545e-05
1.005776e+01	-1.635273e-05
1.011585e+01	-1.654218e-05
1.017428e+01	-1.673383e-05
1.023305e+01	-1.692769e-05
1.029215e+01	-1.712380e-05
1.035160e+01	-1.732219e-05
1.041139e+01	-1.752287e-05
1.047153e+01	-1.772588e-05
1.053201e+01	-1.793123e-05
1.059284e+01	-1.813897e-05
1.065403e+01	-1.834912e-05
1.071556e+01	-1.856170e-05
1.077746e+01	-1.877674e-05
1.083971e+01	-1.899427e-05
1.090232e+01	-1.921432e-05
1.096529e+01	-1.943693e-05
1.102862e+01	-1.966211e-05
1.109232e+01	-1.988990e-05
1.115639e+01	-2.012033e-05
1.122083e+01	-2.035343e-05
1.128564e+01	-2.058923e-05
1.135083e+01	-2.082776e-05
1.141639e+01	-2.106905e-05
1.148233e+01	-2.131314e-05
1.154865e+01	-2.156006e-05
1.161536e+01	-2.180984e-05
1.168245e+01	-2.206251e-05
1.174992e+01	-2.231811e-05
1.181779e+01	-2.257667e-05
1.188605e+01	-2.283823e-05
1.195470e+01	-2.310282e-05
1.202375e+01	-2.337047e-05
1.209320e+01	-2.364122e-05
1.216305e+01	-2.391511e-05
1.223330e+01	-2.419217e-05
1.230396e+01	-2.447245e-05
1.237503e+01	-2.475597e-05
1.244651e+01	-2.504277e-05
1.251840e+01	-2.533290e-05
1.259070e+01	-2.562638e-05
1.266343e+01	-2.592327e-05
1.273657e+01	-2.622360e-05
1.281014e+01	-2.652741e-05
1.288413e+01	-2.683473e-05
1.295855e+01	-2.714562e-05
1.303339e+01	-2.746011e-05
1.310867e+01	-2.777824e-05
1.318439e+01	-2.810006e-05
1.326054e+01	-2.842560e-05
1.333713e+01	-2.875492e-05
1.341417e+01	-2.908805e-05
1.349165e+01	-2.942505e-05
1.356958e+01	-2.976594e-05
1.364795e+01	-3.011079e-05
1.372678e+01	-3.045963e-05
1.380607e+01	-3.081251e-05
1.388581e+01	-3.116948e-05
1.396602e+01	-3.153059e-05
1.404668e+01	-3.189588e-05
1.412782e+01	-3.226540e-05
1.420942e+01	-3.263920e-05
1.429149e+01	-3.301733e-05
1.437404e+01	-3.339985e-05
1.445706e+01	-3.378679e-05
1.454057e+01	-3.417822e-05
1.462455e+01	-3.457418e-05
1.470902e+01	-3.497473e-05
1.479398e+01	-3.537992e-05
1.487943e+01	-3.578981e-05
1.496537e+01	-3.620444e-05
1.505181e+01	-3.662388e-05
1.513875e+01	-3.704817e-05
1.522619e+01	-3.747739e-05
1.531414e+01	-3.791157e-05
1.540259e+01	-3.835078e-05
1.549156e+01	-3.879509e-05
1.558103e+01	-3.924454e-05
1.567103e+01	-3.969919e-05
1.576155e+01	-4.015912e-05
1.585258e+01	-4.062437e-05
1.594415e+01	-4.109501e-05
1.603624e+01	-4.157111e-05
1.612886e+01	-4.205272e-05
1.622202e+01	-4.253991e-05
1.631572e+01	-4.303274e-05
1.640996e+01	-4.353129e-05
1.650474e+01	-4.403561e-05
1.660008e+01	-4.454577e-05
1.669596e+01	-4.506184e-05
1.679239e+01	-4.558389e-05
1.688938e+01	-4.611199e-05
1.698694e+01	-4.664621e-05
1.708505e+01	-4.718661e-05
1.718373e+01	-4.773328e-05
1.728299e+01	-4.828628e-05
1.738281e+01	-4.884569e-05
1.748322e+01	-4.941158e-05
1.758420e+01	-4.998402e-05
1.768576e+01	-5.056310e-05
1.778792e+01	-5.114888e-05
1.789066e+01	-5.174145e-05
1.799399e+01	-5.234089e-05
1.809793e+01	-5.294727e-05
1.820246e+01	-5.356067e-05
1.830760e+01	-5.418118e-05
1.841334e+01	-5.480888e-05
1.851969e+01	-5.544386e-05
1.862666e+01	-5.608618e-05
1.873425e+01	-5.673595e-05
1.884246e+01	-5.739325e-05
1.895129e+01	-5.805816e-05
1.906075e+01	-5.873078e-05
1.917085e+01	-5.941119e-05
1.928158e+01	-6.009948e-05
1.939295e+01	-6.079574e-05
1.950496e+01	-6.150007e-05
1.961762e+01	-6.221256e-05
1.973093e+01	-6.293331e-05
1.984490e+01	-6.366240e-05
1.995952e+01	-6.439994e-05
2.007480e+01	-6.514603e-05
2.019076e+01	-6.590076e-05
2.030738e+01	-6.666423e-05
2.042467e+01	-6.743655e-05
2.054264e+01	-6.821781e-05
2.066130e+01	-6.900813e-05
2.078064e+01	-6.980760e-05
2.090066e+01	-7.061634e-05
2.102139e+01	-7.143444e-05
2.114280e+01	-7.226202e-05
2.126492e+01	-7.309919e-05
2.138775e+01	-7.394606e-05
2.151128e+01	-7.480274e-05
2.163553e+01	-7.566934e-05
2.176050e+01	-7.654598e-05
2.188619e+01	-7.743278e-05
2.201260e+01	-7.832985e-05
2.213974e+01	-7.923732e-05
2.226762e+01	-8.015530e-05
2.239624e+01	-8.108391e-05
2.252560e+01	-8.202328e-05
2.265571e+01	-8.297353e-05
2.278656e+01	-8.393480e-05
2.291818e+01	-8.490719e-05
2.305055e+01	-8.589086e-05
2.318369e+01	-8.688592e-05
2.331760e+01	-8.789250e-05
2.345228e+01	-8.891075e-05
2.358774e+01	-8.994080e-05
2.372398e+01	-9.098278e-05
2.386101e+01	-9.203683e-05
2.399883e+01	-9.310309e-05
2.413745e+01	-9.418170e-05
2.427686e+01	-9.527281e-05
2.441709e+01	-9.637656e-05
2.455812e+01	-9.749310e-05
2.469997e+01	-9.862257e-05
2.484263e+01	-9.976513e-05
2.498612e+01	-1.009209e-04
2.513044e+01	-1.020901e-04
2.527559e+01	-1.032728e-04
2.542158e+01	-1.044693e-04
2.556842e+01	-1.056796e-04
2.571610e+01	-1.069039e-04
2.586463e+01	-1.081424e-04
2.601403e+01	-1.093952e-04
2.616428e+01	-1.106626e-04
2.631541e+01	-1.119446e-04
2.646740e+01	-1.132415e-04
2.662028e+01	-1.145534e-04
2.677404e+01	-1.158805e-04
2.692868e+01	-1.172230e-04
2.708422e+01	-1.185811e-04
2.724066e+01	-1.199548e-04
2.739800e+01	-1.213445e-04
2.755625e+01	-1.227503e-04
2.771541e+01	-1.241724e-04
2.787550e+01	-1.256109e-04
2.803650e+01	-1.270662e-04
2.819844e+01	-1.285382e-04
2.836131e+01	-1.300274e-04
2.852513e+01	-1.315337e-04
2.868989e+01	-1.330576e-04
2.885560e+01	-1.345991e-04
2.902227e+01	-1.361584e-04
2.918990e+01	-1.377358e-04
2.935850e+01	-1.393315e-04
2.952807e+01	-1.409457e-04
2.969863e+01	-1.425785e-04
2.987016e+01	-1.442303e-04
3.004269e+01	-1.459012e-04
3.021622e+01	-1.475915e-04
3.039075e+01	-1.493014e-04
3.056628e+01	-1.510310e-04
3.074283e+01	-1.527807e-04
3.092040e+01	-1.545507e-04
3.109900e+01	-1.563412e-04
3.127862e+01	-1.581524e-04
3.145929e+01	-1.599846e-04
3.164099e+01	-1.618381e-04
3.182375e+01	-1.637130e-04
3.200756e+01	-1.656096e-04
3.219244e+01	-1.675282e-04
3.237838e+01	-1.694690e-04
3.256540e+01	-1.714323e-04
3.275349e+01	-1.734184e-04
3.294268e+01	-1.754274e-04
3.313295e+01	-1.774598e-04
3.332433e+01	-1.795156e-04
3.351681e+01	-1.815953e-04
3.371040e+01	-1.836991e-04
3.390511e+01	-1.858273e-04
3.410094e+01	-1.879801e-04
3.429791e+01	-1.901579e-04
3.449601e+01	-1.923608e-04
3.469526e+01	-1.945893e-04
3.489566e+01	-1.968437e-04
3.509721e+01	-1.991241e-04
3.529993e+01	-2.014310e-04
3.550382e+01	-2.037645e-04
3.570889e+01	-2.061252e-04
3.591515e+01	-2.085131e-04
3.612259e+01	-2.109287e-04
3.633123e+01	-2.133723e-04
3.654108e+01	-2.158443e-04
3.675214e+01	-2.183448e-04
3.696442e+01	-2.208743e-04
3.717792e+01	-2.234332e-04
3.739266e+01	-2.260216e-04
3.760864e+01	-2.286401e-04
3.782587e+01	-2.312889e-04
3.804435e+01	-2.339683e-04
3.826409e+01	-2.366789e-04
3.848510e+01	-2.394208e-04
3.870739e+01	-2.421945e-04
3.893096e+01	-2.450003e-04
3.915583e+01	-2.478386e-04
3.938199e+01	-2.507098e-04
3.960946e+01	-2.536142e-04
3.983824e+01	-2.565523e-04
4.006834e+01	-2.595245e-04
4.029978e+01	-2.625311e-04
4.053255e+01	-2.655725e-04
4.076666e+01	-2.686491e-04
4.100213e+01	-2.717614e-04
4.123896e+01	-2.749097e-04
4.147715e+01	-2.780945e-04
4.171672e+01	-2.813162e-04
4.195767e+01	-2.845752e-04
4.220002e+01	-2.878720e-04
4.244377e+01	-2.912070e-04
4.268892e+01	-2.945806e-04
4.293549e+01	-2.979932e-04
4.318348e+01	-3.014455e-04
4.343291e+01	-3.049377e-04
4.368377e+01	-3.084703e-04
4.393609e+01	-3.120439e-04
4.418986e+01	-3.156589e-04
4.444510e+01	-3.193158e-04
4.470182e+01	-3.230150e-04
4.496001e+01	-3.267571e-04
4.521970e+01	-3.305425e-04
4.548089e+01	-3.343718e-04
4.574358e+01	-3.382454e-04
4.600779e+01	-3.421639e-04
4.627353e+01	-3.461278e-04
4.654081e+01	-3.501376e-04
4.680963e+01	-3.541939e-04
4.708000e+01	-3.582972e-04
4.735193e+01	-3.624480e-04
4.762543e+01	-3.666469e-04
4.790051e+01	-3.708944e-04
4.817719e+01	-3.751911e-04
4.845545e+01	-3.795376e-04
4.873533e+01	-3.839345e-04
4.901682e+01	-3.883823e-04
4.929994e+01	-3.928816e-04
4.958470e+01	-3.974330e-04
4.987110e+01	-4.020372e-04
5.015915e+01	-4.066947e-04
5.044887e+01	-4.114061e-04
5.074026e+01	-4.161721e-04
5.103333e+01	-4.209934e-04
5.132810e+01	-4.258705e-04
5.162457e+01	-4.308040e-04
5.192275e+01	-4.357948e-04
5.222265e+01	-4.408433e-04
5.252429e+01	-4.459503e-04
5.282767e+01	-4.511165e-04
5.313280e+01	-4.563426e-04
5.343969e+01	-4.616291e-04
5.374836e+01	-4.669770e-04
5.405880e+01	-4.723867e-04
5.437105e+01	-4.778592e-04
5.468509e+01	-4.833950e-04
5.500095e+01	-4.889949e-04
5.531863e+01	-4.946597e-04
5.563815e+01	-5.003902e-04
5.595951e+01	-5.061870e-04
5.628273e+01	-5.120510e-04
5.660782e+01	-5.179829e-04
5.693479e+01	-5.239835e-04
5.726364e+01	-5.300536e-04
5.759439e+01	-5.361940e-04
5.792705e+01	-5.424056e-04
5.826164e+01	-5.486891e-04
5.859815e+01	-5.550454e-04
5.893662e+01	-5.614754e-04
5.927703e+01	-5.679798e-04
5.961941e+01	-5.745596e-04
5.996377e+01	-5.812156e-04
6.031012e+01	-5.879486e-04
6.065847e+01	-5.947597e-04
6.100883e+01	-6.016497e-04
6.136121e+01	-6.086195e-04
6.171563e+01	-6.156700e-04
6.207210e+01	-6.228022e-04
6.243063e+01	-6.300170e-04
6.279122e+01	-6.373154e-04
6.315390e+01	-6.446983e-04
6.351868e+01	-6.521668e-04
6.388556e+01	-6.597217e-04
6.425456e+01	-6.673642e-04
6.462569e+01	-6.750952e-04
6.499897e+01	-6.829158e-04
6.537440e+01	-6.908269e-04
6.575200e+01	-6.988297e-04
6.613178e+01	-7.069251e-04
6.651375e+01	-7.151144e-04
6.689793e+01	-7.233985e-04
6.728433e+01	-7.317786e-04
6.767297e+01	-7.402557e-04
6.806384e+01	-7.488310e-04
6.845698e+01	-7.575057e-04
6.885238e+01	-7.662808e-04
6.925007e+01	-7.751576e-04
6.965005e+01	-7.841372e-04
7.005235e+01	-7.932208e-04
7.045697e+01	-8.024096e-04
7.086393e+01	-8.117049e-04
7.127323e+01	-8.211078e-04
7.168490e+01	-8.306197e-04
7.209895e+01	-8.402417e-04
7.251539e+01	-8.499752e-04
7.293424e+01	-8.598214e-04
7.335551e+01	-8.697817e-04
7.377920e+01	-8.798573e-04
7.420535e+01	-8.900497e-04
7.463396e+01	-9.003601e-04
7.506504e+01	-9.107899e-04
7.549861e+01	-9.213405e-04
7.593469e+01	-9.320134e-04
7.637328e+01	-9.428098e-04
7.681441e+01	-9.537313e-04
7.725809e+01	-9.647793e-04
7.770433e+01	-9.759553e-04
7.815315e+01	-9.872607e-04
7.860456e+01	-9.986971e-04
7.905857e+01	-1.010266e-03
7.951521e+01	-1.021969e-03
7.997449e+01	-1.033807e-03
8.043642e+01	-1.045783e-03
8.090102e+01	-1.057897e-03
8.136830e+01	-1.070151e-03
8.183828e+01	-1.082548e-03
8.231097e+01	-1.095088e-03
8.278640e+01	-1.107773e-03
8.326457e+01	-1.120605e-03
8.374550e+01	-1.133586e-03
8.422921e+01	-1.146717e-03
8.471572e+01	-1.160001e-03
8.520503e+01	-1.173438e-03
8.569717e+01	-1.187030e-03
8.619215e+01	-1.200781e-03
8.669000e+01	-1.214690e-03
8.719071e+01	-1.228760e-03
8.769432e+01	-1.242994e-03
8.820084e+01	-1.257392e-03
8.871029e+01	-1.271957e-03
8.922267e+01	-1.286691e-03
8.973802e+01	-1.301596e-03
9.025634e+01	-1.316673e-03
9.077766e+01	-1.331924e-03
9.130199e+01	-1.347353e-03
9.182935e+01	-1.362960e-03
9.235975e+01	-1.378747e-03
9.289321e+01	-1.394718e-03
9.342976e+01	-1.410874e-03
9.396941e+01	-1.427216e-03
9.451217e+01	-1.443748e-03
9.505807e+01	-1.460472e-03
9.560712e+01	-1.477389e-03
9.615934e+01	-1.494502e-03
9.671476e+01	-1.511813e-03
9.727338e+01	-1.529324e-03
9.783522e+01	-1.547039e-03
9.840032e+01	-1.564959e-03
9.896867e+01	-1.583086e-03
9.954031e+01	-1.601423e-03
1.001153e+02	-1.619972e-03
1.006935e+02	-1.638737e-03
1.012751e+02	-1.657718e-03
1.018601e+02	-1.676920e-03
1.024484e+02	-1.696343e-03
1.030402e+02	-1.715992e-03
1.036353e+02	-1.735868e-03
1.042339e+02	-1.755975e-03
1.048360e+02	-1.776314e-03
1.054415e+02	-1.796889e-03
1.060505e+02	-1.817702e-03
1.066631e+02	-1.838756e-03
1.072791e+02	-1.860054e-03
1.078988e+02	-1.881598e-03
1.085220e+02	-1.903392e-03
1.091488e+02	-1.925439e-03
1.097793e+02	-1.947741e-03
1.104133e+02	-1.970301e-03
1.110511e+02	-1.993122e-03
1.116925e+02	-2.016207e-03
1.123376e+02	-2.039560e-03
1.129865e+02	-2.063183e-03
1.136391e+02	-2.087080e-03
1.142955e+02	-2.111254e-03
1.149556e+02	-2.135707e-03
1.156196e+02	-2.160444e-03
1.162874e+02	-2.185467e-03
1.169591e+02	-2.210779e-03
1.176347e+02	-2.236385e-03
1.183141e+02	-2.262288e-03
1.189975e+02	-2.288490e-03
1.196848e+02	-2.314996e-03
1.203761e+02	-2.341808e-03
1.210714e+02	-2.368931e-03
1.217707e+02	-2.396368e-03
1.224740e+02	-2.424123e-03
1.231814e+02	-2.452199e-03
1.238929e+02	-2.480601e-03
1.246085e+02	-2.509331e-03
1.253283e+02	-2.538393e-03
1.260522e+02	-2.567793e-03
1.267802e+02	-2.597532e-03
1.275125e+02	-2.627616e-03
1.282490e+02	-2.658049e-03
1.289898e+02	-2.688833e-03
1.297348e+02	-2.719974e-03
1.304842e+02	-2.751476e-03
1.312378e+02	-2.783342e-03
1.319959e+02	-2.815578e-03
1.327583e+02	-2.848186e-03
1.335251e+02	-2.881172e-03
1.342963e+02	-2.914540e-03
1.350720e+02	-2.948294e-03
1.358522e+02	-2.982439e-03
1.366368e+02	-3.016980e-03
1.374260e+02	-3.051920e-03
1.382198e+02	-3.087265e-03
1.390182e+02	-3.123018e-03
1.398211e+02	-3.159186e-03
1.406287e+02	-3.195773e-03
1.414410e+02	-3.232783e-03
1.422579e+02	-3.270221e-03
1.430796e+02	-3.308093e-03
1.439060e+02	-3.346404e-03
1.447372e+02	-3.385157e-03
1.455732e+02	-3.424360e-03
1.464141e+02	-3.464016e-03
1.472597e+02	-3.504131e-03
1.481103e+02	-3.544711e-03
1.489658e+02	-3.585761e-03
1.498262e+02	-3.627285e-03
1.506916e+02	-3.669290e-03
1.515620e+02	-3.711782e-03
1.524374e+02	-3.754765e-03
1.533179e+02	-3.798246e-03
1.542034e+02	-3.842230e-03
1.550941e+02	-3.886724e-03
1.559899e+02	-3.931732e-03
1.568909e+02	-3.977261e-03
1.577971e+02	-4.023317e-03
1.587085e+02	-4.069907e-03
1.596252e+02	-4.117035e-03
1.605472e+02	-4.164709e-03
1.614745e+02	-4.212935e-03
1.624072e+02	-4.261719e-03
1.633453e+02	-4.311067e-03
1.642887e+02	-4.360987e-03
1.652377e+02	-4.411485e-03
1.661921e+02	-4.462567e-03
1.671520e+02	-4.514240e-03
1.681175e+02	-4.566511e-03
1.690885e+02	-4.619387e-03
1.700651e+02	-4.672875e-03
1.710474e+02	-4.726982e-03
1.720354e+02	-4.781715e-03
1.730291e+02	-4.837081e-03
1.740285e+02	-4.893088e-03
1.750337e+02	-4.949744e-03
1.760446e+02	-5.007055e-03
1.770615e+02	-5.065029e-03
1.780842e+02	-5.123674e-03
1.791128e+02	-5.182997e-03
1.801473e+02	-5.243007e-03
1.811878e+02	-5.303712e-03
1.822344e+02	-5.365118e-03
1.832870e+02	-5.427236e-03
1.843456e+02	-5.490072e-03
1.854104e+02	-5.553635e-03
1.864813e+02	-5.617934e-03
1.875584e+02	-5.682976e-03
1.886418e+02	-5.748771e-03
1.897313e+02	-5.815327e-03
1.908272e+02	-5.882654e-03
1.919294e+02	-5.950759e-03
1.930380e+02	-6.019652e-03
1.941530e+02	-6.089342e-03
1.952744e+02	-6.159839e-03
1.964023e+02	-6.231151e-03
1.975367e+02	-6.303288e-03
1.986777e+02	-6.376259e-03
1.998252e+02	-6.450075e-03
2.009794e+02	-6.524744e-03
2.021403e+02	-6.600277e-03
2.033078e+02	-6.676684e-03
2.044821e+02	-6.753975e-03
2.056632e+02	-6.832160e-03
2.068511e+02	-6.911249e-03
2.080459e+02	-6.991253e-03
2.092475e+02	-7.072182e-03
2.104561e+02	-7.154048e-03
2.116717e+02	-7.236860e-03
2.128943e+02	-7.320630e-03
2.141240e+02	-7.405369e-03
2.153608e+02	-7.491088e-03
2.166047e+02	-7.577798e-03
2.178558e+02	-7.665511e-03
2.191141e+02	-7.754238e-03
2.203797e+02	-7.843992e-03
2.216526e+02	-7.934783e-03
2.229329e+02	-8.026625e-03
2.242205e+02	-8.119528e-03
2.255156e+02	-8.213505e-03
2.268182e+02	-8.308570e-03
2.281283e+02	-8.404733e-03
2.294459e+02	-8.502009e-03
2.307712e+02	-8.600409e-03
2.321041e+02	-8.699946e-03
2.334447e+02	-8.800635e-03
2.347931e+02	-8.902488e-03
2.361493e+02	-9.005518e-03
2.375133e+02	-9.109740e-03
2.388851e+02	-9.215166e-03
2.402649e+02	-9.321811e-03
2.416527e+02	-9.429689e-03
2.430484e+02	-9.538814e-03
2.444523e+02	-9.649200e-03
2.458642e+02	-9.760863e-03
2.472843e+02	-9.873816e-03
2.487126e+02	-9.988075e-03
2.501492e+02	-1.010365e-02
2.515940e+02	-1.022057e-02
2.530472e+02	-1.033884e-02
2.545088e+02	-1.045847e-02
2.559789e+02	-1.057948e-02
2.574574e+02	-1.070190e-02
2.589444e+02	-1.082573e-02
2.604401e+02	-1.095099e-02
2.619444e+02	-1.107770e-02
2.634574e+02	-1.120587e-02
2.649791e+02	-1.133552e-02
2.665096e+02	-1.146667e-02
2.680489e+02	-1.159934e-02
2.695972e+02	-1.173354e-02
2.711544e+02	-1.186929e-02
2.727205e+02	-1.200660e-02
2.742958e+02	-1.214551e-02
2.758801e+02	-1.228602e-02
2.774736e+02	-1.242815e-02
2.790762e+02	-1.257192e-02
2.806882e+02	-1.271736e-02
2.823094e+02	-1.286447e-02
2.839400e+02	-1.301329e-02
2.855800e+02	-1.316382e-02
2.872295e+02	-1.331609e-02
2.888886e+02	-1.347012e-02
2.905572e+02	-1.362593e-02
2.922354e+02	-1.378354e-02
2.939234e+02	-1.394297e-02
2.956211e+02	-1.410424e-02
2.973286e+02	-1.426737e-02
2.990459e+02	-1.443239e-02
3.007732e+02	-1.459931e-02
3.025104e+02	-1.476816e-02
3.042577e+02	-1.493895e-02
3.060151e+02	-1.511172e-02
3.077826e+02	-1.528649e-02
3.095604e+02	-1.546327e-02
3.113484e+02	-1.564209e-02
3.131467e+02	-1.582298e-02
3.149554e+02	-1.600595e-02
3.167746e+02	-1.619104e-02
3.186043e+02	-1.637826e-02
3.204445e+02	-1.656764e-02
3.222954e+02	-1.675921e-02
3.241570e+02	-1.695299e-02
3.260293e+02	-1.714901e-02
3.279124e+02	-1.734728e-02
3.298064e+02	-1.754785e-02
3.317114e+02	-1.775073e-02
3.336273e+02	-1.795595e-02
3.355544e+02	-1.816354e-02
3.374925e+02	-1.837352e-02
3.394418e+02	-1.858592e-02
3.414024e+02	-1.880078e-02
3.433744e+02	-1.901811e-02
3.453577e+02	-1.923795e-02
3.473525e+02	-1.946033e-02
3.493588e+02	-1.968527e-02
3.513766e+02	-1.991280e-02
3.534062e+02	-2.014296e-02
3.554474e+02	-2.037577e-02
3.575005e+02	-2.061127e-02
3.595654e+02	-2.084948e-02
3.616422e+02	-2.109044e-02
3.637311e+02	-2.133417e-02
3.658320e+02	-2.158072e-02
3.679450e+02	-2.183011e-02
3.700702e+02	-2.208237e-02
3.722077e+02	-2.233754e-02
3.743576e+02	-2.259565e-02
3.765199e+02	-2.285673e-02
3.786946e+02	-2.312083e-02
3.808820e+02	-2.338796e-02
3.830819e+02	-2.365818e-02
3.852946e+02	-2.393151e-02
3.875200e+02	-2.420798e-02
3.897583e+02	-2.448765e-02
3.920096e+02	-2.477053e-02
3.942738e+02	-2.505667e-02
3.965511e+02	-2.534611e-02
3.988416e+02	-2.563888e-02
4.011452e+02	-2.593503e-02
4.034622e+02	-2.623458e-02
4.057926e+02	-2.653758e-02
4.081365e+02	-2.684407e-02
4.104938e+02	-2.715409e-02
4.128648e+02	-2.746768e-02
4.152495e+02	-2.778488e-02
4.176480e+02	-2.810573e-02
4.200603e+02	-2.843027e-02
4.224866e+02	-2.875855e-02
4.249268e+02	-2.909061e-02
4.273812e+02	-2.942648e-02
4.298497e+02	-2.976623e-02
4.323325e+02	-3.010988e-02
4.348297e+02	-3.045748e-02
4.373412e+02	-3.080908e-02
4.398673e+02	-3.116473e-02
4.424079e+02	-3.152447e-02
4.449633e+02	-3.188834e-02
4.475334e+02	-3.225640e-02
4.501183e+02	-3.262869e-02
4.527182e+02	-3.300526e-02
4.553330e+02	-3.338616e-02
4.579630e+02	-3.377144e-02
4.606082e+02	-3.416115e-02
4.632687e+02	-3.455533e-02
4.659445e+02	-3.495405e-02
4.686358e+02	-3.535735e-02
4.713426e+02	-3.576528e-02
4.740650e+02	-3.617790e-02
4.768032e+02	-3.659526e-02
4.795572e+02	-3.701741e-02
4.823271e+02	-3.744442e-02
4.851130e+02	-3.787632e-02
4.879150e+02	-3.831319e-02
4.907332e+02	-3.875507e-02
4.935676e+02	-3.920203e-02
4.964185e+02	-3.965411e-02
4.992858e+02	-4.011139e-02
5.021696e+02	-4.057392e-02
5.050701e+02	-4.104175e-02
5.079874e+02	-4.151495e-02
5.109215e+02	-4.199358e-02
5.138726e+02	-4.247770e-02
5.168407e+02	-4.296738e-02
5.198259e+02	-4.346267e-02
5.228284e+02	-4.396364e-02
5.258482e+02	-4.447036e-02
5.288855e+02	-4.498288e-02
5.319403e+02	-4.550129e-02
5.350128e+02	-4.602563e-02
5.381030e+02	-4.655599e-02
5.412111e+02	-4.709242e-02
5.443371e+02	-4.763500e-02
5.474812e+02	-4.818379e-02
5.506434e+02	-4.873888e-02
5.538239e+02	-4.930032e-02
5.570228e+02	-4.986819e-02
5.602401e+02	-5.044256e-02
5.634760e+02	-5.102352e-02
5.667306e+02	-5.161112e-02
5.700040e+02	-5.220545e-02
5.732964e+02	-5.280658e-02
5.766077e+02	-5.341459e-02
5.799382e+02	-5.402955e-02
5.832879e+02	-5.465155e-02
5.866569e+02	-5.528067e-02
5.900454e+02	-5.591698e-02
5.934535e+02	-5.656057e-02
5.968813e+02	-5.721152e-02
6.003288e+02	-5.786991e-02
6.037963e+02	-5.853582e-02
6.072838e+02	-5.920934e-02
6.107914e+02	-5.989056e-02
6.143194e+02	-6.057957e-02
6.178676e+02	-6.127644e-02
6.214364e+02	-6.198127e-02
6.250258e+02	-6.269415e-02
6.286359e+02	-6.341518e-02
6.322669e+02	-6.414443e-02
6.359189e+02	-6.488200e-02
6.395919e+02	-6.562799e-02
6.432862e+02	-6.638249e-02
6.470017e+02	-6.714560e-02
6.507388e+02	-6.791742e-02
6.544974e+02	-6.869803e-02
6.582778e+02	-6.948754e-02
6.620800e+02	-7.028606e-02
6.659041e+02	-7.109367e-02
6.697504e+02	-7.191049e-02
6.736188e+02	-7.273661e-02
6.775096e+02	-7.357215e-02
6.814229e+02	-7.441720e-02
6.853587e+02	-7.527187e-02
6.893173e+02	-7.613627e-02
6.932988e+02	-7.701051e-02
6.973033e+02	-7.789469e-02
7.013309e+02	-7.878894e-02
