Frequency(Hz)	Magnitude(dB)
1.000000e+01	-1.705455e-05
1.005776e+01	-1.725213e-05
1.011585e+01	-1.745200e-05
1.017428e+01	-1.765418e-05
1.023305e+01	-1.785871e-05
1.029215e+01	-1.806561e-05
1.035160e+01	-1.827490e-05
1.041139e+01	-1.848662e-05
1.047153e+01	-1.870080e-05
1.053201e+01	-1.891745e-05
1.059284e+01	-1.913661e-05
1.065403e+01	-1.935832e-05
1.071556e+01	-1.958259e-05
1.077746e+01	-1.980946e-05
1.083971e+01	-2.003895e-05
1.090232e+01	-2.027111e-05
1.096529e+01	-2.050595e-05
1.102862e+01	-2.074352e-05
1.109232e+01	-2.098384e-05
1.115639e+01	-2.122694e-05
1.122083e+01	-2.147286e-05
1.128564e+01	-2.172163e-05
1.135083e+01	-2.197328e-05
1.141639e+01	-2.222785e-05
1.148233e+01	-2.248536e-05
1.154865e+01	-2.274586e-05
1.161536e+01	-2.300938e-05
1.168245e+01	-2.327595e-05
1.174992e+01	-2.354561e-05
1.181779e+01	-2.381839e-05
1.188605e+01	-2.409433e-05
1.195470e+01	-2.437347e-05
1.202375e+01	-2.465584e-05
1.209320e+01	-2.494148e-05
1.216305e+01	-2.523044e-05
1.223330e+01	-2.552274e-05
1.230396e+01	-2.581843e-05
1.237503e+01	-2.611754e-05
1.244651e+01	-2.642012e-05
1.251840e+01	-2.672620e-05
1.259070e+01	-2.703583e-05
1.266343e+01	-2.734905e-05
1.273657e+01	-2.766589e-05
1.281014e+01	-2.798641e-05
1.288413e+01	-2.831064e-05
1.295855e+01	-2.863862e-05
1.303339e+01	-2.897041e-05
1.310867e+01	-2.930604e-05
1.318439e+01	-2.964555e-05
1.326054e+01	-2.998901e-05
1.333713e+01	-3.033644e-05
1.341417e+01	-3.068789e-05
1.349165e+01	-3.104342e-05
1.356958e+01	-3.140306e-05
1.364795e+01	-3.176687e-05
1.372678e+01	-3.213490e-05
1.380607e+01	-3.250719e-05
1.388581e+01	-3.288379e-05
1.396602e+01	-3.326476e-05
1.404668e+01	-3.365014e-05
1.412782e+01	-3.403999e-05
1.420942e+01	-3.443435e-05
1.429149e+01	-3.483328e-05
1.437404e+01	-3.523683e-05
1.445706e+01	-3.564506e-05
1.454057e+01	-3.605801e-05
1.462455e+01	-3.647575e-05
1.470902e+01	-3.689833e-05
1.479398e+01	-3.732581e-05
1.487943e+01	-3.775824e-05
1.496537e+01	-3.819567e-05
1.505181e+01	-3.863818e-05
1.513875e+01	-3.908581e-05
1.522619e+01	-3.953863e-05
1.531414e+01	-3.999669e-05
1.540259e+01	-4.046006e-05
1.549156e+01	-4.092880e-05
1.558103e+01	-4.140297e-05
1.567103e+01	-4.188264e-05
1.576155e+01	-4.236786e-05
1.585258e+01	-4.285870e-05
1.594415e+01	-4.335522e-05
1.603624e+01	-4.385750e-05
1.612886e+01	-4.436560e-05
1.622202e+01	-4.487959e-05
1.631572e+01	-4.539953e-05
1.640996e+01	-4.592549e-05
1.650474e+01	-4.645755e-05
1.660008e+01	-4.699577e-05
1.669596e+01	-4.754022e-05
1.679239e+01	-4.809099e-05
1.688938e+01	-4.864813e-05
1.698694e+01	-4.921173e-05
1.708505e+01	-4.978186e-05
1.718373e+01	-5.035859e-05
1.728299e+01	-5.094201e-05
1.738281e+01	-5.153218e-05
1.748322e+01	-5.212919e-05
1.758420e+01	-5.273312e-05
1.768576e+01	-5.334405e-05
1.778792e+01	-5.396205e-05
1.789066e+01	-5.458721e-05
1.799399e+01	-5.521961e-05
1.809793e+01	-5.585934e-05
1.820246e+01	-5.650649e-05
1.830760e+01	-5.716112e-05
1.841334e+01	-5.782335e-05
1.851969e+01	-5.849324e-05
1.862666e+01	-5.917090e-05
1.873425e+01	-5.985641e-05
1.884246e+01	-6.054985e-05
1.895129e+01	-6.125134e-05
1.906075e+01	-6.196095e-05
1.917085e+01	-6.267877e-05
1.928158e+01	-6.340492e-05
1.939295e+01	-6.413948e-05
1.950496e+01	-6.488255e-05
1.961762e+01	-6.563422e-05
1.973093e+01	-6.639461e-05
1.984490e+01	-6.716380e-05
1.995952e+01	-6.794191e-05
2.007480e+01	-6.872903e-05
2.019076e+01	-6.952527e-05
2.030738e+01	-7.033073e-05
2.042467e+01	-7.114552e-05
2.054264e+01	-7.196976e-05
2.066130e+01	-7.280354e-05
2.078064e+01	-7.364698e-05
2.090066e+01	-7.450020e-05
2.102139e+01	-7.536330e-05
2.114280e+01	-7.623639e-05
2.126492e+01	-7.711960e-05
2.138775e+01	-7.801305e-05
2.151128e+01	-7.891684e-05
2.163553e+01	-7.983111e-05
2.176050e+01	-8.075597e-05
2.188619e+01	-8.169154e-05
2.201260e+01	-8.263795e-05
2.213974e+01	-8.359532e-05
2.226762e+01	-8.456379e-05
2.239624e+01	-8.554347e-05
2.252560e+01	-8.653451e-05
2.265571e+01	-8.753703e-05
2.278656e+01	-8.855116e-05
2.291818e+01	-8.957704e-05
2.305055e+01	-9.061480e-05
2.318369e+01	-9.166459e-05
2.331760e+01	-9.272653e-05
2.345228e+01	-9.380079e-05
2.358774e+01	-9.488748e-05
2.372398e+01	-9.598677e-05
2.386101e+01	-9.709879e-05
2.399883e+01	-9.822369e-05
2.413745e+01	-9.936163e-05
2.427686e+01	-1.005127e-04
2.441709e+01	-1.016772e-04
2.455812e+01	-1.028551e-04
2.469997e+01	-1.040467e-04
2.484263e+01	-1.052521e-04
2.498612e+01	-1.064715e-04
2.513044e+01	-1.077050e-04
2.527559e+01	-1.089528e-04
2.542158e+01	-1.102150e-04
2.556842e+01	-1.114918e-04
2.571610e+01	-1.127835e-04
2.586463e+01	-1.140901e-04
2.601403e+01	-1.154119e-04
2.616428e+01	-1.167489e-04
2.631541e+01	-1.181015e-04
2.646740e+01	-1.194697e-04
2.662028e+01	-1.208538e-04
2.677404e+01	-1.222539e-04
2.692868e+01	-1.236702e-04
2.708422e+01	-1.251029e-04
2.724066e+01	-1.265522e-04
2.739800e+01	-1.280184e-04
2.755625e+01	-1.295015e-04
2.771541e+01	-1.310018e-04
2.787550e+01	-1.325194e-04
2.803650e+01	-1.340547e-04
2.819844e+01	-1.356077e-04
2.836131e+01	-1.371787e-04
2.852513e+01	-1.387680e-04
2.868989e+01	-1.403756e-04
2.885560e+01	-1.420019e-04
2.902227e+01	-1.436470e-04
2.918990e+01	-1.453111e-04
2.935850e+01	-1.469946e-04
2.952807e+01	-1.486975e-04
2.969863e+01	-1.504202e-04
2.987016e+01	-1.521628e-04
3.004269e+01	-1.539257e-04
3.021622e+01	-1.557089e-04
3.039075e+01	-1.575128e-04
3.056628e+01	-1.593376e-04
3.074283e+01	-1.611835e-04
3.092040e+01	-1.630508e-04
3.109900e+01	-1.649398e-04
3.127862e+01	-1.668506e-04
3.145929e+01	-1.687836e-04
3.164099e+01	-1.707390e-04
3.182375e+01	-1.727170e-04
3.200756e+01	-1.747179e-04
3.219244e+01	-1.767420e-04
3.237838e+01	-1.787896e-04
3.256540e+01	-1.808609e-04
3.275349e+01	-1.829562e-04
3.294268e+01	-1.850757e-04
3.313295e+01	-1.872198e-04
3.332433e+01	-1.893888e-04
3.351681e+01	-1.915829e-04
3.371040e+01	-1.938023e-04
3.390511e+01	-1.960475e-04
3.410094e+01	-1.983188e-04
3.429791e+01	-2.006163e-04
3.449601e+01	-2.029404e-04
3.469526e+01	-2.052915e-04
3.489566e+01	-2.076698e-04
3.509721e+01	-2.100757e-04
3.529993e+01	-2.125094e-04
3.550382e+01	-2.149713e-04
3.570889e+01	-2.174617e-04
3.591515e+01	-2.199810e-04
3.612259e+01	-2.225295e-04
3.633123e+01	-2.251075e-04
3.654108e+01	-2.277154e-04
3.675214e+01	-2.303534e-04
3.696442e+01	-2.330221e-04
3.717792e+01	-2.357216e-04
3.739266e+01	-2.384525e-04
3.760864e+01	-2.412149e-04
3.782587e+01	-2.440094e-04
3.804435e+01	-2.468362e-04
3.826409e+01	-2.496958e-04
3.848510e+01	-2.525885e-04
3.870739e+01	-2.555147e-04
3.893096e+01	-2.584749e-04
3.915583e+01	-2.614693e-04
3.938199e+01	-2.644984e-04
3.960946e+01	-2.675626e-04
3.983824e+01	-2.706623e-04
4.006834e+01	-2.737979e-04
4.029978e+01	-2.769698e-04
4.053255e+01	-2.801784e-04
4.076666e+01	-2.834243e-04
4.100213e+01	-2.867077e-04
4.123896e+01	-2.900292e-04
4.147715e+01	-2.933892e-04
4.171672e+01	-2.967880e-04
4.195767e+01	-3.002263e-04
4.220002e+01	-3.037044e-04
4.244377e+01	-3.072228e-04
4.268892e+01	-3.107819e-04
4.293549e+01	-3.143822e-04
4.318348e+01	-3.180243e-04
4.343291e+01	-3.217086e-04
4.368377e+01	-3.254355e-04
4.393609e+01	-3.292056e-04
4.418986e+01	-3.330194e-04
4.444510e+01	-3.368774e-04
4.470182e+01	-3.407801e-04
4.496001e+01	-3.447280e-04
4.521970e+01	-3.487216e-04
4.548089e+01	-3.527614e-04
4.574358e+01	-3.568481e-04
4.600779e+01	-3.609821e-04
4.627353e+01	-3.651640e-04
4.654081e+01	-3.693944e-04
4.680963e+01	-3.736737e-04
4.708000e+01	-3.780026e-04
4.735193e+01	-3.823817e-04
4.762543e+01	-3.868115e-04
4.790051e+01	-3.912926e-04
4.817719e+01	-3.958257e-04
4.845545e+01	-4.004112e-04
4.873533e+01	-4.050499e-04
4.901682e+01	-4.097423e-04
4.929994e+01	-4.144890e-04
4.958470e+01	-4.192907e-04
4.987110e+01	-4.241481e-04
5.015915e+01	-4.290617e-04
5.044887e+01	-4.340323e-04
5.074026e+01	-4.390604e-04
5.103333e+01	-4.441468e-04
5.132810e+01	-4.492921e-04
5.162457e+01	-4.544970e-04
5.192275e+01	-4.597622e-04
5.222265e+01	-4.650884e-04
5.252429e+01	-4.704763e-04
5.282767e+01	-4.759266e-04
5.313280e+01	-4.814400e-04
5.343969e+01	-4.870173e-04
5.374836e+01	-4.926592e-04
5.405880e+01	-4.983665e-04
5.437105e+01	-5.041398e-04
5.468509e+01	-5.099801e-04
5.500095e+01	-5.158880e-04
5.531863e+01	-5.218644e-04
5.563815e+01	-5.279099e-04
5.595951e+01	-5.340255e-04
5.628273e+01	-5.402120e-04
5.660782e+01	-5.464701e-04
5.693479e+01	-5.528007e-04
5.726364e+01	-5.592046e-04
5.759439e+01	-5.656828e-04
5.792705e+01	-5.722359e-04
5.826164e+01	-5.788650e-04
5.859815e+01	-5.855708e-04
5.893662e+01	-5.923544e-04
5.927703e+01	-5.992165e-04
5.961941e+01	-6.061581e-04
5.996377e+01	-6.131801e-04
6.031012e+01	-6.202835e-04
6.065847e+01	-6.274691e-04
6.100883e+01	-6.347380e-04
6.136121e+01	-6.420910e-04
6.171563e+01	-6.495293e-04
6.207210e+01	-6.570537e-04
6.243063e+01	-6.646653e-04
6.279122e+01	-6.723650e-04
6.315390e+01	-6.801539e-04
6.351868e+01	-6.880331e-04
6.388556e+01	-6.960035e-04
6.425456e+01	-7.040662e-04
6.462569e+01	-7.122223e-04
6.499897e+01	-7.204730e-04
6.537440e+01	-7.288191e-04
6.575200e+01	-7.372620e-04
6.613178e+01	-7.458026e-04
6.651375e+01	-7.544422e-04
6.689793e+01	-7.631819e-04
6.728433e+01	-7.720227e-04
6.767297e+01	-7.809660e-04
6.806384e+01	-7.900129e-04
6.845698e+01	-7.991646e-04
6.885238e+01	-8.084223e-04
6.925007e+01	-8.177872e-04
6.965005e+01	-8.272606e-04
7.005235e+01	-8.368437e-04
7.045697e+01	-8.465378e-04
7.086393e+01	-8.563442e-04
7.127323e+01	-8.662642e-04
7.168490e+01	-8.762991e-04
7.209895e+01	-8.864502e-04
7.251539e+01	-8.967189e-04
7.293424e+01	-9.071066e-04
7.335551e+01	-9.176146e-04
7.377920e+01	-9.282442e-04
7.420535e+01	-9.389970e-04
7.463396e+01	-9.498744e-04
7.506504e+01	-9.608777e-04
7.549861e+01	-9.720085e-04
7.593469e+01	-9.832682e-04
7.637328e+01	-9.946583e-04
7.681441e+01	-1.006180e-03
7.725809e+01	-1.017836e-03
7.770433e+01	-1.029626e-03
7.815315e+01	-1.041553e-03
7.860456e+01	-1.053619e-03
7.905857e+01	-1.065824e-03
7.951521e+01	-1.078170e-03
7.997449e+01	-1.090659e-03
8.043642e+01	-1.103293e-03
8.090102e+01	-1.116074e-03
8.136830e+01	-1.129002e-03
8.183828e+01	-1.142080e-03
8.231097e+01	-1.155310e-03
8.278640e+01	-1.168692e-03
8.326457e+01	-1.182230e-03
8.374550e+01	-1.195925e-03
8.422921e+01	-1.209778e-03
8.471572e+01	-1.223791e-03
8.520503e+01	-1.237967e-03
8.569717e+01	-1.252308e-03
8.619215e+01	-1.266814e-03
8.669000e+01	-1.281488e-03
8.719071e+01	-1.296332e-03
8.769432e+01	-1.311348e-03
8.820084e+01	-1.326538e-03
8.871029e+01	-1.341904e-03
8.922267e+01	-1.357448e-03
8.973802e+01	-1.373172e-03
9.025634e+01	-1.389078e-03
9.077766e+01	-1.405168e-03
9.130199e+01	-1.421445e-03
9.182935e+01	-1.437910e-03
9.235975e+01	-1.454566e-03
9.289321e+01	-1.471414e-03
9.342976e+01	-1.488458e-03
9.396941e+01	-1.505699e-03
9.451217e+01	-1.523140e-03
9.505807e+01	-1.540783e-03
9.560712e+01	-1.558630e-03
9.615934e+01	-1.576684e-03
9.671476e+01	-1.594947e-03
9.727338e+01	-1.613422e-03
9.783522e+01	-1.632110e-03
9.840032e+01	-1.651015e-03
9.896867e+01	-1.670139e-03
9.954031e+01	-1.689484e-03
1.001153e+02	-1.709053e-03
1.006935e+02	-1.728849e-03
1.012751e+02	-1.748874e-03
1.018601e+02	-1.769131e-03
1.024484e+02	-1.789623e-03
1.030402e+02	-1.810352e-03
1.036353e+02	-1.831321e-03
1.042339e+02	-1.852533e-03
1.048360e+02	-1.873990e-03
1.054415e+02	-1.895696e-03
1.060505e+02	-1.917653e-03
1.066631e+02	-1.939865e-03
1.072791e+02	-1.962334e-03
1.078988e+02	-1.985063e-03
1.085220e+02	-2.008055e-03
1.091488e+02	-2.031313e-03
1.097793e+02	-2.054841e-03
1.104133e+02	-2.078641e-03
1.110511e+02	-2.102717e-03
1.116925e+02	-2.127071e-03
1.123376e+02	-2.151708e-03
1.129865e+02	-2.176630e-03
1.136391e+02	-2.201840e-03
1.142955e+02	-2.227343e-03
1.149556e+02	-2.253140e-03
1.156196e+02	-2.279237e-03
1.162874e+02	-2.305635e-03
1.169591e+02	-2.332339e-03
1.176347e+02	-2.359353e-03
1.183141e+02	-2.386679e-03
1.189975e+02	-2.414322e-03
1.196848e+02	-2.442284e-03
1.203761e+02	-2.470571e-03
1.210714e+02	-2.499185e-03
1.217707e+02	-2.528130e-03
1.224740e+02	-2.557410e-03
1.231814e+02	-2.587030e-03
1.238929e+02	-2.616992e-03
1.246085e+02	-2.647302e-03
1.253283e+02	-2.677962e-03
1.260522e+02	-2.708977e-03
1.267802e+02	-2.740351e-03
1.275125e+02	-2.772089e-03
1.282490e+02	-2.804194e-03
1.289898e+02	-2.836670e-03
1.297348e+02	-2.869523e-03
1.304842e+02	-2.902756e-03
1.312378e+02	-2.936374e-03
1.319959e+02	-2.970381e-03
1.327583e+02	-3.004782e-03
1.335251e+02	-3.039581e-03
1.342963e+02	-3.074783e-03
1.350720e+02	-3.110392e-03
1.358522e+02	-3.146414e-03
1.366368e+02	-3.182852e-03
1.374260e+02	-3.219713e-03
1.382198e+02	-3.257000e-03
1.390182e+02	-3.294719e-03
1.398211e+02	-3.332874e-03
1.406287e+02	-3.371472e-03
1.414410e+02	-3.410516e-03
1.422579e+02	-3.450012e-03
1.430796e+02	-3.489965e-03
1.439060e+02	-3.530381e-03
1.447372e+02	-3.571264e-03
1.455732e+02	-3.612621e-03
1.464141e+02	-3.654456e-03
1.472597e+02	-3.696776e-03
1.481103e+02	-3.739586e-03
1.489658e+02	-3.782891e-03
1.498262e+02	-3.826697e-03
1.506916e+02	-3.871011e-03
1.515620e+02	-3.915837e-03
1.524374e+02	-3.961183e-03
1.533179e+02	-4.007053e-03
1.542034e+02	-4.053454e-03
1.550941e+02	-4.100392e-03
1.559899e+02	-4.147873e-03
1.568909e+02	-4.195904e-03
1.577971e+02	-4.244491e-03
1.587085e+02	-4.293640e-03
1.596252e+02	-4.343358e-03
1.605472e+02	-4.393652e-03
1.614745e+02	-4.444527e-03
1.624072e+02	-4.495991e-03
1.633453e+02	-4.548051e-03
1.642887e+02	-4.600714e-03
1.652377e+02	-4.653986e-03
1.661921e+02	-4.707874e-03
1.671520e+02	-4.762386e-03
1.681175e+02	-4.817529e-03
1.690885e+02	-4.873310e-03
1.700651e+02	-4.929736e-03
1.710474e+02	-4.986815e-03
1.720354e+02	-5.044555e-03
1.730291e+02	-5.102963e-03
1.740285e+02	-5.162047e-03
1.750337e+02	-5.221815e-03
1.760446e+02	-5.282274e-03
1.770615e+02	-5.343433e-03
1.780842e+02	-5.405299e-03
1.791128e+02	-5.467882e-03
1.801473e+02	-5.531188e-03
1.811878e+02	-5.595227e-03
1.822344e+02	-5.660007e-03
1.832870e+02	-5.725536e-03
1.843456e+02	-5.791823e-03
1.854104e+02	-5.858878e-03
1.864813e+02	-5.926708e-03
1.875584e+02	-5.995323e-03
1.886418e+02	-6.064732e-03
1.897313e+02	-6.134943e-03
1.908272e+02	-6.205967e-03
1.919294e+02	-6.277813e-03
1.930380e+02	-6.350490e-03
1.941530e+02	-6.424007e-03
1.952744e+02	-6.498375e-03
1.964023e+02	-6.573603e-03
1.975367e+02	-6.649702e-03
1.986777e+02	-6.726681e-03
1.998252e+02	-6.804550e-03
2.009794e+02	-6.883319e-03
2.021403e+02	-6.963000e-03
2.033078e+02	-7.043603e-03
2.044821e+02	-7.125138e-03
2.056632e+02	-7.207616e-03
2.068511e+02	-7.291047e-03
2.080459e+02	-7.375444e-03
2.092475e+02	-7.460817e-03
2.104561e+02	-7.547177e-03
2.116717e+02	-7.634536e-03
2.128943e+02	-7.722905e-03
2.141240e+02	-7.812296e-03
2.153608e+02	-7.902721e-03
2.166047e+02	-7.994192e-03
2.178558e+02	-8.086720e-03
2.191141e+02	-8.180318e-03
2.203797e+02	-8.274999e-03
2.216526e+02	-8.370774e-03
2.229329e+02	-8.467657e-03
2.242205e+02	-8.565660e-03
2.255156e+02	-8.664796e-03
2.268182e+02	-8.765078e-03
2.281283e+02	-8.866520e-03
2.294459e+02	-8.969134e-03
2.307712e+02	-9.072935e-03
2.321041e+02	-9.177936e-03
2.334447e+02	-9.284150e-03
2.347931e+02	-9.391593e-03
2.361493e+02	-9.500278e-03
2.375133e+02	-9.610219e-03
2.388851e+02	-9.721430e-03
2.402649e+02	-9.833928e-03
2.416527e+02	-9.947725e-03
2.430484e+02	-1.006284e-02
2.444523e+02	-1.017928e-02
2.458642e+02	-1.029707e-02
2.472843e+02	-1.041622e-02
2.487126e+02	-1.053675e-02
2.501492e+02	-1.065867e-02
2.515940e+02	-1.078200e-02
2.530472e+02	-1.090675e-02
2.545088e+02	-1.103295e-02
2.559789e+02	-1.116061e-02
2.574574e+02	-1.128974e-02
2.589444e+02	-1.142036e-02
2.604401e+02	-1.155249e-02
2.619444e+02	-1.168615e-02
2.634574e+02	-1.182135e-02
2.649791e+02	-1.195811e-02
2.665096e+02	-1.209646e-02
2.680489e+02	-1.223640e-02
2.695972e+02	-1.237796e-02
2.711544e+02	-1.252115e-02
2.727205e+02	-1.266600e-02
2.742958e+02	-1.281252e-02
2.758801e+02	-1.296074e-02
2.774736e+02	-1.311066e-02
2.790762e+02	-1.326232e-02
2.806882e+02	-1.341573e-02
2.823094e+02	-1.357091e-02
2.839400e+02	-1.372788e-02
2.855800e+02	-1.388667e-02
2.872295e+02	-1.404729e-02
2.888886e+02	-1.420976e-02
2.905572e+02	-1.437411e-02
2.922354e+02	-1.454036e-02
2.939234e+02	-1.470853e-02
2.956211e+02	-1.487864e-02
2.973286e+02	-1.505071e-02
2.990459e+02	-1.522477e-02
3.007732e+02	-1.540084e-02
3.025104e+02	-1.557894e-02
3.042577e+02	-1.575910e-02
3.060151e+02	-1.594134e-02
3.077826e+02	-1.612568e-02
3.095604e+02	-1.631215e-02
3.113484e+02	-1.650077e-02
3.131467e+02	-1.669156e-02
3.149554e+02	-1.688456e-02
3.167746e+02	-1.707979e-02
3.186043e+02	-1.727727e-02
3.204445e+02	-1.747702e-02
3.222954e+02	-1.767909e-02
3.241570e+02	-1.788348e-02
3.260293e+02	-1.809023e-02
3.279124e+02	-1.829937e-02
3.298064e+02	-1.851092e-02
3.317114e+02	-1.872491e-02
3.336273e+02	-1.894137e-02
3.355544e+02	-1.916032e-02
3.374925e+02	-1.938180e-02
3.394418e+02	-1.960583e-02
3.414024e+02	-1.983245e-02
3.433744e+02	-2.006168e-02
3.453577e+02	-2.029356e-02
3.473525e+02	-2.052811e-02
3.493588e+02	-2.076536e-02
3.513766e+02	-2.100535e-02
3.534062e+02	-2.124810e-02
3.554474e+02	-2.149366e-02
3.575005e+02	-2.174204e-02
3.595654e+02	-2.199329e-02
3.616422e+02	-2.224743e-02
3.637311e+02	-2.250450e-02
3.658320e+02	-2.276454e-02
3.679450e+02	-2.302757e-02
3.700702e+02	-2.329363e-02
3.722077e+02	-2.356276e-02
3.743576e+02	-2.383499e-02
3.765199e+02	-2.411036e-02
3.786946e+02	-2.438889e-02
3.808820e+02	-2.467064e-02
3.830819e+02	-2.495563e-02
3.852946e+02	-2.524391e-02
3.875200e+02	-2.553550e-02
3.897583e+02	-2.583045e-02
3.920096e+02	-2.612880e-02
3.942738e+02	-2.643059e-02
3.965511e+02	-2.673585e-02
3.988416e+02	-2.704462e-02
4.011452e+02	-2.735695e-02
4.034622e+02	-2.767287e-02
4.057926e+02	-2.799243e-02
4.081365e+02	-2.831567e-02
4.104938e+02	-2.864263e-02
4.128648e+02	-2.897336e-02
4.152495e+02	-2.930788e-02
4.176480e+02	-2.964626e-02
4.200603e+02	-2.998853e-02
4.224866e+02	-3.033474e-02
4.249268e+02	-3.068493e-02
4.273812e+02	-3.103915e-02
4.298497e+02	-3.139744e-02
4.323325e+02	-3.175985e-02
4.348297e+02	-3.212643e-02
4.373412e+02	-3.249723e-02
4.398673e+02	-3.287229e-02
4.424079e+02	-3.325166e-02
4.449633e+02	-3.363540e-02
4.475334e+02	-3.402354e-02
4.501183e+02	-3.441615e-02
4.527182e+02	-3.481326e-02
4.553330e+02	-3.521494e-02
4.579630e+02	-3.562124e-02
4.606082e+02	-3.603220e-02
4.632687e+02	-3.644789e-02
4.659445e+02	-3.686835e-02
4.686358e+02	-3.729364e-02
4.713426e+02	-3.772382e-02
4.740650e+02	-3.815893e-02
4.768032e+02	-3.859904e-02
4.795572e+02	-3.904421e-02
4.823271e+02	-3.949449e-02
4.851130e+02	-3.994993e-02
4.879150e+02	-4.041060e-02
4.907332e+02	-4.087656e-02
4.935676e+02	-4.134787e-02
4.964185e+02	-4.182458e-02
4.992858e+02	-4.230676e-02
5.021696e+02	-4.279448e-02
5.050701e+02	-4.328779e-02
5.079874e+02	-4.378675e-02
5.109215e+02	-4.429144e-02
5.138726e+02	-4.480192e-02
5.168407e+02	-4.531824e-02
5.198259e+02	-4.584049e-02
5.228284e+02	-4.636872e-02
5.258482e+02	-4.690301e-02
5.288855e+02	-4.744342e-02
5.319403e+02	-4.799002e-02
5.350128e+02	-4.854289e-02
5.381030e+02	-4.910208e-02
5.412111e+02	-4.966769e-02
5.443371e+02	-5.023976e-02
5.474812e+02	-5.081839e-02
5.506434e+02	-5.140365e-02
5.538239e+02	-5.199560e-02
5.570228e+02	-5.259433e-02
5.602401e+02	-5.319991e-02
5.634760e+02	-5.381242e-02
5.667306e+02	-5.443194e-02
5.700040e+02	-5.505855e-02
5.732964e+02	-5.569232e-02
5.766077e+02	-5.633334e-02
5.799382e+02	-5.698169e-02
5.832879e+02	-5.763745e-02
5.866569e+02	-5.830071e-02
5.900454e+02	-5.897155e-02
5.934535e+02	-5.965005e-02
5.968813e+02	-6.033630e-02
6.003288e+02	-6.103040e-02
6.037963e+02	-6.173242e-02
6.072838e+02	-6.244246e-02
6.107914e+02	-6.316061e-02
6.143194e+02	-6.388696e-02
6.178676e+02	-6.462159e-02
6.214364e+02	-6.536461e-02
6.250258e+02	-6.611611e-02
6.286359e+02	-6.687618e-02
6.322669e+02	-6.764492e-02
6.359189e+02	-6.842243e-02
6.395919e+02	-6.920880e-02
6.432862e+02	-7.000414e-02
6.470017e+02	-7.080854e-02
6.507388e+02	-7.162211e-02
6.544974e+02	-7.244495e-02
6.582778e+02	-7.327717e-02
6.620800e+02	-7.411886e-02
6.659041e+02	-7.497013e-02
6.697504e+02	-7.583110e-02
6.736188e+02	-7.670186e-02
6.775096e+02	-7.758254e-02
6.814229e+02	-7.847323e-02
6.853587e+02	-7.937406e-02
6.893173e+02	-8.028513e-02
6.932988e+02	-8.120657e-02
6.973033e+02	-8.213847e-02
7.013309e+02	-8.308097e-02
