Frequency(Hz)	Magnitude(dB)
1.000000e+01	-1.875033e+00
1.005776e+01	-1.892696e+00
1.011585e+01	-1.910603e+00
1.017428e+01	-1.928199e+00
1.023305e+01	-1.946211e+00
1.029215e+01	-1.964375e+00
1.035160e+01	-1.982637e+00
1.041139e+01	-2.001019e+00
1.047153e+01	-2.019496e+00
1.053201e+01	-2.038339e+00
1.059284e+01	-2.056956e+00
1.065403e+01	-2.075943e+00
1.071556e+01	-2.095110e+00
1.077746e+01	-2.114427e+00
1.083971e+01	-2.133757e+00
1.090232e+01	-2.152912e+00
1.096529e+01	-2.172772e+00
1.102862e+01	-2.192466e+00
1.109232e+01	-2.212517e+00
1.115639e+01	-2.232564e+00
1.122083e+01	-2.252823e+00
1.128564e+01	-2.272997e+00
1.135083e+01	-2.293566e+00
1.141639e+01	-2.313996e+00
1.148233e+01	-2.334778e+00
1.154865e+01	-2.355416e+00
1.161536e+01	-2.376659e+00
1.168245e+01	-2.397692e+00
1.174992e+01	-2.418913e+00
1.181779e+01	-2.440688e+00
1.188605e+01	-2.462041e+00
1.195470e+01	-2.483587e+00
1.202375e+01	-2.505780e+00
1.209320e+01	-2.527705e+00
1.216305e+01	-2.549794e+00
1.223330e+01	-2.572070e+00
1.230396e+01	-2.594830e+00
1.237503e+01	-2.617237e+00
1.244651e+01	-2.639785e+00
1.251840e+01	-2.662611e+00
1.259070e+01	-2.685581e+00
1.266343e+01	-2.708746e+00
1.273657e+01	-2.732263e+00
1.281014e+01	-2.755319e+00
1.288413e+01	-2.778895e+00
1.295855e+01	-2.802711e+00
1.303339e+01	-2.826574e+00
1.310867e+01	-2.850634e+00
1.318439e+01	-2.874720e+00
1.326054e+01	-2.899060e+00
1.333713e+01	-2.923674e+00
1.341417e+01	-2.947983e+00
1.349165e+01	-2.973035e+00
1.356958e+01	-2.997658e+00
1.364795e+01	-3.022944e+00
1.372678e+01	-3.048000e+00
1.380607e+01	-3.072956e+00
1.388581e+01	-3.098669e+00
1.396602e+01	-3.124287e+00
1.404668e+01	-3.150040e+00
1.412782e+01	-3.175908e+00
1.420942e+01	-3.201781e+00
1.429149e+01	-3.228096e+00
1.437404e+01	-3.254384e+00
1.445706e+01	-3.280710e+00
1.454057e+01	-3.307531e+00
1.462455e+01	-3.334362e+00
1.470902e+01	-3.361050e+00
1.479398e+01	-3.388126e+00
1.487943e+01	-3.415185e+00
1.496537e+01	-3.442531e+00
1.505181e+01	-3.469959e+00
1.513875e+01	-3.497621e+00
1.522619e+01	-3.525383e+00
1.531414e+01	-3.553274e+00
1.540259e+01	-3.581179e+00
1.549156e+01	-3.609431e+00
1.558103e+01	-3.637531e+00
1.567103e+01	-3.666260e+00
1.576155e+01	-3.694785e+00
1.585258e+01	-3.723395e+00
1.594415e+01	-3.752249e+00
1.603624e+01	-3.781201e+00
1.612886e+01	-3.810352e+00
1.622202e+01	-3.839888e+00
1.631572e+01	-3.869393e+00
1.640996e+01	-3.898737e+00
1.650474e+01	-3.928437e+00
1.660008e+01	-3.958294e+00
1.669596e+01	-3.988097e+00
1.679239e+01	-4.018212e+00
1.688938e+01	-4.048841e+00
1.698694e+01	-4.079346e+00
1.708505e+01	-4.109845e+00
1.718373e+01	-4.140533e+00
1.728299e+01	-4.171119e+00
1.738281e+01	-4.202246e+00
1.748322e+01	-4.233029e+00
1.758420e+01	-4.264292e+00
1.768576e+01	-4.295613e+00
1.778792e+01	-4.327125e+00
1.789066e+01	-4.358998e+00
1.799399e+01	-4.390676e+00
1.809793e+01	-4.422086e+00
1.820246e+01	-4.454277e+00
1.830760e+01	-4.486720e+00
1.841334e+01	-4.518812e+00
1.851969e+01	-4.551327e+00
1.862666e+01	-4.583848e+00
1.873425e+01	-4.616553e+00
1.884246e+01	-4.649465e+00
1.895129e+01	-4.682382e+00
1.906075e+01	-4.715465e+00
1.917085e+01	-4.748783e+00
1.928158e+01	-4.782180e+00
1.939295e+01	-4.815217e+00
1.950496e+01	-4.849080e+00
1.961762e+01	-4.882938e+00
1.973093e+01	-4.916550e+00
1.984490e+01	-4.950542e+00
1.995952e+01	-4.984458e+00
2.007480e+01	-5.019038e+00
2.019076e+01	-5.052969e+00
2.030738e+01	-5.087904e+00
2.042467e+01	-5.122106e+00
2.054264e+01	-5.156921e+00
2.066130e+01	-5.191576e+00
2.078064e+01	-5.226935e+00
2.090066e+01	-5.261592e+00
2.102139e+01	-5.296975e+00
2.114280e+01	-5.332055e+00
2.126492e+01	-5.367559e+00
2.138775e+01	-5.403377e+00
2.151128e+01	-5.438781e+00
2.163553e+01	-5.474628e+00
2.176050e+01	-5.510846e+00
2.188619e+01	-5.546608e+00
2.201260e+01	-5.582758e+00
2.213974e+01	-5.618961e+00
2.226762e+01	-5.655410e+00
2.239624e+01	-5.692013e+00
2.252560e+01	-5.728409e+00
2.265571e+01	-5.765139e+00
2.278656e+01	-5.801840e+00
2.291818e+01	-5.838708e+00
2.305055e+01	-5.875772e+00
2.318369e+01	-5.912793e+00
2.331760e+01	-5.950434e+00
2.345228e+01	-5.988011e+00
2.358774e+01	-6.025300e+00
2.372398e+01	-6.062900e+00
2.386101e+01	-6.100299e+00
2.399883e+01	-6.138167e+00
2.413745e+01	-6.176261e+00
2.427686e+01	-6.214320e+00
2.441709e+01	-6.252305e+00
2.455812e+01	-6.290561e+00
2.469997e+01	-6.329071e+00
2.484263e+01	-6.367429e+00
2.498612e+01	-6.405814e+00
2.513044e+01	-6.444313e+00
2.527559e+01	-6.482911e+00
2.542158e+01	-6.522243e+00
2.556842e+01	-6.560733e+00
2.571610e+01	-6.599683e+00
2.586463e+01	-6.639203e+00
2.601403e+01	-6.678652e+00
2.616428e+01	-6.717288e+00
2.631541e+01	-6.757048e+00
2.646740e+01	-6.796567e+00
2.662028e+01	-6.836154e+00
2.677404e+01	-6.876165e+00
2.692868e+01	-6.915431e+00
2.708422e+01	-6.955431e+00
2.724066e+01	-6.995444e+00
2.739800e+01	-7.035839e+00
2.755625e+01	-7.075953e+00
2.771541e+01	-7.115766e+00
2.787550e+01	-7.156613e+00
2.803650e+01	-7.197110e+00
2.819844e+01	-7.237309e+00
2.836131e+01	-7.277924e+00
2.852513e+01	-7.318890e+00
2.868989e+01	-7.359567e+00
2.885560e+01	-7.400026e+00
2.902227e+01	-7.441149e+00
2.918990e+01	-7.482409e+00
2.935850e+01	-7.523525e+00
2.952807e+01	-7.565072e+00
2.969863e+01	-7.606397e+00
2.987016e+01	-7.647317e+00
3.004269e+01	-7.689014e+00
3.021622e+01	-7.730396e+00
3.039075e+01	-7.772391e+00
3.056628e+01	-7.813705e+00
3.074283e+01	-7.855499e+00
3.092040e+01	-7.897261e+00
3.109900e+01	-7.939539e+00
3.127862e+01	-7.981719e+00
3.145929e+01	-8.023885e+00
3.164099e+01	-8.065827e+00
3.182375e+01	-8.107919e+00
3.200756e+01	-8.150076e+00
3.219244e+01	-8.192928e+00
3.237838e+01	-8.235318e+00
3.256540e+01	-8.277748e+00
3.275349e+01	-8.320187e+00
3.294268e+01	-8.363040e+00
3.313295e+01	-8.406194e+00
3.332433e+01	-8.448844e+00
3.351681e+01	-8.491745e+00
3.371040e+01	-8.534856e+00
3.390511e+01	-8.577551e+00
3.410094e+01	-8.620736e+00
3.429791e+01	-8.664389e+00
3.449601e+01	-8.707237e+00
3.469526e+01	-8.750375e+00
3.489566e+01	-8.794327e+00
3.509721e+01	-8.837237e+00
3.529993e+01	-8.880900e+00
3.550382e+01	-8.924250e+00
3.570889e+01	-8.968127e+00
3.591515e+01	-9.011899e+00
3.612259e+01	-9.055951e+00
3.633123e+01	-9.099271e+00
3.654108e+01	-9.142964e+00
3.675214e+01	-9.187427e+00
3.696442e+01	-9.231321e+00
3.717792e+01	-9.275401e+00
3.739266e+01	-9.319866e+00
3.760864e+01	-9.363865e+00
3.782587e+01	-9.408190e+00
3.804435e+01	-9.452251e+00
3.826409e+01	-9.496709e+00
3.848510e+01	-9.540949e+00
3.870739e+01	-9.585581e+00
3.893096e+01	-9.629868e+00
3.915583e+01	-9.674988e+00
3.938199e+01	-9.719323e+00
3.960946e+01	-9.764155e+00
3.983824e+01	-9.809330e+00
4.006834e+01	-9.853905e+00
4.029978e+01	-9.898573e+00
4.053255e+01	-9.943966e+00
4.076666e+01	-9.988632e+00
4.100213e+01	-1.003327e+01
4.123896e+01	-1.007878e+01
4.147715e+01	-1.012391e+01
4.171672e+01	-1.016925e+01
4.195767e+01	-1.021456e+01
4.220002e+01	-1.025941e+01
4.244377e+01	-1.030507e+01
4.268892e+01	-1.035060e+01
4.293549e+01	-1.039590e+01
4.318348e+01	-1.044164e+01
4.343291e+01	-1.048666e+01
4.368377e+01	-1.053250e+01
4.393609e+01	-1.057802e+01
4.418986e+01	-1.062352e+01
4.444510e+01	-1.066913e+01
4.470182e+01	-1.071491e+01
4.496001e+01	-1.076055e+01
4.521970e+01	-1.080712e+01
4.548089e+01	-1.085248e+01
4.574358e+01	-1.089920e+01
4.600779e+01	-1.094437e+01
4.627353e+01	-1.099090e+01
4.654081e+01	-1.103648e+01
4.680963e+01	-1.108303e+01
4.708000e+01	-1.112954e+01
4.735193e+01	-1.117534e+01
4.762543e+01	-1.122147e+01
4.790051e+01	-1.126745e+01
4.817719e+01	-1.131424e+01
4.845545e+01	-1.136050e+01
4.873533e+01	-1.140637e+01
4.901682e+01	-1.145302e+01
4.929994e+01	-1.149929e+01
4.958470e+01	-1.154611e+01
4.987110e+01	-1.159277e+01
5.015915e+01	-1.163900e+01
5.044887e+01	-1.168527e+01
5.074026e+01	-1.173200e+01
5.103333e+01	-1.177876e+01
5.132810e+01	-1.182570e+01
5.162457e+01	-1.187285e+01
5.192275e+01	-1.191952e+01
5.222265e+01	-1.196630e+01
5.252429e+01	-1.201302e+01
5.282767e+01	-1.205998e+01
5.313280e+01	-1.210714e+01
5.343969e+01	-1.215431e+01
5.374836e+01	-1.220091e+01
5.405880e+01	-1.224762e+01
5.437105e+01	-1.229504e+01
5.468509e+01	-1.234195e+01
5.500095e+01	-1.238919e+01
5.531863e+01	-1.243630e+01
5.563815e+01	-1.248379e+01
5.595951e+01	-1.253023e+01
5.628273e+01	-1.257725e+01
5.660782e+01	-1.262561e+01
5.693479e+01	-1.267308e+01
5.726364e+01	-1.271958e+01
5.759439e+01	-1.276747e+01
5.792705e+01	-1.281449e+01
5.826164e+01	-1.286245e+01
5.859815e+01	-1.290907e+01
5.893662e+01	-1.295708e+01
5.927703e+01	-1.300459e+01
5.961941e+01	-1.305209e+01
5.996377e+01	-1.309925e+01
6.031012e+01	-1.314635e+01
6.065847e+01	-1.319537e+01
6.100883e+01	-1.324163e+01
6.136121e+01	-1.329036e+01
6.171563e+01	-1.333737e+01
6.207210e+01	-1.338554e+01
6.243063e+01	-1.343240e+01
6.279122e+01	-1.348113e+01
6.315390e+01	-1.352960e+01
6.351868e+01	-1.357757e+01
6.388556e+01	-1.362426e+01
6.425456e+01	-1.367229e+01
6.462569e+01	-1.372036e+01
6.499897e+01	-1.376740e+01
6.537440e+01	-1.381639e+01
6.575200e+01	-1.386416e+01
6.613178e+01	-1.391248e+01
6.651375e+01	-1.395915e+01
6.689793e+01	-1.400868e+01
6.728433e+01	-1.405571e+01
6.767297e+01	-1.410453e+01
6.806384e+01	-1.415306e+01
6.845698e+01	-1.420088e+01
6.885238e+01	-1.424854e+01
6.925007e+01	-1.429625e+01
6.965005e+01	-1.434474e+01
7.005235e+01	-1.439294e+01
7.045697e+01	-1.444080e+01
7.086393e+01	-1.449142e+01
7.127323e+01	-1.453924e+01
7.168490e+01	-1.458596e+01
7.209895e+01	-1.463496e+01
7.251539e+01	-1.468342e+01
7.293424e+01	-1.473116e+01
7.335551e+01	-1.477976e+01
7.377920e+01	-1.482778e+01
7.420535e+01	-1.487557e+01
7.463396e+01	-1.492453e+01
7.506504e+01	-1.497278e+01
7.549861e+01	-1.502066e+01
7.593469e+01	-1.507018e+01
7.637328e+01	-1.511833e+01
7.681441e+01	-1.516587e+01
7.725809e+01	-1.521667e+01
7.770433e+01	-1.526393e+01
7.815315e+01	-1.531289e+01
7.860456e+01	-1.536028e+01
7.905857e+01	-1.541002e+01
7.951521e+01	-1.545947e+01
7.997449e+01	-1.550707e+01
8.043642e+01	-1.555590e+01
8.090102e+01	-1.560378e+01
8.136830e+01	-1.565396e+01
8.183828e+01	-1.570155e+01
8.231097e+01	-1.575004e+01
8.278640e+01	-1.579890e+01
8.326457e+01	-1.584724e+01
8.374550e+01	-1.589718e+01
8.422921e+01	-1.594631e+01
8.471572e+01	-1.599414e+01
8.520503e+01	-1.604336e+01
8.569717e+01	-1.609093e+01
8.619215e+01	-1.613969e+01
8.669000e+01	-1.618934e+01
8.719071e+01	-1.623810e+01
8.769432e+01	-1.628714e+01
8.820084e+01	-1.633587e+01
8.871029e+01	-1.638490e+01
8.922267e+01	-1.643339e+01
8.973802e+01	-1.648110e+01
9.025634e+01	-1.653237e+01
9.077766e+01	-1.658037e+01
9.130199e+01	-1.662919e+01
9.182935e+01	-1.667892e+01
9.235975e+01	-1.672810e+01
9.289321e+01	-1.677590e+01
9.342976e+01	-1.682433e+01
9.396941e+01	-1.687426e+01
9.451217e+01	-1.692304e+01
9.505807e+01	-1.697147e+01
9.560712e+01	-1.702074e+01
9.615934e+01	-1.706969e+01
9.671476e+01	-1.711929e+01
9.727338e+01	-1.716863e+01
9.783522e+01	-1.721734e+01
9.840032e+01	-1.726665e+01
9.896867e+01	-1.731484e+01
9.954031e+01	-1.736409e+01
1.001153e+02	-1.741337e+01
1.006935e+02	-1.746352e+01
1.012751e+02	-1.751212e+01
1.018601e+02	-1.756107e+01
1.024484e+02	-1.760960e+01
1.030402e+02	-1.765861e+01
1.036353e+02	-1.770875e+01
1.042339e+02	-1.775717e+01
1.048360e+02	-1.780696e+01
1.054415e+02	-1.785791e+01
1.060505e+02	-1.790641e+01
1.066631e+02	-1.795526e+01
1.072791e+02	-1.800368e+01
1.078988e+02	-1.805261e+01
1.085220e+02	-1.810254e+01
1.091488e+02	-1.815259e+01
1.097793e+02	-1.820021e+01
1.104133e+02	-1.825068e+01
1.110511e+02	-1.829954e+01
1.116925e+02	-1.834967e+01
1.123376e+02	-1.839889e+01
1.129865e+02	-1.844668e+01
1.136391e+02	-1.849552e+01
1.142955e+02	-1.854560e+01
1.149556e+02	-1.859528e+01
1.156196e+02	-1.864446e+01
1.162874e+02	-1.869506e+01
1.169591e+02	-1.874367e+01
1.176347e+02	-1.879217e+01
1.183141e+02	-1.884228e+01
1.189975e+02	-1.889098e+01
1.196848e+02	-1.894143e+01
1.203761e+02	-1.899026e+01
1.210714e+02	-1.904071e+01
1.217707e+02	-1.908978e+01
1.224740e+02	-1.913931e+01
1.231814e+02	-1.918891e+01
1.238929e+02	-1.923839e+01
1.246085e+02	-1.928642e+01
1.253283e+02	-1.933733e+01
1.260522e+02	-1.938672e+01
1.267802e+02	-1.943542e+01
1.275125e+02	-1.948661e+01
1.282490e+02	-1.953458e+01
1.289898e+02	-1.958303e+01
1.297348e+02	-1.963475e+01
1.304842e+02	-1.968228e+01
1.312378e+02	-1.973154e+01
1.319959e+02	-1.978192e+01
1.327583e+02	-1.983130e+01
1.335251e+02	-1.987999e+01
1.342963e+02	-1.992962e+01
1.350720e+02	-1.998087e+01
1.358522e+02	-2.002744e+01
1.366368e+02	-2.007683e+01
1.374260e+02	-2.012759e+01
1.382198e+02	-2.017826e+01
1.390182e+02	-2.022819e+01
1.398211e+02	-2.027612e+01
1.406287e+02	-2.032703e+01
1.414410e+02	-2.037816e+01
1.422579e+02	-2.042414e+01
1.430796e+02	-2.047545e+01
1.439060e+02	-2.052482e+01
1.447372e+02	-2.057529e+01
1.455732e+02	-2.062503e+01
1.464141e+02	-2.067407e+01
1.472597e+02	-2.072254e+01
1.481103e+02	-2.077308e+01
1.489658e+02	-2.082173e+01
1.498262e+02	-2.087244e+01
1.506916e+02	-2.092285e+01
1.515620e+02	-2.097039e+01
1.524374e+02	-2.102162e+01
1.533179e+02	-2.107134e+01
1.542034e+02	-2.112008e+01
1.550941e+02	-2.116885e+01
1.559899e+02	-2.122159e+01
1.568909e+02	-2.126784e+01
1.577971e+02	-2.131935e+01
1.587085e+02	-2.136807e+01
1.596252e+02	-2.141805e+01
1.605472e+02	-2.146834e+01
1.614745e+02	-2.151867e+01
1.624072e+02	-2.156937e+01
1.633453e+02	-2.161899e+01
1.642887e+02	-2.166814e+01
1.652377e+02	-2.171446e+01
1.661921e+02	-2.176653e+01
1.671520e+02	-2.181525e+01
1.681175e+02	-2.186481e+01
1.690885e+02	-2.191675e+01
1.700651e+02	-2.196588e+01
1.710474e+02	-2.201466e+01
1.720354e+02	-2.206398e+01
1.730291e+02	-2.211414e+01
1.740285e+02	-2.216641e+01
1.750337e+02	-2.221171e+01
1.760446e+02	-2.226439e+01
1.770615e+02	-2.231443e+01
1.780842e+02	-2.236237e+01
1.791128e+02	-2.241342e+01
1.801473e+02	-2.246216e+01
1.811878e+02	-2.251262e+01
1.822344e+02	-2.256010e+01
1.832870e+02	-2.261141e+01
1.843456e+02	-2.266095e+01
1.854104e+02	-2.271238e+01
1.864813e+02	-2.275941e+01
1.875584e+02	-2.281038e+01
1.886418e+02	-2.286371e+01
1.897313e+02	-2.291203e+01
1.908272e+02	-2.295877e+01
1.919294e+02	-2.300907e+01
1.930380e+02	-2.306060e+01
1.941530e+02	-2.310985e+01
1.952744e+02	-2.316087e+01
1.964023e+02	-2.320917e+01
1.975367e+02	-2.325833e+01
1.986777e+02	-2.330988e+01
1.998252e+02	-2.335860e+01
2.009794e+02	-2.340854e+01
2.021403e+02	-2.345843e+01
2.033078e+02	-2.350966e+01
2.044821e+02	-2.355959e+01
2.056632e+02	-2.360599e+01
2.068511e+02	-2.365797e+01
2.080459e+02	-2.370858e+01
2.092475e+02	-2.375670e+01
2.104561e+02	-2.380760e+01
2.116717e+02	-2.386042e+01
2.128943e+02	-2.391156e+01
2.141240e+02	-2.395758e+01
2.153608e+02	-2.400688e+01
2.166047e+02	-2.405760e+01
2.178558e+02	-2.410548e+01
2.191141e+02	-2.415830e+01
2.203797e+02	-2.420546e+01
2.216526e+02	-2.425544e+01
2.229329e+02	-2.430593e+01
2.242205e+02	-2.435586e+01
2.255156e+02	-2.440467e+01
2.268182e+02	-2.445808e+01
2.281283e+02	-2.450734e+01
2.294459e+02	-2.455775e+01
2.307712e+02	-2.460625e+01
2.321041e+02	-2.465420e+01
2.334447e+02	-2.470746e+01
2.347931e+02	-2.475421e+01
2.361493e+02	-2.480458e+01
2.375133e+02	-2.485345e+01
2.388851e+02	-2.490679e+01
2.402649e+02	-2.495544e+01
2.416527e+02	-2.500278e+01
2.430484e+02	-2.505299e+01
2.444523e+02	-2.510476e+01
2.458642e+02	-2.515466e+01
2.472843e+02	-2.520451e+01
2.487126e+02	-2.525197e+01
2.501492e+02	-2.530566e+01
2.515940e+02	-2.535349e+01
2.530472e+02	-2.540629e+01
2.545088e+02	-2.545344e+01
2.559789e+02	-2.550243e+01
2.574574e+02	-2.555423e+01
2.589444e+02	-2.560263e+01
2.604401e+02	-2.565734e+01
2.619444e+02	-2.570201e+01
2.634574e+02	-2.575468e+01
2.649791e+02	-2.580080e+01
2.665096e+02	-2.585300e+01
2.680489e+02	-2.590498e+01
2.695972e+02	-2.595322e+01
2.711544e+02	-2.600481e+01
2.727205e+02	-2.605420e+01
2.742958e+02	-2.610432e+01
2.758801e+02	-2.615576e+01
2.774736e+02	-2.620440e+01
2.790762e+02	-2.625296e+01
2.806882e+02	-2.630394e+01
2.823094e+02	-2.635423e+01
2.839400e+02	-2.640152e+01
2.855800e+02	-2.645517e+01
2.872295e+02	-2.650437e+01
2.888886e+02	-2.655386e+01
2.905572e+02	-2.660381e+01
2.922354e+02	-2.665332e+01
2.939234e+02	-2.670547e+01
2.956211e+02	-2.675405e+01
2.973286e+02	-2.680401e+01
2.990459e+02	-2.685225e+01
3.007732e+02	-2.690350e+01
3.025104e+02	-2.695253e+01
3.042577e+02	-2.700355e+01
3.060151e+02	-2.705379e+01
3.077826e+02	-2.710543e+01
3.095604e+02	-2.715140e+01
3.113484e+02	-2.720322e+01
3.131467e+02	-2.724733e+01
3.149554e+02	-2.730107e+01
3.167746e+02	-2.735219e+01
3.186043e+02	-2.740293e+01
3.204445e+02	-2.745419e+01
3.222954e+02	-2.750200e+01
3.241570e+02	-2.755680e+01
3.260293e+02	-2.760446e+01
3.279124e+02	-2.765612e+01
3.298064e+02	-2.770181e+01
3.317114e+02	-2.775602e+01
3.336273e+02	-2.780296e+01
3.355544e+02	-2.785521e+01
3.374925e+02	-2.790129e+01
3.394418e+02	-2.795312e+01
3.414024e+02	-2.800915e+01
3.433744e+02	-2.805411e+01
3.453577e+02	-2.810528e+01
3.473525e+02	-2.815399e+01
3.493588e+02	-2.820291e+01
3.513766e+02	-2.825401e+01
3.534062e+02	-2.830382e+01
3.554474e+02	-2.835044e+01
3.575005e+02	-2.840670e+01
3.595654e+02	-2.845029e+01
3.616422e+02	-2.850310e+01
3.637311e+02	-2.855729e+01
3.658320e+02	-2.860597e+01
3.679450e+02	-2.864915e+01
3.700702e+02	-2.870347e+01
3.722077e+02	-2.875327e+01
3.743576e+02	-2.880550e+01
3.765199e+02	-2.885617e+01
3.786946e+02	-2.890437e+01
3.808820e+02	-2.895545e+01
3.830819e+02	-2.900548e+01
3.852946e+02	-2.905681e+01
3.875200e+02	-2.910352e+01
3.897583e+02	-2.915714e+01
3.920096e+02	-2.920073e+01
3.942738e+02	-2.926000e+01
3.965511e+02	-2.930123e+01
3.988416e+02	-2.935538e+01
4.011452e+02	-2.940787e+01
4.034622e+02	-2.945239e+01
4.057926e+02	-2.950710e+01
4.081365e+02	-2.955889e+01
4.104938e+02	-2.960170e+01
4.128648e+02	-2.965597e+01
4.152495e+02	-2.970388e+01
4.176480e+02	-2.975250e+01
4.200603e+02	-2.980678e+01
4.224866e+02	-2.985969e+01
4.249268e+02	-2.990500e+01
4.273812e+02	-2.995641e+01
4.298497e+02	-3.000519e+01
4.323325e+02	-3.005317e+01
4.348297e+02	-3.010091e+01
4.373412e+02	-3.015523e+01
4.398673e+02	-3.020418e+01
4.424079e+02	-3.025549e+01
4.449633e+02	-3.030740e+01
4.475334e+02	-3.035772e+01
4.501183e+02	-3.040761e+01
4.527182e+02	-3.046083e+01
4.553330e+02	-3.051018e+01
4.579630e+02	-3.055426e+01
4.606082e+02	-3.060891e+01
4.632687e+02	-3.065913e+01
4.659445e+02	-3.071478e+01
4.686358e+02	-3.075630e+01
4.713426e+02	-3.080667e+01
4.740650e+02	-3.085511e+01
4.768032e+02	-3.091052e+01
4.795572e+02	-3.095875e+01
4.823271e+02	-3.101262e+01
4.851130e+02	-3.106011e+01
4.879150e+02	-3.110725e+01
4.907332e+02	-3.116228e+01
4.935676e+02	-3.120923e+01
4.964185e+02	-3.126087e+01
4.992858e+02	-3.131201e+01
5.021696e+02	-3.136022e+01
5.050701e+02	-3.140989e+01
5.079874e+02	-3.145716e+01
5.109215e+02	-3.151353e+01
5.138726e+02	-3.155943e+01
5.168407e+02	-3.161233e+01
5.198259e+02	-3.166601e+01
5.228284e+02	-3.171026e+01
5.258482e+02	-3.176416e+01
5.288855e+02	-3.181226e+01
5.319403e+02	-3.186262e+01
5.350128e+02	-3.191065e+01
5.381030e+02	-3.195953e+01
5.412111e+02	-3.200815e+01
5.443371e+02	-3.205806e+01
5.474812e+02	-3.211269e+01
5.506434e+02	-3.216192e+01
5.538239e+02	-3.221802e+01
5.570228e+02	-3.226804e+01
5.602401e+02	-3.231563e+01
5.634760e+02	-3.236522e+01
5.667306e+02	-3.241547e+01
5.700040e+02	-3.246754e+01
5.732964e+02	-3.251643e+01
5.766077e+02	-3.256437e+01
5.799382e+02	-3.261626e+01
5.832879e+02	-3.266904e+01
5.866569e+02	-3.270697e+01
5.900454e+02	-3.275924e+01
5.934535e+02	-3.282272e+01
5.968813e+02	-3.286810e+01
6.003288e+02	-3.292182e+01
6.037963e+02	-3.296750e+01
6.072838e+02	-3.301862e+01
6.107914e+02	-3.306665e+01
6.143194e+02	-3.311902e+01
6.178676e+02	-3.317271e+01
6.214364e+02	-3.322104e+01
6.250258e+02	-3.326455e+01
6.286359e+02	-3.331714e+01
6.322669e+02	-3.336889e+01
6.359189e+02	-3.341801e+01
6.395919e+02	-3.347924e+01
6.432862e+02	-3.351875e+01
6.470017e+02	-3.356256e+01
6.507388e+02	-3.362093e+01
6.544974e+02	-3.368186e+01
6.582778e+02	-3.372296e+01
6.620800e+02	-3.377534e+01
6.659041e+02	-3.382241e+01
6.697504e+02	-3.387998e+01
6.736188e+02	-3.392766e+01
6.775096e+02	-3.397433e+01
6.814229e+02	-3.402574e+01
6.853587e+02	-3.407220e+01
6.893173e+02	-3.412272e+01
6.932988e+02	-3.417788e+01
6.973033e+02	-3.423157e+01
7.013309e+02	-3.427766e+01
