Frequency(Hz)	Magnitude(dB)
1.000000e+01	-2.024807e+00
1.005776e+01	-2.043485e+00
1.011585e+01	-2.062236e+00
1.017428e+01	-2.081346e+00
1.023305e+01	-2.100544e+00
1.029215e+01	-2.119799e+00
1.035160e+01	-2.138949e+00
1.041139e+01	-2.158722e+00
1.047153e+01	-2.178532e+00
1.053201e+01	-2.197957e+00
1.059284e+01	-2.217968e+00
1.065403e+01	-2.237927e+00
1.071556e+01	-2.258293e+00
1.077746e+01	-2.278952e+00
1.083971e+01	-2.299213e+00
1.090232e+01	-2.319604e+00
1.096529e+01	-2.340597e+00
1.102862e+01	-2.361480e+00
1.109232e+01	-2.382495e+00
1.115639e+01	-2.403649e+00
1.122083e+01	-2.425015e+00
1.128564e+01	-2.446635e+00
1.135083e+01	-2.468266e+00
1.141639e+01	-2.489990e+00
1.148233e+01	-2.511727e+00
1.154865e+01	-2.533644e+00
1.161536e+01	-2.555923e+00
1.168245e+01	-2.578215e+00
1.174992e+01	-2.600779e+00
1.181779e+01	-2.623580e+00
1.188605e+01	-2.646229e+00
1.195470e+01	-2.669175e+00
1.202375e+01	-2.692207e+00
1.209320e+01	-2.715281e+00
1.216305e+01	-2.738598e+00
1.223330e+01	-2.762014e+00
1.230396e+01	-2.785509e+00
1.237503e+01	-2.809236e+00
1.244651e+01	-2.833327e+00
1.251840e+01	-2.857546e+00
1.259070e+01	-2.881543e+00
1.266343e+01	-2.905743e+00
1.273657e+01	-2.930482e+00
1.281014e+01	-2.955008e+00
1.288413e+01	-2.979744e+00
1.295855e+01	-3.004657e+00
1.303339e+01	-3.029753e+00
1.310867e+01	-3.054792e+00
1.318439e+01	-3.080124e+00
1.326054e+01	-3.105625e+00
1.333713e+01	-3.131414e+00
1.341417e+01	-3.156979e+00
1.349165e+01	-3.183152e+00
1.356958e+01	-3.209210e+00
1.364795e+01	-3.235521e+00
1.372678e+01	-3.261613e+00
1.380607e+01	-3.288180e+00
1.388581e+01	-3.314839e+00
1.396602e+01	-3.341667e+00
1.404668e+01	-3.368517e+00
1.412782e+01	-3.395249e+00
1.420942e+01	-3.422707e+00
1.429149e+01	-3.450411e+00
1.437404e+01	-3.477658e+00
1.445706e+01	-3.505220e+00
1.454057e+01	-3.532843e+00
1.462455e+01	-3.560946e+00
1.470902e+01	-3.588973e+00
1.479398e+01	-3.617353e+00
1.487943e+01	-3.645668e+00
1.496537e+01	-3.673966e+00
1.505181e+01	-3.702661e+00
1.513875e+01	-3.731341e+00
1.522619e+01	-3.760218e+00
1.531414e+01	-3.789356e+00
1.540259e+01	-3.818495e+00
1.549156e+01	-3.848028e+00
1.558103e+01	-3.877471e+00
1.567103e+01	-3.907098e+00
1.576155e+01	-3.936689e+00
1.585258e+01	-3.966694e+00
1.594415e+01	-3.996744e+00
1.603624e+01	-4.026763e+00
1.612886e+01	-4.057128e+00
1.622202e+01	-4.087411e+00
1.631572e+01	-4.118081e+00
1.640996e+01	-4.149057e+00
1.650474e+01	-4.179934e+00
1.660008e+01	-4.210647e+00
1.669596e+01	-4.241788e+00
1.679239e+01	-4.273092e+00
1.688938e+01	-4.304357e+00
1.698694e+01	-4.335769e+00
1.708505e+01	-4.367585e+00
1.718373e+01	-4.399627e+00
1.728299e+01	-4.430989e+00
1.738281e+01	-4.463157e+00
1.748322e+01	-4.495602e+00
1.758420e+01	-4.528085e+00
1.768576e+01	-4.560183e+00
1.778792e+01	-4.593133e+00
1.789066e+01	-4.625679e+00
1.799399e+01	-4.658463e+00
1.809793e+01	-4.691366e+00
1.820246e+01	-4.724795e+00
1.830760e+01	-4.757681e+00
1.841334e+01	-4.791364e+00
1.851969e+01	-4.824813e+00
1.862666e+01	-4.858125e+00
1.873425e+01	-4.892030e+00
1.884246e+01	-4.925961e+00
1.895129e+01	-4.959831e+00
1.906075e+01	-4.993933e+00
1.917085e+01	-5.028330e+00
1.928158e+01	-5.062676e+00
1.939295e+01	-5.096648e+00
1.950496e+01	-5.131738e+00
1.961762e+01	-5.166706e+00
1.973093e+01	-5.201366e+00
1.984490e+01	-5.236645e+00
1.995952e+01	-5.271345e+00
2.007480e+01	-5.306562e+00
2.019076e+01	-5.342254e+00
2.030738e+01	-5.377298e+00
2.042467e+01	-5.413351e+00
2.054264e+01	-5.448409e+00
2.066130e+01	-5.484571e+00
2.078064e+01	-5.520424e+00
2.090066e+01	-5.556746e+00
2.102139e+01	-5.592839e+00
2.114280e+01	-5.628852e+00
2.126492e+01	-5.665416e+00
2.138775e+01	-5.701990e+00
2.151128e+01	-5.738330e+00
2.163553e+01	-5.775021e+00
2.176050e+01	-5.812188e+00
2.188619e+01	-5.849225e+00
2.201260e+01	-5.885936e+00
2.213974e+01	-5.923179e+00
2.226762e+01	-5.960516e+00
2.239624e+01	-5.998342e+00
2.252560e+01	-6.035387e+00
2.265571e+01	-6.073259e+00
2.278656e+01	-6.110881e+00
2.291818e+01	-6.148539e+00
2.305055e+01	-6.186484e+00
2.318369e+01	-6.224959e+00
2.331760e+01	-6.262603e+00
2.345228e+01	-6.301367e+00
2.358774e+01	-6.339282e+00
2.372398e+01	-6.377650e+00
2.386101e+01	-6.416368e+00
2.399883e+01	-6.455076e+00
2.413745e+01	-6.494181e+00
2.427686e+01	-6.532872e+00
2.441709e+01	-6.571735e+00
2.455812e+01	-6.611026e+00
2.469997e+01	-6.649826e+00
2.484263e+01	-6.689207e+00
2.498612e+01	-6.728670e+00
2.513044e+01	-6.767744e+00
2.527559e+01	-6.807286e+00
2.542158e+01	-6.846741e+00
2.556842e+01	-6.886963e+00
2.571610e+01	-6.926820e+00
2.586463e+01	-6.966291e+00
2.601403e+01	-7.006496e+00
2.616428e+01	-7.047035e+00
2.631541e+01	-7.086861e+00
2.646740e+01	-7.126984e+00
2.662028e+01	-7.167735e+00
2.677404e+01	-7.208113e+00
2.692868e+01	-7.248348e+00
2.708422e+01	-7.290122e+00
2.724066e+01	-7.329636e+00
2.739800e+01	-7.370876e+00
2.755625e+01	-7.411551e+00
2.771541e+01	-7.452575e+00
2.787550e+01	-7.493697e+00
2.803650e+01	-7.534769e+00
2.819844e+01	-7.576236e+00
2.836131e+01	-7.617375e+00
2.852513e+01	-7.658962e+00
2.868989e+01	-7.700276e+00
2.885560e+01	-7.742186e+00
2.902227e+01	-7.783340e+00
2.918990e+01	-7.824827e+00
2.935850e+01	-7.866636e+00
2.952807e+01	-7.909075e+00
2.969863e+01	-7.951557e+00
2.987016e+01	-7.993218e+00
3.004269e+01	-8.035426e+00
3.021622e+01	-8.077463e+00
3.039075e+01	-8.119736e+00
3.056628e+01	-8.162176e+00
3.074283e+01	-8.204016e+00
3.092040e+01	-8.247037e+00
3.109900e+01	-8.289282e+00
3.127862e+01	-8.332438e+00
3.145929e+01	-8.374306e+00
3.164099e+01	-8.417644e+00
3.182375e+01	-8.460457e+00
3.200756e+01	-8.503279e+00
3.219244e+01	-8.546503e+00
3.237838e+01	-8.589814e+00
3.256540e+01	-8.632788e+00
3.275349e+01	-8.676167e+00
3.294268e+01	-8.719192e+00
3.313295e+01	-8.762641e+00
3.332433e+01	-8.805872e+00
3.351681e+01	-8.849080e+00
3.371040e+01	-8.893048e+00
3.390511e+01	-8.936283e+00
3.410094e+01	-8.980408e+00
3.429791e+01	-9.023698e+00
3.449601e+01	-9.067230e+00
3.469526e+01	-9.111602e+00
3.489566e+01	-9.155181e+00
3.509721e+01	-9.199101e+00
3.529993e+01	-9.243323e+00
3.550382e+01	-9.287431e+00
3.570889e+01	-9.331736e+00
3.591515e+01	-9.376277e+00
3.612259e+01	-9.420348e+00
3.633123e+01	-9.464806e+00
3.654108e+01	-9.508644e+00
3.675214e+01	-9.553305e+00
3.696442e+01	-9.597944e+00
3.717792e+01	-9.642192e+00
3.739266e+01	-9.686745e+00
3.760864e+01	-9.731488e+00
3.782587e+01	-9.776310e+00
3.804435e+01	-9.821345e+00
3.826409e+01	-9.865637e+00
3.848510e+01	-9.911073e+00
3.870739e+01	-9.955933e+00
3.893096e+01	-1.000141e+01
3.915583e+01	-1.004574e+01
3.938199e+01	-1.009177e+01
3.960946e+01	-1.013636e+01
3.983824e+01	-1.018092e+01
4.006834e+01	-1.022703e+01
4.029978e+01	-1.027206e+01
4.053255e+01	-1.031759e+01
4.076666e+01	-1.036314e+01
4.100213e+01	-1.040853e+01
4.123896e+01	-1.045387e+01
4.147715e+01	-1.049964e+01
4.171672e+01	-1.054498e+01
4.195767e+01	-1.059039e+01
4.220002e+01	-1.063618e+01
4.244377e+01	-1.068138e+01
4.268892e+01	-1.072815e+01
4.293549e+01	-1.077343e+01
4.318348e+01	-1.081983e+01
4.343291e+01	-1.086555e+01
4.368377e+01	-1.091141e+01
4.393609e+01	-1.095751e+01
4.418986e+01	-1.100345e+01
4.444510e+01	-1.104932e+01
4.470182e+01	-1.109538e+01
4.496001e+01	-1.114175e+01
4.521970e+01	-1.118764e+01
4.548089e+01	-1.123445e+01
4.574358e+01	-1.128038e+01
4.600779e+01	-1.132715e+01
4.627353e+01	-1.137320e+01
4.654081e+01	-1.141992e+01
4.680963e+01	-1.146632e+01
4.708000e+01	-1.151232e+01
4.735193e+01	-1.155877e+01
4.762543e+01	-1.160502e+01
4.790051e+01	-1.165202e+01
4.817719e+01	-1.169843e+01
4.845545e+01	-1.174528e+01
4.873533e+01	-1.179182e+01
4.901682e+01	-1.183881e+01
4.929994e+01	-1.188628e+01
4.958470e+01	-1.193227e+01
4.987110e+01	-1.197857e+01
5.015915e+01	-1.202613e+01
5.044887e+01	-1.207266e+01
5.074026e+01	-1.212029e+01
5.103333e+01	-1.216704e+01
5.132810e+01	-1.221439e+01
5.162457e+01	-1.226184e+01
5.192275e+01	-1.230791e+01
5.222265e+01	-1.235572e+01
5.252429e+01	-1.240178e+01
5.282767e+01	-1.244966e+01
5.313280e+01	-1.249673e+01
5.343969e+01	-1.254357e+01
5.374836e+01	-1.259117e+01
5.405880e+01	-1.263874e+01
5.437105e+01	-1.268576e+01
5.468509e+01	-1.273275e+01
5.500095e+01	-1.278057e+01
5.531863e+01	-1.282819e+01
5.563815e+01	-1.287509e+01
5.595951e+01	-1.292276e+01
5.628273e+01	-1.297121e+01
5.660782e+01	-1.301796e+01
5.693479e+01	-1.306569e+01
5.726364e+01	-1.311302e+01
5.759439e+01	-1.316040e+01
5.792705e+01	-1.320844e+01
5.826164e+01	-1.325517e+01
5.859815e+01	-1.330343e+01
5.893662e+01	-1.335112e+01
5.927703e+01	-1.339825e+01
5.961941e+01	-1.344711e+01
5.996377e+01	-1.349400e+01
6.031012e+01	-1.354166e+01
6.065847e+01	-1.358969e+01
6.100883e+01	-1.363784e+01
6.136121e+01	-1.368575e+01
6.171563e+01	-1.373331e+01
6.207210e+01	-1.378198e+01
6.243063e+01	-1.382983e+01
6.279122e+01	-1.387713e+01
6.315390e+01	-1.392540e+01
6.351868e+01	-1.397319e+01
6.388556e+01	-1.402180e+01
6.425456e+01	-1.406911e+01
6.462569e+01	-1.411773e+01
6.499897e+01	-1.416559e+01
6.537440e+01	-1.421376e+01
6.575200e+01	-1.426220e+01
6.613178e+01	-1.431000e+01
6.651375e+01	-1.435844e+01
6.689793e+01	-1.440640e+01
6.728433e+01	-1.445450e+01
6.767297e+01	-1.450336e+01
6.806384e+01	-1.455125e+01
6.845698e+01	-1.459885e+01
6.885238e+01	-1.464721e+01
6.925007e+01	-1.469584e+01
6.965005e+01	-1.474536e+01
7.005235e+01	-1.479280e+01
7.045697e+01	-1.484037e+01
7.086393e+01	-1.488929e+01
7.127323e+01	-1.493735e+01
7.168490e+01	-1.498615e+01
7.209895e+01	-1.503546e+01
7.251539e+01	-1.508322e+01
7.293424e+01	-1.513182e+01
7.335551e+01	-1.518129e+01
7.377920e+01	-1.522866e+01
7.420535e+01	-1.527783e+01
7.463396e+01	-1.532649e+01
7.506504e+01	-1.537423e+01
7.549861e+01	-1.542281e+01
7.593469e+01	-1.547186e+01
7.637328e+01	-1.551986e+01
7.681441e+01	-1.556789e+01
7.725809e+01	-1.561789e+01
7.770433e+01	-1.566755e+01
7.815315e+01	-1.571535e+01
7.860456e+01	-1.576364e+01
7.905857e+01	-1.581153e+01
7.951521e+01	-1.586167e+01
7.997449e+01	-1.590915e+01
8.043642e+01	-1.595912e+01
8.090102e+01	-1.600732e+01
8.136830e+01	-1.605645e+01
8.183828e+01	-1.610490e+01
8.231097e+01	-1.615350e+01
8.278640e+01	-1.620267e+01
8.326457e+01	-1.625142e+01
8.374550e+01	-1.630012e+01
8.422921e+01	-1.634886e+01
8.471572e+01	-1.639825e+01
8.520503e+01	-1.644632e+01
8.569717e+01	-1.649566e+01
8.619215e+01	-1.654452e+01
8.669000e+01	-1.659395e+01
8.719071e+01	-1.664245e+01
8.769432e+01	-1.669182e+01
8.820084e+01	-1.674062e+01
8.871029e+01	-1.679000e+01
8.922267e+01	-1.683755e+01
8.973802e+01	-1.688719e+01
9.025634e+01	-1.693553e+01
9.077766e+01	-1.698456e+01
9.130199e+01	-1.703474e+01
9.182935e+01	-1.708426e+01
9.235975e+01	-1.713165e+01
9.289321e+01	-1.718253e+01
9.342976e+01	-1.723128e+01
9.396941e+01	-1.728101e+01
9.451217e+01	-1.732913e+01
9.505807e+01	-1.737902e+01
9.560712e+01	-1.742869e+01
9.615934e+01	-1.747691e+01
9.671476e+01	-1.752489e+01
9.727338e+01	-1.757430e+01
9.783522e+01	-1.762411e+01
9.840032e+01	-1.767331e+01
9.896867e+01	-1.772296e+01
9.954031e+01	-1.777024e+01
1.001153e+02	-1.782066e+01
1.006935e+02	-1.786987e+01
1.012751e+02	-1.791877e+01
1.018601e+02	-1.796744e+01
1.024484e+02	-1.801856e+01
1.030402e+02	-1.806658e+01
1.036353e+02	-1.811680e+01
1.042339e+02	-1.816473e+01
1.048360e+02	-1.821436e+01
1.054415e+02	-1.826467e+01
1.060505e+02	-1.831136e+01
1.066631e+02	-1.836340e+01
1.072791e+02	-1.841150e+01
1.078988e+02	-1.845999e+01
1.085220e+02	-1.850978e+01
1.091488e+02	-1.855979e+01
1.097793e+02	-1.860718e+01
1.104133e+02	-1.865888e+01
1.110511e+02	-1.870725e+01
1.116925e+02	-1.875739e+01
1.123376e+02	-1.880723e+01
1.129865e+02	-1.885480e+01
1.136391e+02	-1.890650e+01
1.142955e+02	-1.895421e+01
1.149556e+02	-1.900474e+01
1.156196e+02	-1.905338e+01
1.162874e+02	-1.910258e+01
1.169591e+02	-1.915115e+01
1.176347e+02	-1.920256e+01
1.183141e+02	-1.925077e+01
1.189975e+02	-1.929918e+01
1.196848e+02	-1.934987e+01
1.203761e+02	-1.940093e+01
1.210714e+02	-1.944894e+01
1.217707e+02	-1.949827e+01
1.224740e+02	-1.954832e+01
1.231814e+02	-1.959689e+01
1.238929e+02	-1.964692e+01
1.246085e+02	-1.969684e+01
1.253283e+02	-1.974510e+01
1.260522e+02	-1.979585e+01
1.267802e+02	-1.984382e+01
1.275125e+02	-1.989511e+01
1.282490e+02	-1.994357e+01
1.289898e+02	-1.999509e+01
1.297348e+02	-2.004333e+01
1.304842e+02	-2.009307e+01
1.312378e+02	-2.014064e+01
1.319959e+02	-2.019155e+01
1.327583e+02	-2.024160e+01
1.335251e+02	-2.029141e+01
1.342963e+02	-2.034162e+01
1.350720e+02	-2.038987e+01
1.358522e+02	-2.043876e+01
1.366368e+02	-2.049167e+01
1.374260e+02	-2.053812e+01
1.382198e+02	-2.058881e+01
1.390182e+02	-2.063819e+01
1.398211e+02	-2.068798e+01
1.406287e+02	-2.073743e+01
1.414410e+02	-2.078813e+01
1.422579e+02	-2.083487e+01
1.430796e+02	-2.088871e+01
1.439060e+02	-2.093589e+01
1.447372e+02	-2.098567e+01
1.455732e+02	-2.103360e+01
1.464141e+02	-2.108539e+01
1.472597e+02	-2.113558e+01
1.481103e+02	-2.118369e+01
1.489658e+02	-2.123424e+01
1.498262e+02	-2.128412e+01
1.506916e+02	-2.133213e+01
1.515620e+02	-2.138217e+01
1.524374e+02	-2.143286e+01
1.533179e+02	-2.148076e+01
1.542034e+02	-2.153230e+01
1.550941e+02	-2.157908e+01
1.559899e+02	-2.163107e+01
1.568909e+02	-2.168148e+01
1.577971e+02	-2.172931e+01
1.587085e+02	-2.177914e+01
1.596252e+02	-2.182920e+01
1.605472e+02	-2.188098e+01
1.614745e+02	-2.192819e+01
1.624072e+02	-2.197858e+01
1.633453e+02	-2.203009e+01
1.642887e+02	-2.207881e+01
1.652377e+02	-2.212918e+01
1.661921e+02	-2.217907e+01
1.671520e+02	-2.222853e+01
1.681175e+02	-2.227827e+01
1.690885e+02	-2.232859e+01
1.700651e+02	-2.237840e+01
1.710474e+02	-2.242626e+01
1.720354e+02	-2.247564e+01
1.730291e+02	-2.252640e+01
1.740285e+02	-2.257681e+01
1.750337e+02	-2.262677e+01
1.760446e+02	-2.267656e+01
1.770615e+02	-2.272695e+01
1.780842e+02	-2.277546e+01
1.791128e+02	-2.282403e+01
1.801473e+02	-2.287294e+01
1.811878e+02	-2.292511e+01
1.822344e+02	-2.297310e+01
1.832870e+02	-2.302510e+01
1.843456e+02	-2.307515e+01
1.854104e+02	-2.312412e+01
1.864813e+02	-2.317581e+01
1.875584e+02	-2.322258e+01
1.886418e+02	-2.327344e+01
1.897313e+02	-2.332250e+01
1.908272e+02	-2.337564e+01
1.919294e+02	-2.342508e+01
1.930380e+02	-2.347236e+01
1.941530e+02	-2.352319e+01
1.952744e+02	-2.357229e+01
1.964023e+02	-2.362226e+01
1.975367e+02	-2.367216e+01
1.986777e+02	-2.372136e+01
1.998252e+02	-2.377217e+01
2.009794e+02	-2.381914e+01
2.021403e+02	-2.387142e+01
2.033078e+02	-2.392458e+01
2.044821e+02	-2.397293e+01
2.056632e+02	-2.402312e+01
2.068511e+02	-2.406985e+01
2.080459e+02	-2.412199e+01
2.092475e+02	-2.417236e+01
2.104561e+02	-2.421946e+01
2.116717e+02	-2.426649e+01
2.128943e+02	-2.432114e+01
2.141240e+02	-2.436949e+01
2.153608e+02	-2.441838e+01
2.166047e+02	-2.446815e+01
2.178558e+02	-2.451998e+01
2.191141e+02	-2.456877e+01
2.203797e+02	-2.461956e+01
2.216526e+02	-2.467125e+01
2.229329e+02	-2.471736e+01
2.242205e+02	-2.476895e+01
2.255156e+02	-2.481682e+01
2.268182e+02	-2.486805e+01
2.281283e+02	-2.492128e+01
2.294459e+02	-2.496968e+01
2.307712e+02	-2.501752e+01
2.321041e+02	-2.506767e+01
2.334447e+02	-2.511643e+01
2.347931e+02	-2.516861e+01
2.361493e+02	-2.521730e+01
2.375133e+02	-2.526703e+01
2.388851e+02	-2.531859e+01
2.402649e+02	-2.536934e+01
2.416527e+02	-2.541751e+01
2.430484e+02	-2.546939e+01
2.444523e+02	-2.551790e+01
2.458642e+02	-2.556764e+01
2.472843e+02	-2.561847e+01
2.487126e+02	-2.566889e+01
2.501492e+02	-2.571953e+01
2.515940e+02	-2.576947e+01
2.530472e+02	-2.581867e+01
2.545088e+02	-2.586666e+01
2.559789e+02	-2.591651e+01
2.574574e+02	-2.596520e+01
2.589444e+02	-2.601699e+01
2.604401e+02	-2.606746e+01
2.619444e+02	-2.611981e+01
2.634574e+02	-2.616751e+01
2.649791e+02	-2.621740e+01
2.665096e+02	-2.626487e+01
2.680489e+02	-2.631815e+01
2.695972e+02	-2.636781e+01
2.711544e+02	-2.641634e+01
2.727205e+02	-2.646642e+01
2.742958e+02	-2.651712e+01
2.758801e+02	-2.656499e+01
2.774736e+02	-2.661434e+01
2.790762e+02	-2.666618e+01
2.806882e+02	-2.671702e+01
2.823094e+02	-2.676840e+01
2.839400e+02	-2.681826e+01
2.855800e+02	-2.686746e+01
2.872295e+02	-2.691883e+01
2.888886e+02	-2.696633e+01
2.905572e+02	-2.701322e+01
2.922354e+02	-2.706723e+01
2.939234e+02	-2.711764e+01
2.956211e+02	-2.716922e+01
2.973286e+02	-2.721871e+01
2.990459e+02	-2.726762e+01
3.007732e+02	-2.731918e+01
3.025104e+02	-2.736883e+01
3.042577e+02	-2.741739e+01
3.060151e+02	-2.746700e+01
3.077826e+02	-2.751548e+01
3.095604e+02	-2.756769e+01
3.113484e+02	-2.761649e+01
3.131467e+02	-2.766686e+01
3.149554e+02	-2.771932e+01
3.167746e+02	-2.776574e+01
3.186043e+02	-2.781910e+01
3.204445e+02	-2.786538e+01
3.222954e+02	-2.791876e+01
3.241570e+02	-2.796129e+01
3.260293e+02	-2.801747e+01
3.279124e+02	-2.806586e+01
3.298064e+02	-2.811953e+01
3.317114e+02	-2.816560e+01
3.336273e+02	-2.821639e+01
3.355544e+02	-2.826714e+01
3.374925e+02	-2.831571e+01
3.394418e+02	-2.836640e+01
3.414024e+02	-2.841885e+01
3.433744e+02	-2.846433e+01
3.453577e+02	-2.851466e+01
3.473525e+02	-2.856967e+01
3.493588e+02	-2.861913e+01
3.513766e+02	-2.866671e+01
3.534062e+02	-2.871938e+01
3.554474e+02	-2.876820e+01
3.575005e+02	-2.881968e+01
3.595654e+02	-2.886926e+01
3.616422e+02	-2.891957e+01
3.637311e+02	-2.896927e+01
3.658320e+02	-2.901801e+01
3.679450e+02	-2.906802e+01
3.700702e+02	-2.912005e+01
3.722077e+02	-2.916454e+01
3.743576e+02	-2.922022e+01
3.765199e+02	-2.926571e+01
3.786946e+02	-2.931402e+01
3.808820e+02	-2.936697e+01
3.830819e+02	-2.941921e+01
3.852946e+02	-2.946862e+01
3.875200e+02	-2.951556e+01
3.897583e+02	-2.956625e+01
3.920096e+02	-2.962184e+01
3.942738e+02	-2.967279e+01
3.965511e+02	-2.971968e+01
3.988416e+02	-2.977294e+01
4.011452e+02	-2.982108e+01
4.034622e+02	-2.986314e+01
4.057926e+02	-2.991946e+01
4.081365e+02	-2.996925e+01
4.104938e+02	-3.001666e+01
4.128648e+02	-3.007303e+01
4.152495e+02	-3.012037e+01
4.176480e+02	-3.016957e+01
4.200603e+02	-3.022334e+01
4.224866e+02	-3.026992e+01
4.249268e+02	-3.032025e+01
4.273812e+02	-3.036829e+01
4.298497e+02	-3.042229e+01
4.323325e+02	-3.047045e+01
4.348297e+02	-3.051763e+01
4.373412e+02	-3.057788e+01
4.398673e+02	-3.062621e+01
4.424079e+02	-3.067497e+01
4.449633e+02	-3.072598e+01
4.475334e+02	-3.077090e+01
4.501183e+02	-3.082496e+01
4.527182e+02	-3.087365e+01
4.553330e+02	-3.092553e+01
4.579630e+02	-3.096849e+01
4.606082e+02	-3.102139e+01
4.632687e+02	-3.107087e+01
4.659445e+02	-3.112299e+01
4.686358e+02	-3.117525e+01
4.713426e+02	-3.122411e+01
4.740650e+02	-3.126913e+01
4.768032e+02	-3.132631e+01
4.795572e+02	-3.137509e+01
4.823271e+02	-3.143001e+01
4.851130e+02	-3.147045e+01
4.879150e+02	-3.152576e+01
4.907332e+02	-3.157456e+01
4.935676e+02	-3.162296e+01
4.964185e+02	-3.167795e+01
4.992858e+02	-3.172628e+01
5.021696e+02	-3.177779e+01
5.050701e+02	-3.183424e+01
5.079874e+02	-3.187521e+01
5.109215e+02	-3.192214e+01
5.138726e+02	-3.198435e+01
5.168407e+02	-3.202737e+01
5.198259e+02	-3.208269e+01
5.228284e+02	-3.212518e+01
5.258482e+02	-3.217517e+01
5.288855e+02	-3.222792e+01
5.319403e+02	-3.227646e+01
5.350128e+02	-3.232660e+01
5.381030e+02	-3.238299e+01
5.412111e+02	-3.242896e+01
5.443371e+02	-3.248194e+01
5.474812e+02	-3.252987e+01
5.506434e+02	-3.257938e+01
5.538239e+02	-3.262649e+01
5.570228e+02	-3.268602e+01
5.602401e+02	-3.272314e+01
5.634760e+02	-3.277778e+01
5.667306e+02	-3.282665e+01
5.700040e+02	-3.288436e+01
5.732964e+02	-3.293233e+01
5.766077e+02	-3.297986e+01
5.799382e+02	-3.302741e+01
5.832879e+02	-3.308007e+01
5.866569e+02	-3.312795e+01
5.900454e+02	-3.318458e+01
5.934535e+02	-3.322453e+01
5.968813e+02	-3.328033e+01
6.003288e+02	-3.333661e+01
6.037963e+02	-3.338069e+01
6.072838e+02	-3.343300e+01
6.107914e+02	-3.348135e+01
6.143194e+02	-3.353826e+01
6.178676e+02	-3.358931e+01
6.214364e+02	-3.363729e+01
6.250258e+02	-3.368848e+01
6.286359e+02	-3.373725e+01
6.322669e+02	-3.378202e+01
6.359189e+02	-3.384220e+01
6.395919e+02	-3.388233e+01
6.432862e+02	-3.394213e+01
6.470017e+02	-3.398756e+01
6.507388e+02	-3.403632e+01
6.544974e+02	-3.408728e+01
6.582778e+02	-3.413073e+01
6.620800e+02	-3.418940e+01
6.659041e+02	-3.423925e+01
6.697504e+02	-3.428882e+01
6.736188e+02	-3.434401e+01
6.775096e+02	-3.438663e+01
6.814229e+02	-3.443913e+01
6.853587e+02	-3.448702e+01
6.893173e+02	-3.454611e+01
6.932988e+02	-3.459114e+01
6.973033e+02	-3.464977e+01
7.013309e+02	-3.468733e+01
