Frequency(Hz)	Magnitude(dB)
1.000000e+01	-2.138484e+00
1.005776e+01	-2.158108e+00
1.011585e+01	-2.177818e+00
1.017428e+01	-2.197289e+00
1.023305e+01	-2.217184e+00
1.029215e+01	-2.237452e+00
1.035160e+01	-2.257753e+00
1.041139e+01	-2.277995e+00
1.047153e+01	-2.298493e+00
1.053201e+01	-2.319061e+00
1.059284e+01	-2.340026e+00
1.065403e+01	-2.360890e+00
1.071556e+01	-2.382014e+00
1.077746e+01	-2.403007e+00
1.083971e+01	-2.424315e+00
1.090232e+01	-2.445864e+00
1.096529e+01	-2.467478e+00
1.102862e+01	-2.489257e+00
1.109232e+01	-2.511120e+00
1.115639e+01	-2.533111e+00
1.122083e+01	-2.555384e+00
1.128564e+01	-2.577712e+00
1.135083e+01	-2.600054e+00
1.141639e+01	-2.622669e+00
1.148233e+01	-2.645383e+00
1.154865e+01	-2.668339e+00
1.161536e+01	-2.691314e+00
1.168245e+01	-2.714518e+00
1.174992e+01	-2.737877e+00
1.181779e+01	-2.761480e+00
1.188605e+01	-2.784900e+00
1.195470e+01	-2.808783e+00
1.202375e+01	-2.832663e+00
1.209320e+01	-2.856484e+00
1.216305e+01	-2.880955e+00
1.223330e+01	-2.905171e+00
1.230396e+01	-2.929578e+00
1.237503e+01	-2.954150e+00
1.244651e+01	-2.978785e+00
1.251840e+01	-3.003840e+00
1.259070e+01	-3.028987e+00
1.266343e+01	-3.054180e+00
1.273657e+01	-3.079471e+00
1.281014e+01	-3.104792e+00
1.288413e+01	-3.130215e+00
1.295855e+01	-3.156095e+00
1.303339e+01	-3.181915e+00
1.310867e+01	-3.208324e+00
1.318439e+01	-3.234352e+00
1.326054e+01	-3.260811e+00
1.333713e+01	-3.287237e+00
1.341417e+01	-3.313807e+00
1.349165e+01	-3.340837e+00
1.356958e+01	-3.367551e+00
1.364795e+01	-3.394790e+00
1.372678e+01	-3.422051e+00
1.380607e+01	-3.449493e+00
1.388581e+01	-3.476790e+00
1.396602e+01	-3.504139e+00
1.404668e+01	-3.532392e+00
1.412782e+01	-3.559940e+00
1.420942e+01	-3.588224e+00
1.429149e+01	-3.616407e+00
1.437404e+01	-3.644680e+00
1.445706e+01	-3.673125e+00
1.454057e+01	-3.701550e+00
1.462455e+01	-3.730611e+00
1.470902e+01	-3.759582e+00
1.479398e+01	-3.788572e+00
1.487943e+01	-3.817712e+00
1.496537e+01	-3.846798e+00
1.505181e+01	-3.876431e+00
1.513875e+01	-3.906013e+00
1.522619e+01	-3.935676e+00
1.531414e+01	-3.965681e+00
1.540259e+01	-3.995841e+00
1.549156e+01	-4.025972e+00
1.558103e+01	-4.056278e+00
1.567103e+01	-4.086503e+00
1.576155e+01	-4.117221e+00
1.585258e+01	-4.147989e+00
1.594415e+01	-4.178320e+00
1.603624e+01	-4.209488e+00
1.612886e+01	-4.240931e+00
1.622202e+01	-4.272072e+00
1.631572e+01	-4.303575e+00
1.640996e+01	-4.335110e+00
1.650474e+01	-4.366743e+00
1.660008e+01	-4.398192e+00
1.669596e+01	-4.430367e+00
1.679239e+01	-4.462557e+00
1.688938e+01	-4.494615e+00
1.698694e+01	-4.526954e+00
1.708505e+01	-4.559293e+00
1.718373e+01	-4.592303e+00
1.728299e+01	-4.624668e+00
1.738281e+01	-4.657664e+00
1.748322e+01	-4.690716e+00
1.758420e+01	-4.723478e+00
1.768576e+01	-4.757025e+00
1.778792e+01	-4.790208e+00
1.789066e+01	-4.823459e+00
1.799399e+01	-4.857256e+00
1.809793e+01	-4.891226e+00
1.820246e+01	-4.924886e+00
1.830760e+01	-4.958990e+00
1.841334e+01	-4.992938e+00
1.851969e+01	-5.027377e+00
1.862666e+01	-5.061618e+00
1.873425e+01	-5.096088e+00
1.884246e+01	-5.131014e+00
1.895129e+01	-5.165439e+00
1.906075e+01	-5.200255e+00
1.917085e+01	-5.235433e+00
1.928158e+01	-5.270683e+00
1.939295e+01	-5.305700e+00
1.950496e+01	-5.340830e+00
1.961762e+01	-5.376363e+00
1.973093e+01	-5.411736e+00
1.984490e+01	-5.447544e+00
1.995952e+01	-5.483236e+00
2.007480e+01	-5.519460e+00
2.019076e+01	-5.555916e+00
2.030738e+01	-5.591591e+00
2.042467e+01	-5.627893e+00
2.054264e+01	-5.664336e+00
2.066130e+01	-5.700927e+00
2.078064e+01	-5.737600e+00
2.090066e+01	-5.774129e+00
2.102139e+01	-5.810808e+00
2.114280e+01	-5.847830e+00
2.126492e+01	-5.884776e+00
2.138775e+01	-5.922308e+00
2.151128e+01	-5.959736e+00
2.163553e+01	-5.997008e+00
2.176050e+01	-6.034284e+00
2.188619e+01	-6.071859e+00
2.201260e+01	-6.109646e+00
2.213974e+01	-6.147576e+00
2.226762e+01	-6.185288e+00
2.239624e+01	-6.223539e+00
2.252560e+01	-6.261977e+00
2.265571e+01	-6.299885e+00
2.278656e+01	-6.338350e+00
2.291818e+01	-6.376379e+00
2.305055e+01	-6.414976e+00
2.318369e+01	-6.454056e+00
2.331760e+01	-6.492795e+00
2.345228e+01	-6.531312e+00
2.358774e+01	-6.570604e+00
2.372398e+01	-6.609610e+00
2.386101e+01	-6.648854e+00
2.399883e+01	-6.688040e+00
2.413745e+01	-6.727484e+00
2.427686e+01	-6.766713e+00
2.441709e+01	-6.806588e+00
2.455812e+01	-6.845993e+00
2.469997e+01	-6.885565e+00
2.484263e+01	-6.925265e+00
2.498612e+01	-6.965490e+00
2.513044e+01	-7.005456e+00
2.527559e+01	-7.045451e+00
2.542158e+01	-7.085654e+00
2.556842e+01	-7.126090e+00
2.571610e+01	-7.166226e+00
2.586463e+01	-7.207210e+00
2.601403e+01	-7.247301e+00
2.616428e+01	-7.288095e+00
2.631541e+01	-7.328371e+00
2.646740e+01	-7.369667e+00
2.662028e+01	-7.410786e+00
2.677404e+01	-7.451690e+00
2.692868e+01	-7.492892e+00
2.708422e+01	-7.533701e+00
2.724066e+01	-7.574853e+00
2.739800e+01	-7.616313e+00
2.755625e+01	-7.657661e+00
2.771541e+01	-7.698890e+00
2.787550e+01	-7.740510e+00
2.803650e+01	-7.782250e+00
2.819844e+01	-7.824122e+00
2.836131e+01	-7.865899e+00
2.852513e+01	-7.907813e+00
2.868989e+01	-7.949610e+00
2.885560e+01	-7.991741e+00
2.902227e+01	-8.033612e+00
2.918990e+01	-8.076075e+00
2.935850e+01	-8.118291e+00
2.952807e+01	-8.160784e+00
2.969863e+01	-8.203035e+00
2.987016e+01	-8.245505e+00
3.004269e+01	-8.288352e+00
3.021622e+01	-8.331186e+00
3.039075e+01	-8.373595e+00
3.056628e+01	-8.416319e+00
3.074283e+01	-8.458923e+00
3.092040e+01	-8.502217e+00
3.109900e+01	-8.545116e+00
3.127862e+01	-8.588469e+00
3.145929e+01	-8.631480e+00
3.164099e+01	-8.674442e+00
3.182375e+01	-8.717730e+00
3.200756e+01	-8.761148e+00
3.219244e+01	-8.804529e+00
3.237838e+01	-8.848085e+00
3.256540e+01	-8.891262e+00
3.275349e+01	-8.935013e+00
3.294268e+01	-8.978890e+00
3.313295e+01	-9.022493e+00
3.332433e+01	-9.065927e+00
3.351681e+01	-9.110364e+00
3.371040e+01	-9.153963e+00
3.390511e+01	-9.198200e+00
3.410094e+01	-9.241894e+00
3.429791e+01	-9.286031e+00
3.449601e+01	-9.330980e+00
3.469526e+01	-9.374421e+00
3.489566e+01	-9.418543e+00
3.509721e+01	-9.463283e+00
3.529993e+01	-9.507758e+00
3.550382e+01	-9.551980e+00
3.570889e+01	-9.596476e+00
3.591515e+01	-9.641030e+00
3.612259e+01	-9.685711e+00
3.633123e+01	-9.730148e+00
3.654108e+01	-9.775282e+00
3.675214e+01	-9.819739e+00
3.696442e+01	-9.864371e+00
3.717792e+01	-9.909881e+00
3.739266e+01	-9.954943e+00
3.760864e+01	-9.999640e+00
3.782587e+01	-1.004478e+01
3.804435e+01	-1.008979e+01
3.826409e+01	-1.013510e+01
3.848510e+01	-1.017994e+01
3.870739e+01	-1.022499e+01
3.893096e+01	-1.027083e+01
3.915583e+01	-1.031640e+01
3.938199e+01	-1.036173e+01
3.960946e+01	-1.040637e+01
3.983824e+01	-1.045230e+01
4.006834e+01	-1.049741e+01
4.029978e+01	-1.054341e+01
4.053255e+01	-1.058890e+01
4.076666e+01	-1.063508e+01
4.100213e+01	-1.068005e+01
4.123896e+01	-1.072641e+01
4.147715e+01	-1.077213e+01
4.171672e+01	-1.081755e+01
4.195767e+01	-1.086399e+01
4.220002e+01	-1.090985e+01
4.244377e+01	-1.095596e+01
4.268892e+01	-1.100230e+01
4.293549e+01	-1.104766e+01
4.318348e+01	-1.109417e+01
4.343291e+01	-1.114004e+01
4.368377e+01	-1.118680e+01
4.393609e+01	-1.123247e+01
4.418986e+01	-1.127876e+01
4.444510e+01	-1.132500e+01
4.470182e+01	-1.137163e+01
4.496001e+01	-1.141771e+01
4.521970e+01	-1.146479e+01
4.548089e+01	-1.151118e+01
4.574358e+01	-1.155764e+01
4.600779e+01	-1.160414e+01
4.627353e+01	-1.165027e+01
4.654081e+01	-1.169759e+01
4.680963e+01	-1.174388e+01
4.708000e+01	-1.178994e+01
4.735193e+01	-1.183712e+01
4.762543e+01	-1.188444e+01
4.790051e+01	-1.193077e+01
4.817719e+01	-1.197758e+01
4.845545e+01	-1.202403e+01
4.873533e+01	-1.207144e+01
4.901682e+01	-1.211847e+01
4.929994e+01	-1.216578e+01
4.958470e+01	-1.221195e+01
4.987110e+01	-1.225939e+01
5.015915e+01	-1.230616e+01
5.044887e+01	-1.235361e+01
5.074026e+01	-1.240043e+01
5.103333e+01	-1.244762e+01
5.132810e+01	-1.249517e+01
5.162457e+01	-1.254269e+01
5.192275e+01	-1.258954e+01
5.222265e+01	-1.263709e+01
5.252429e+01	-1.268356e+01
5.282767e+01	-1.273214e+01
5.313280e+01	-1.277877e+01
5.343969e+01	-1.282658e+01
5.374836e+01	-1.287354e+01
5.405880e+01	-1.292074e+01
5.437105e+01	-1.296854e+01
5.468509e+01	-1.301611e+01
5.500095e+01	-1.306348e+01
5.531863e+01	-1.311151e+01
5.563815e+01	-1.315962e+01
5.595951e+01	-1.320654e+01
5.628273e+01	-1.325376e+01
5.660782e+01	-1.330197e+01
5.693479e+01	-1.334897e+01
5.726364e+01	-1.339689e+01
5.759439e+01	-1.344509e+01
5.792705e+01	-1.349326e+01
5.826164e+01	-1.353990e+01
5.859815e+01	-1.358841e+01
5.893662e+01	-1.363669e+01
5.927703e+01	-1.368388e+01
5.961941e+01	-1.373256e+01
5.996377e+01	-1.377927e+01
6.031012e+01	-1.382858e+01
6.065847e+01	-1.387586e+01
6.100883e+01	-1.392464e+01
6.136121e+01	-1.397094e+01
6.171563e+01	-1.401927e+01
6.207210e+01	-1.406887e+01
6.243063e+01	-1.411600e+01
6.279122e+01	-1.416405e+01
6.315390e+01	-1.421273e+01
6.351868e+01	-1.426060e+01
6.388556e+01	-1.430869e+01
6.425456e+01	-1.435637e+01
6.462569e+01	-1.440405e+01
6.499897e+01	-1.445329e+01
6.537440e+01	-1.450079e+01
6.575200e+01	-1.455039e+01
6.613178e+01	-1.459768e+01
6.651375e+01	-1.464603e+01
6.689793e+01	-1.469415e+01
6.728433e+01	-1.474265e+01
6.767297e+01	-1.479231e+01
6.806384e+01	-1.483984e+01
6.845698e+01	-1.488850e+01
6.885238e+01	-1.493690e+01
6.925007e+01	-1.498497e+01
6.965005e+01	-1.503350e+01
7.005235e+01	-1.508203e+01
7.045697e+01	-1.513073e+01
7.086393e+01	-1.517858e+01
7.127323e+01	-1.522745e+01
7.168490e+01	-1.527621e+01
7.209895e+01	-1.532406e+01
7.251539e+01	-1.537324e+01
7.293424e+01	-1.542244e+01
7.335551e+01	-1.547085e+01
7.377920e+01	-1.551875e+01
7.420535e+01	-1.556851e+01
7.463396e+01	-1.561609e+01
7.506504e+01	-1.566573e+01
7.549861e+01	-1.571308e+01
7.593469e+01	-1.576257e+01
7.637328e+01	-1.581137e+01
7.681441e+01	-1.585986e+01
7.725809e+01	-1.590846e+01
7.770433e+01	-1.595634e+01
7.815315e+01	-1.600531e+01
7.860456e+01	-1.605452e+01
7.905857e+01	-1.610282e+01
7.951521e+01	-1.615236e+01
7.997449e+01	-1.620163e+01
8.043642e+01	-1.624965e+01
8.090102e+01	-1.629920e+01
8.136830e+01	-1.634850e+01
8.183828e+01	-1.639509e+01
8.231097e+01	-1.644559e+01
8.278640e+01	-1.649524e+01
8.326457e+01	-1.654172e+01
8.374550e+01	-1.659203e+01
8.422921e+01	-1.664034e+01
8.471572e+01	-1.668991e+01
8.520503e+01	-1.673888e+01
8.569717e+01	-1.678872e+01
8.619215e+01	-1.683579e+01
8.669000e+01	-1.688543e+01
8.719071e+01	-1.693506e+01
8.769432e+01	-1.698422e+01
8.820084e+01	-1.703346e+01
8.871029e+01	-1.708266e+01
8.922267e+01	-1.713030e+01
8.973802e+01	-1.718048e+01
9.025634e+01	-1.723077e+01
9.077766e+01	-1.727760e+01
9.130199e+01	-1.732764e+01
9.182935e+01	-1.737601e+01
9.235975e+01	-1.742570e+01
9.289321e+01	-1.747354e+01
9.342976e+01	-1.752310e+01
9.396941e+01	-1.757355e+01
9.451217e+01	-1.762261e+01
9.505807e+01	-1.767043e+01
9.560712e+01	-1.772061e+01
9.615934e+01	-1.776862e+01
9.671476e+01	-1.781930e+01
9.727338e+01	-1.786812e+01
9.783522e+01	-1.791740e+01
9.840032e+01	-1.796634e+01
9.896867e+01	-1.801630e+01
9.954031e+01	-1.806510e+01
1.001153e+02	-1.811425e+01
1.006935e+02	-1.816418e+01
1.012751e+02	-1.821308e+01
1.018601e+02	-1.826162e+01
1.024484e+02	-1.831256e+01
1.030402e+02	-1.836047e+01
1.036353e+02	-1.840950e+01
1.042339e+02	-1.845883e+01
1.048360e+02	-1.850847e+01
1.054415e+02	-1.855878e+01
1.060505e+02	-1.860742e+01
1.066631e+02	-1.865642e+01
1.072791e+02	-1.870556e+01
1.078988e+02	-1.875586e+01
1.085220e+02	-1.880446e+01
1.091488e+02	-1.885511e+01
1.097793e+02	-1.890466e+01
1.104133e+02	-1.895197e+01
1.110511e+02	-1.900279e+01
1.116925e+02	-1.905139e+01
1.123376e+02	-1.910204e+01
1.129865e+02	-1.915070e+01
1.136391e+02	-1.920008e+01
1.142955e+02	-1.925130e+01
1.149556e+02	-1.929863e+01
1.156196e+02	-1.934948e+01
1.162874e+02	-1.939855e+01
1.169591e+02	-1.944747e+01
1.176347e+02	-1.949624e+01
1.183141e+02	-1.954584e+01
1.189975e+02	-1.959547e+01
1.196848e+02	-1.964656e+01
1.203761e+02	-1.969375e+01
1.210714e+02	-1.974459e+01
1.217707e+02	-1.979283e+01
1.224740e+02	-1.984268e+01
1.231814e+02	-1.989166e+01
1.238929e+02	-1.994183e+01
1.246085e+02	-1.999204e+01
1.253283e+02	-2.004120e+01
1.260522e+02	-2.009107e+01
1.267802e+02	-2.014068e+01
1.275125e+02	-2.019140e+01
1.282490e+02	-2.024051e+01
1.289898e+02	-2.028722e+01
1.297348e+02	-2.033701e+01
1.304842e+02	-2.038712e+01
1.312378e+02	-2.043770e+01
1.319959e+02	-2.048731e+01
1.327583e+02	-2.053717e+01
1.335251e+02	-2.058662e+01
1.342963e+02	-2.063695e+01
1.350720e+02	-2.068568e+01
1.358522e+02	-2.073420e+01
1.366368e+02	-2.078566e+01
1.374260e+02	-2.083433e+01
1.382198e+02	-2.088317e+01
1.390182e+02	-2.093413e+01
1.398211e+02	-2.098359e+01
1.406287e+02	-2.103304e+01
1.414410e+02	-2.108138e+01
1.422579e+02	-2.113176e+01
1.430796e+02	-2.118221e+01
1.439060e+02	-2.123120e+01
1.447372e+02	-2.128182e+01
1.455732e+02	-2.133182e+01
1.464141e+02	-2.138289e+01
1.472597e+02	-2.142950e+01
1.481103e+02	-2.147974e+01
1.489658e+02	-2.153101e+01
1.498262e+02	-2.157920e+01
1.506916e+02	-2.162900e+01
1.515620e+02	-2.167910e+01
1.524374e+02	-2.172829e+01
1.533179e+02	-2.177837e+01
1.542034e+02	-2.182950e+01
1.550941e+02	-2.187692e+01
1.559899e+02	-2.192880e+01
1.568909e+02	-2.197599e+01
1.577971e+02	-2.202526e+01
1.587085e+02	-2.207610e+01
1.596252e+02	-2.212547e+01
1.605472e+02	-2.217762e+01
1.614745e+02	-2.222687e+01
1.624072e+02	-2.227552e+01
1.633453e+02	-2.232379e+01
1.642887e+02	-2.237479e+01
1.652377e+02	-2.242535e+01
1.661921e+02	-2.247593e+01
1.671520e+02	-2.252330e+01
1.681175e+02	-2.257500e+01
1.690885e+02	-2.262316e+01
1.700651e+02	-2.267459e+01
1.710474e+02	-2.272457e+01
1.720354e+02	-2.277380e+01
1.730291e+02	-2.282281e+01
1.740285e+02	-2.287258e+01
1.750337e+02	-2.292264e+01
1.760446e+02	-2.297003e+01
1.770615e+02	-2.302138e+01
1.780842e+02	-2.307060e+01
1.791128e+02	-2.312402e+01
1.801473e+02	-2.317139e+01
1.811878e+02	-2.322201e+01
1.822344e+02	-2.327202e+01
1.832870e+02	-2.332187e+01
1.843456e+02	-2.337029e+01
1.854104e+02	-2.342221e+01
1.864813e+02	-2.347055e+01
1.875584e+02	-2.352096e+01
1.886418e+02	-2.356903e+01
1.897313e+02	-2.362296e+01
1.908272e+02	-2.367134e+01
1.919294e+02	-2.371875e+01
1.930380e+02	-2.377028e+01
1.941530e+02	-2.381772e+01
1.952744e+02	-2.387041e+01
1.964023e+02	-2.391737e+01
1.975367e+02	-2.397118e+01
1.986777e+02	-2.401586e+01
1.998252e+02	-2.406965e+01
2.009794e+02	-2.411685e+01
2.021403e+02	-2.416878e+01
2.033078e+02	-2.421693e+01
2.044821e+02	-2.426726e+01
2.056632e+02	-2.431829e+01
2.068511e+02	-2.436791e+01
2.080459e+02	-2.441920e+01
2.092475e+02	-2.446816e+01
2.104561e+02	-2.451918e+01
2.116717e+02	-2.456760e+01
2.128943e+02	-2.461753e+01
2.141240e+02	-2.466883e+01
2.153608e+02	-2.471647e+01
2.166047e+02	-2.476507e+01
2.178558e+02	-2.481789e+01
2.191141e+02	-2.486294e+01
2.203797e+02	-2.491592e+01
2.216526e+02	-2.496363e+01
2.229329e+02	-2.501832e+01
2.242205e+02	-2.506408e+01
2.255156e+02	-2.511568e+01
2.268182e+02	-2.516700e+01
2.281283e+02	-2.521634e+01
2.294459e+02	-2.526688e+01
2.307712e+02	-2.531671e+01
2.321041e+02	-2.536451e+01
2.334447e+02	-2.541608e+01
2.347931e+02	-2.546494e+01
2.361493e+02	-2.551464e+01
2.375133e+02	-2.556552e+01
2.388851e+02	-2.561343e+01
2.402649e+02	-2.566294e+01
2.416527e+02	-2.571327e+01
2.430484e+02	-2.576664e+01
2.444523e+02	-2.581752e+01
2.458642e+02	-2.586425e+01
2.472843e+02	-2.591713e+01
2.487126e+02	-2.596584e+01
2.501492e+02	-2.601758e+01
2.515940e+02	-2.606489e+01
2.530472e+02	-2.611552e+01
2.545088e+02	-2.616362e+01
2.559789e+02	-2.621746e+01
2.574574e+02	-2.626366e+01
2.589444e+02	-2.631503e+01
2.604401e+02	-2.636561e+01
2.619444e+02	-2.641325e+01
2.634574e+02	-2.646680e+01
2.649791e+02	-2.651450e+01
2.665096e+02	-2.656046e+01
2.680489e+02	-2.661217e+01
2.695972e+02	-2.666493e+01
2.711544e+02	-2.671449e+01
2.727205e+02	-2.676718e+01
2.742958e+02	-2.681434e+01
2.758801e+02	-2.686320e+01
2.774736e+02	-2.691783e+01
2.790762e+02	-2.696334e+01
2.806882e+02	-2.701406e+01
2.823094e+02	-2.706765e+01
2.839400e+02	-2.711574e+01
2.855800e+02	-2.716444e+01
2.872295e+02	-2.721525e+01
2.888886e+02	-2.726567e+01
2.905572e+02	-2.731382e+01
2.922354e+02	-2.736409e+01
2.939234e+02	-2.741446e+01
2.956211e+02	-2.746561e+01
2.973286e+02	-2.751634e+01
2.990459e+02	-2.756048e+01
3.007732e+02	-2.761292e+01
3.025104e+02	-2.766406e+01
3.042577e+02	-2.771389e+01
3.060151e+02	-2.776505e+01
3.077826e+02	-2.781440e+01
3.095604e+02	-2.786524e+01
3.113484e+02	-2.791403e+01
3.131467e+02	-2.796299e+01
3.149554e+02	-2.801181e+01
3.167746e+02	-2.806615e+01
3.186043e+02	-2.811489e+01
3.204445e+02	-2.816564e+01
3.222954e+02	-2.821022e+01
3.241570e+02	-2.826543e+01
3.260293e+02	-2.831551e+01
3.279124e+02	-2.836355e+01
3.298064e+02	-2.841469e+01
3.317114e+02	-2.846194e+01
3.336273e+02	-2.851134e+01
3.355544e+02	-2.856800e+01
3.374925e+02	-2.861099e+01
3.394418e+02	-2.866225e+01
3.414024e+02	-2.872029e+01
3.433744e+02	-2.876725e+01
3.453577e+02	-2.881449e+01
3.473525e+02	-2.886695e+01
3.493588e+02	-2.891504e+01
3.513766e+02	-2.896557e+01
3.534062e+02	-2.900982e+01
3.554474e+02	-2.906479e+01
3.575005e+02	-2.911307e+01
3.595654e+02	-2.916487e+01
3.616422e+02	-2.921532e+01
3.637311e+02	-2.926533e+01
3.658320e+02	-2.931478e+01
3.679450e+02	-2.936567e+01
3.700702e+02	-2.941395e+01
3.722077e+02	-2.946512e+01
3.743576e+02	-2.951747e+01
3.765199e+02	-2.956982e+01
3.786946e+02	-2.962045e+01
3.808820e+02	-2.966479e+01
3.830819e+02	-2.971334e+01
3.852946e+02	-2.976644e+01
3.875200e+02	-2.981402e+01
3.897583e+02	-2.986497e+01
3.920096e+02	-2.991406e+01
3.942738e+02	-2.996647e+01
3.965511e+02	-3.001873e+01
3.988416e+02	-3.006644e+01
4.011452e+02	-3.011309e+01
4.034622e+02	-3.017064e+01
4.057926e+02	-3.021330e+01
4.081365e+02	-3.026719e+01
4.104938e+02	-3.031875e+01
4.128648e+02	-3.036304e+01
4.152495e+02	-3.041492e+01
4.176480e+02	-3.046310e+01
4.200603e+02	-3.051790e+01
4.224866e+02	-3.056749e+01
4.249268e+02	-3.061526e+01
4.273812e+02	-3.066870e+01
4.298497e+02	-3.071623e+01
4.323325e+02	-3.076605e+01
4.348297e+02	-3.082170e+01
4.373412e+02	-3.086016e+01
4.398673e+02	-3.091532e+01
4.424079e+02	-3.096939e+01
4.449633e+02	-3.101556e+01
4.475334e+02	-3.106975e+01
4.501183e+02	-3.111804e+01
4.527182e+02	-3.116780e+01
4.553330e+02	-3.122064e+01
4.579630e+02	-3.126708e+01
4.606082e+02	-3.131600e+01
4.632687e+02	-3.136622e+01
4.659445e+02	-3.141813e+01
4.686358e+02	-3.146931e+01
4.713426e+02	-3.152785e+01
4.740650e+02	-3.156758e+01
4.768032e+02	-3.161954e+01
4.795572e+02	-3.167098e+01
4.823271e+02	-3.171949e+01
4.851130e+02	-3.177153e+01
4.879150e+02	-3.182322e+01
4.907332e+02	-3.187091e+01
4.935676e+02	-3.191432e+01
4.964185e+02	-3.197180e+01
4.992858e+02	-3.201758e+01
5.021696e+02	-3.207194e+01
5.050701e+02	-3.211857e+01
5.079874e+02	-3.217003e+01
5.109215e+02	-3.222691e+01
5.138726e+02	-3.226905e+01
5.168407e+02	-3.232273e+01
5.198259e+02	-3.236910e+01
5.228284e+02	-3.242392e+01
5.258482e+02	-3.247151e+01
5.288855e+02	-3.252642e+01
5.319403e+02	-3.257094e+01
5.350128e+02	-3.262146e+01
5.381030e+02	-3.266739e+01
5.412111e+02	-3.272505e+01
5.443371e+02	-3.277748e+01
5.474812e+02	-3.282590e+01
5.506434e+02	-3.287595e+01
5.538239e+02	-3.292527e+01
5.570228e+02	-3.297710e+01
5.602401e+02	-3.302582e+01
5.634760e+02	-3.308060e+01
5.667306e+02	-3.312792e+01
5.700040e+02	-3.317521e+01
5.732964e+02	-3.322922e+01
5.766077e+02	-3.327762e+01
5.799382e+02	-3.333057e+01
5.832879e+02	-3.337800e+01
5.866569e+02	-3.342050e+01
5.900454e+02	-3.348330e+01
5.934535e+02	-3.352687e+01
5.968813e+02	-3.357528e+01
6.003288e+02	-3.362958e+01
6.037963e+02	-3.368213e+01
6.072838e+02	-3.373136e+01
6.107914e+02	-3.378357e+01
6.143194e+02	-3.383165e+01
6.178676e+02	-3.387771e+01
6.214364e+02	-3.393140e+01
6.250258e+02	-3.398366e+01
6.286359e+02	-3.402087e+01
6.322669e+02	-3.408244e+01
6.359189e+02	-3.412537e+01
6.395919e+02	-3.418443e+01
6.432862e+02	-3.423284e+01
6.470017e+02	-3.428064e+01
6.507388e+02	-3.432536e+01
6.544974e+02	-3.439100e+01
6.582778e+02	-3.443353e+01
6.620800e+02	-3.448535e+01
6.659041e+02	-3.453718e+01
6.697504e+02	-3.458708e+01
6.736188e+02	-3.463239e+01
6.775096e+02	-3.468162e+01
6.814229e+02	-3.473411e+01
6.853587e+02	-3.478189e+01
6.893173e+02	-3.483744e+01
6.932988e+02	-3.489012e+01
6.973033e+02	-3.493240e+01
7.013309e+02	-3.498808e+01
