Frequency(Hz)	Magnitude(dB)
1.000000e+01	-2.141154e+00
1.005776e+01	-2.160556e+00
1.011585e+01	-2.180164e+00
1.017428e+01	-2.199872e+00
1.023305e+01	-2.219940e+00
1.029215e+01	-2.240192e+00
1.035160e+01	-2.260243e+00
1.041139e+01	-2.280511e+00
1.047153e+01	-2.301184e+00
1.053201e+01	-2.321990e+00
1.059284e+01	-2.342679e+00
1.065403e+01	-2.363443e+00
1.071556e+01	-2.384528e+00
1.077746e+01	-2.405797e+00
1.083971e+01	-2.427015e+00
1.090232e+01	-2.448551e+00
1.096529e+01	-2.470273e+00
1.102862e+01	-2.492062e+00
1.109232e+01	-2.513965e+00
1.115639e+01	-2.535847e+00
1.122083e+01	-2.558160e+00
1.128564e+01	-2.580433e+00
1.135083e+01	-2.602981e+00
1.141639e+01	-2.625746e+00
1.148233e+01	-2.648339e+00
1.154865e+01	-2.671346e+00
1.161536e+01	-2.694289e+00
1.168245e+01	-2.717489e+00
1.174992e+01	-2.741023e+00
1.181779e+01	-2.764276e+00
1.188605e+01	-2.787985e+00
1.195470e+01	-2.812079e+00
1.202375e+01	-2.835716e+00
1.209320e+01	-2.859780e+00
1.216305e+01	-2.883856e+00
1.223330e+01	-2.908166e+00
1.230396e+01	-2.933036e+00
1.237503e+01	-2.957333e+00
1.244651e+01	-2.982254e+00
1.251840e+01	-3.007128e+00
1.259070e+01	-3.032433e+00
1.266343e+01	-3.057300e+00
1.273657e+01	-3.082887e+00
1.281014e+01	-3.108246e+00
1.288413e+01	-3.133650e+00
1.295855e+01	-3.159833e+00
1.303339e+01	-3.185573e+00
1.310867e+01	-3.211624e+00
1.318439e+01	-3.237956e+00
1.326054e+01	-3.264553e+00
1.333713e+01	-3.290968e+00
1.341417e+01	-3.317709e+00
1.349165e+01	-3.344411e+00
1.356958e+01	-3.370956e+00
1.364795e+01	-3.398257e+00
1.372678e+01	-3.425374e+00
1.380607e+01	-3.452851e+00
1.388581e+01	-3.480228e+00
1.396602e+01	-3.508061e+00
1.404668e+01	-3.535699e+00
1.412782e+01	-3.563882e+00
1.420942e+01	-3.591854e+00
1.429149e+01	-3.619743e+00
1.437404e+01	-3.648319e+00
1.445706e+01	-3.677043e+00
1.454057e+01	-3.705688e+00
1.462455e+01	-3.734300e+00
1.470902e+01	-3.763161e+00
1.479398e+01	-3.792419e+00
1.487943e+01	-3.821236e+00
1.496537e+01	-3.850655e+00
1.505181e+01	-3.880486e+00
1.513875e+01	-3.910161e+00
1.522619e+01	-3.939548e+00
1.531414e+01	-3.969504e+00
1.540259e+01	-3.999814e+00
1.549156e+01	-4.029531e+00
1.558103e+01	-4.059862e+00
1.567103e+01	-4.090807e+00
1.576155e+01	-4.120945e+00
1.585258e+01	-4.151997e+00
1.594415e+01	-4.182691e+00
1.603624e+01	-4.214004e+00
1.612886e+01	-4.244894e+00
1.622202e+01	-4.276152e+00
1.631572e+01	-4.307633e+00
1.640996e+01	-4.338918e+00
1.650474e+01	-4.370853e+00
1.660008e+01	-4.402282e+00
1.669596e+01	-4.434410e+00
1.679239e+01	-4.466665e+00
1.688938e+01	-4.498824e+00
1.698694e+01	-4.531002e+00
1.708505e+01	-4.563486e+00
1.718373e+01	-4.596118e+00
1.728299e+01	-4.628616e+00
1.738281e+01	-4.661884e+00
1.748322e+01	-4.694665e+00
1.758420e+01	-4.727869e+00
1.768576e+01	-4.761273e+00
1.778792e+01	-4.794383e+00
1.789066e+01	-4.828076e+00
1.799399e+01	-4.861566e+00
1.809793e+01	-4.895602e+00
1.820246e+01	-4.929523e+00
1.830760e+01	-4.963469e+00
1.841334e+01	-4.997032e+00
1.851969e+01	-5.031459e+00
1.862666e+01	-5.066126e+00
1.873425e+01	-5.100537e+00
1.884246e+01	-5.134989e+00
1.895129e+01	-5.169982e+00
1.906075e+01	-5.204846e+00
1.917085e+01	-5.239866e+00
1.928158e+01	-5.275118e+00
1.939295e+01	-5.310228e+00
1.950496e+01	-5.345606e+00
1.961762e+01	-5.381054e+00
1.973093e+01	-5.416402e+00
1.984490e+01	-5.452153e+00
1.995952e+01	-5.488097e+00
2.007480e+01	-5.523592e+00
2.019076e+01	-5.560289e+00
2.030738e+01	-5.596271e+00
2.042467e+01	-5.632607e+00
2.054264e+01	-5.669343e+00
2.066130e+01	-5.705545e+00
2.078064e+01	-5.742150e+00
2.090066e+01	-5.778896e+00
2.102139e+01	-5.815893e+00
2.114280e+01	-5.852326e+00
2.126492e+01	-5.889751e+00
2.138775e+01	-5.926938e+00
2.151128e+01	-5.964430e+00
2.163553e+01	-6.001517e+00
2.176050e+01	-6.039458e+00
2.188619e+01	-6.076528e+00
2.201260e+01	-6.114747e+00
2.213974e+01	-6.152286e+00
2.226762e+01	-6.190143e+00
2.239624e+01	-6.228392e+00
2.252560e+01	-6.266661e+00
2.265571e+01	-6.304908e+00
2.278656e+01	-6.343276e+00
2.291818e+01	-6.381965e+00
2.305055e+01	-6.420293e+00
2.318369e+01	-6.459302e+00
2.331760e+01	-6.497800e+00
2.345228e+01	-6.536543e+00
2.358774e+01	-6.575505e+00
2.372398e+01	-6.614850e+00
2.386101e+01	-6.653522e+00
2.399883e+01	-6.693365e+00
2.413745e+01	-6.732442e+00
2.427686e+01	-6.771861e+00
2.441709e+01	-6.811352e+00
2.455812e+01	-6.851001e+00
2.469997e+01	-6.890783e+00
2.484263e+01	-6.930717e+00
2.498612e+01	-6.970192e+00
2.513044e+01	-7.010469e+00
2.527559e+01	-7.050394e+00
2.542158e+01	-7.090797e+00
2.556842e+01	-7.131241e+00
2.571610e+01	-7.172081e+00
2.586463e+01	-7.211827e+00
2.601403e+01	-7.252671e+00
2.616428e+01	-7.293464e+00
2.631541e+01	-7.334355e+00
2.646740e+01	-7.374792e+00
2.662028e+01	-7.415801e+00
2.677404e+01	-7.456855e+00
2.692868e+01	-7.497905e+00
2.708422e+01	-7.538714e+00
2.724066e+01	-7.580171e+00
2.739800e+01	-7.621479e+00
2.755625e+01	-7.662936e+00
2.771541e+01	-7.704526e+00
2.787550e+01	-7.746303e+00
2.803650e+01	-7.787814e+00
2.819844e+01	-7.829596e+00
2.836131e+01	-7.871381e+00
2.852513e+01	-7.912858e+00
2.868989e+01	-7.954839e+00
2.885560e+01	-7.997168e+00
2.902227e+01	-8.039396e+00
2.918990e+01	-8.081631e+00
2.935850e+01	-8.124240e+00
2.952807e+01	-8.166429e+00
2.969863e+01	-8.208966e+00
2.987016e+01	-8.251131e+00
3.004269e+01	-8.294013e+00
3.021622e+01	-8.336201e+00
3.039075e+01	-8.379284e+00
3.056628e+01	-8.421788e+00
3.074283e+01	-8.464905e+00
3.092040e+01	-8.507943e+00
3.109900e+01	-8.550726e+00
3.127862e+01	-8.593860e+00
3.145929e+01	-8.637224e+00
3.164099e+01	-8.680182e+00
3.182375e+01	-8.723466e+00
3.200756e+01	-8.766562e+00
3.219244e+01	-8.810292e+00
3.237838e+01	-8.853570e+00
3.256540e+01	-8.897263e+00
3.275349e+01	-8.940714e+00
3.294268e+01	-8.984000e+00
3.313295e+01	-9.027661e+00
3.332433e+01	-9.071745e+00
3.351681e+01	-9.115185e+00
3.371040e+01	-9.159744e+00
3.390511e+01	-9.203560e+00
3.410094e+01	-9.247833e+00
3.429791e+01	-9.292038e+00
3.449601e+01	-9.336241e+00
3.469526e+01	-9.380673e+00
3.489566e+01	-9.424569e+00
3.509721e+01	-9.468969e+00
3.529993e+01	-9.513461e+00
3.550382e+01	-9.557739e+00
3.570889e+01	-9.602011e+00
3.591515e+01	-9.646830e+00
3.612259e+01	-9.691371e+00
3.633123e+01	-9.736267e+00
3.654108e+01	-9.781171e+00
3.675214e+01	-9.825680e+00
3.696442e+01	-9.870684e+00
3.717792e+01	-9.916251e+00
3.739266e+01	-9.960416e+00
3.760864e+01	-1.000585e+01
3.782587e+01	-1.005040e+01
3.804435e+01	-1.009573e+01
3.826409e+01	-1.014096e+01
3.848510e+01	-1.018568e+01
3.870739e+01	-1.023137e+01
3.893096e+01	-1.027646e+01
3.915583e+01	-1.032174e+01
3.938199e+01	-1.036728e+01
3.960946e+01	-1.041303e+01
3.983824e+01	-1.045782e+01
4.006834e+01	-1.050455e+01
4.029978e+01	-1.054958e+01
4.053255e+01	-1.059497e+01
4.076666e+01	-1.064132e+01
4.100213e+01	-1.068658e+01
4.123896e+01	-1.073271e+01
4.147715e+01	-1.077768e+01
4.171672e+01	-1.082426e+01
4.195767e+01	-1.086955e+01
4.220002e+01	-1.091582e+01
4.244377e+01	-1.096140e+01
4.268892e+01	-1.100780e+01
4.293549e+01	-1.105423e+01
4.318348e+01	-1.109971e+01
4.343291e+01	-1.114650e+01
4.368377e+01	-1.119251e+01
4.393609e+01	-1.123865e+01
4.418986e+01	-1.128508e+01
4.444510e+01	-1.133143e+01
4.470182e+01	-1.137765e+01
4.496001e+01	-1.142417e+01
4.521970e+01	-1.147039e+01
4.548089e+01	-1.151662e+01
4.574358e+01	-1.156330e+01
4.600779e+01	-1.161000e+01
4.627353e+01	-1.165659e+01
4.654081e+01	-1.170322e+01
4.680963e+01	-1.175011e+01
4.708000e+01	-1.179667e+01
4.735193e+01	-1.184337e+01
4.762543e+01	-1.189059e+01
4.790051e+01	-1.193670e+01
4.817719e+01	-1.198358e+01
4.845545e+01	-1.203058e+01
4.873533e+01	-1.207829e+01
4.901682e+01	-1.212392e+01
4.929994e+01	-1.217150e+01
4.958470e+01	-1.221896e+01
4.987110e+01	-1.226580e+01
5.015915e+01	-1.231282e+01
5.044887e+01	-1.235994e+01
5.074026e+01	-1.240747e+01
5.103333e+01	-1.245424e+01
5.132810e+01	-1.250090e+01
5.162457e+01	-1.254834e+01
5.192275e+01	-1.259550e+01
5.222265e+01	-1.264270e+01
5.252429e+01	-1.269075e+01
5.282767e+01	-1.273757e+01
5.313280e+01	-1.278597e+01
5.343969e+01	-1.283290e+01
5.374836e+01	-1.287921e+01
5.405880e+01	-1.292815e+01
5.437105e+01	-1.297432e+01
5.468509e+01	-1.302280e+01
5.500095e+01	-1.306940e+01
5.531863e+01	-1.311747e+01
5.563815e+01	-1.316597e+01
5.595951e+01	-1.321297e+01
5.628273e+01	-1.325975e+01
5.660782e+01	-1.330861e+01
5.693479e+01	-1.335575e+01
5.726364e+01	-1.340354e+01
5.759439e+01	-1.345036e+01
5.792705e+01	-1.349916e+01
5.826164e+01	-1.354625e+01
5.859815e+01	-1.359416e+01
5.893662e+01	-1.364216e+01
5.927703e+01	-1.369111e+01
5.961941e+01	-1.373755e+01
5.996377e+01	-1.378716e+01
6.031012e+01	-1.383422e+01
6.065847e+01	-1.388280e+01
6.100883e+01	-1.393060e+01
6.136121e+01	-1.397788e+01
6.171563e+01	-1.402633e+01
6.207210e+01	-1.407414e+01
6.243063e+01	-1.412235e+01
6.279122e+01	-1.417052e+01
6.315390e+01	-1.421888e+01
6.351868e+01	-1.426568e+01
6.388556e+01	-1.431467e+01
6.425456e+01	-1.436318e+01
6.462569e+01	-1.441102e+01
6.499897e+01	-1.445889e+01
6.537440e+01	-1.450807e+01
6.575200e+01	-1.455672e+01
6.613178e+01	-1.460407e+01
6.651375e+01	-1.465198e+01
6.689793e+01	-1.470153e+01
6.728433e+01	-1.474947e+01
6.767297e+01	-1.479726e+01
6.806384e+01	-1.484637e+01
6.845698e+01	-1.489441e+01
6.885238e+01	-1.494311e+01
6.925007e+01	-1.499065e+01
6.965005e+01	-1.503940e+01
7.005235e+01	-1.508931e+01
7.045697e+01	-1.513683e+01
7.086393e+01	-1.518548e+01
7.127323e+01	-1.523387e+01
7.168490e+01	-1.528143e+01
7.209895e+01	-1.533106e+01
7.251539e+01	-1.537917e+01
7.293424e+01	-1.542697e+01
7.335551e+01	-1.547648e+01
7.377920e+01	-1.552484e+01
7.420535e+01	-1.557328e+01
7.463396e+01	-1.562188e+01
7.506504e+01	-1.567133e+01
7.549861e+01	-1.571966e+01
7.593469e+01	-1.576788e+01
7.637328e+01	-1.581672e+01
7.681441e+01	-1.586604e+01
7.725809e+01	-1.591562e+01
7.770433e+01	-1.596313e+01
7.815315e+01	-1.601210e+01
7.860456e+01	-1.606066e+01
7.905857e+01	-1.610884e+01
7.951521e+01	-1.615833e+01
7.997449e+01	-1.620802e+01
8.043642e+01	-1.625702e+01
8.090102e+01	-1.630555e+01
8.136830e+01	-1.635395e+01
8.183828e+01	-1.640238e+01
8.231097e+01	-1.645096e+01
8.278640e+01	-1.650125e+01
8.326457e+01	-1.654963e+01
8.374550e+01	-1.659890e+01
8.422921e+01	-1.664747e+01
8.471572e+01	-1.669655e+01
8.520503e+01	-1.674476e+01
8.569717e+01	-1.679522e+01
8.619215e+01	-1.684385e+01
8.669000e+01	-1.689217e+01
8.719071e+01	-1.694137e+01
8.769432e+01	-1.698972e+01
8.820084e+01	-1.704015e+01
8.871029e+01	-1.708776e+01
8.922267e+01	-1.713674e+01
8.973802e+01	-1.718688e+01
9.025634e+01	-1.723575e+01
9.077766e+01	-1.728497e+01
9.130199e+01	-1.733463e+01
9.182935e+01	-1.738335e+01
9.235975e+01	-1.743085e+01
9.289321e+01	-1.748076e+01
9.342976e+01	-1.753001e+01
9.396941e+01	-1.757908e+01
9.451217e+01	-1.762803e+01
9.505807e+01	-1.767842e+01
9.560712e+01	-1.772627e+01
9.615934e+01	-1.777659e+01
9.671476e+01	-1.782457e+01
9.727338e+01	-1.787449e+01
9.783522e+01	-1.792291e+01
9.840032e+01	-1.797295e+01
9.896867e+01	-1.802282e+01
9.954031e+01	-1.807045e+01
1.001153e+02	-1.812111e+01
1.006935e+02	-1.817002e+01
1.012751e+02	-1.821915e+01
1.018601e+02	-1.826837e+01
1.024484e+02	-1.831748e+01
1.030402e+02	-1.836721e+01
1.036353e+02	-1.841591e+01
1.042339e+02	-1.846627e+01
1.048360e+02	-1.851395e+01
1.054415e+02	-1.856487e+01
1.060505e+02	-1.861220e+01
1.066631e+02	-1.866245e+01
1.072791e+02	-1.871263e+01
1.078988e+02	-1.876191e+01
1.085220e+02	-1.880895e+01
1.091488e+02	-1.886053e+01
1.097793e+02	-1.891077e+01
1.104133e+02	-1.896020e+01
1.110511e+02	-1.901030e+01
1.116925e+02	-1.905776e+01
1.123376e+02	-1.910722e+01
1.129865e+02	-1.915706e+01
1.136391e+02	-1.920666e+01
1.142955e+02	-1.925622e+01
1.149556e+02	-1.930565e+01
1.156196e+02	-1.935443e+01
1.162874e+02	-1.940476e+01
1.169591e+02	-1.945463e+01
1.176347e+02	-1.950388e+01
1.183141e+02	-1.955217e+01
1.189975e+02	-1.960262e+01
1.196848e+02	-1.965121e+01
1.203761e+02	-1.970091e+01
1.210714e+02	-1.975009e+01
1.217707e+02	-1.980083e+01
1.224740e+02	-1.984907e+01
1.231814e+02	-1.989883e+01
1.238929e+02	-1.994867e+01
1.246085e+02	-1.999961e+01
1.253283e+02	-2.004734e+01
1.260522e+02	-2.009685e+01
1.267802e+02	-2.014637e+01
1.275125e+02	-2.019718e+01
1.282490e+02	-2.024543e+01
1.289898e+02	-2.029619e+01
1.297348e+02	-2.034604e+01
1.304842e+02	-2.039525e+01
1.312378e+02	-2.044435e+01
1.319959e+02	-2.049577e+01
1.327583e+02	-2.054187e+01
1.335251e+02	-2.059364e+01
1.342963e+02	-2.064402e+01
1.350720e+02	-2.069217e+01
1.358522e+02	-2.074196e+01
1.366368e+02	-2.079264e+01
1.374260e+02	-2.084149e+01
1.382198e+02	-2.088862e+01
1.390182e+02	-2.093957e+01
1.398211e+02	-2.099047e+01
1.406287e+02	-2.103945e+01
1.414410e+02	-2.108938e+01
1.422579e+02	-2.113865e+01
1.430796e+02	-2.118816e+01
1.439060e+02	-2.123895e+01
1.447372e+02	-2.128663e+01
1.455732e+02	-2.133860e+01
1.464141e+02	-2.138543e+01
1.472597e+02	-2.143781e+01
1.481103e+02	-2.148688e+01
1.489658e+02	-2.153696e+01
1.498262e+02	-2.158430e+01
1.506916e+02	-2.163577e+01
1.515620e+02	-2.168435e+01
1.524374e+02	-2.173511e+01
1.533179e+02	-2.178546e+01
1.542034e+02	-2.183588e+01
1.550941e+02	-2.188525e+01
1.559899e+02	-2.193429e+01
1.568909e+02	-2.198477e+01
1.577971e+02	-2.203148e+01
1.587085e+02	-2.208397e+01
1.596252e+02	-2.213296e+01
1.605472e+02	-2.218311e+01
1.614745e+02	-2.223331e+01
1.624072e+02	-2.228382e+01
1.633453e+02	-2.232948e+01
1.642887e+02	-2.238096e+01
1.652377e+02	-2.243110e+01
1.661921e+02	-2.248067e+01
1.671520e+02	-2.253109e+01
1.681175e+02	-2.258155e+01
1.690885e+02	-2.263128e+01
1.700651e+02	-2.267979e+01
1.710474e+02	-2.273025e+01
1.720354e+02	-2.277953e+01
1.730291e+02	-2.282882e+01
1.740285e+02	-2.288096e+01
1.750337e+02	-2.292724e+01
1.760446e+02	-2.297897e+01
1.770615e+02	-2.302554e+01
1.780842e+02	-2.308055e+01
1.791128e+02	-2.312747e+01
1.801473e+02	-2.317724e+01
1.811878e+02	-2.322640e+01
1.822344e+02	-2.327770e+01
1.832870e+02	-2.332510e+01
1.843456e+02	-2.337665e+01
1.854104e+02	-2.342714e+01
1.864813e+02	-2.347592e+01
1.875584e+02	-2.352669e+01
1.886418e+02	-2.357566e+01
1.897313e+02	-2.362644e+01
1.908272e+02	-2.367830e+01
1.919294e+02	-2.372513e+01
1.930380e+02	-2.377640e+01
1.941530e+02	-2.382585e+01
1.952744e+02	-2.387426e+01
1.964023e+02	-2.392358e+01
1.975367e+02	-2.397519e+01
1.986777e+02	-2.402664e+01
1.998252e+02	-2.407450e+01
2.009794e+02	-2.412431e+01
2.021403e+02	-2.417370e+01
2.033078e+02	-2.422367e+01
2.044821e+02	-2.427319e+01
2.056632e+02	-2.432363e+01
2.068511e+02	-2.437489e+01
2.080459e+02	-2.442351e+01
2.092475e+02	-2.447248e+01
2.104561e+02	-2.452550e+01
2.116717e+02	-2.457340e+01
2.128943e+02	-2.462091e+01
2.141240e+02	-2.467314e+01
2.153608e+02	-2.472386e+01
2.166047e+02	-2.477592e+01
2.178558e+02	-2.482575e+01
2.191141e+02	-2.486970e+01
2.203797e+02	-2.492402e+01
2.216526e+02	-2.497567e+01
2.229329e+02	-2.502266e+01
2.242205e+02	-2.507045e+01
2.255156e+02	-2.512105e+01
2.268182e+02	-2.517189e+01
2.281283e+02	-2.522130e+01
2.294459e+02	-2.527349e+01
2.307712e+02	-2.532345e+01
2.321041e+02	-2.536877e+01
2.334447e+02	-2.541940e+01
2.347931e+02	-2.547364e+01
2.361493e+02	-2.552145e+01
2.375133e+02	-2.557306e+01
2.388851e+02	-2.562476e+01
2.402649e+02	-2.567155e+01
2.416527e+02	-2.572171e+01
2.430484e+02	-2.577088e+01
2.444523e+02	-2.582113e+01
2.458642e+02	-2.587020e+01
2.472843e+02	-2.592078e+01
2.487126e+02	-2.596900e+01
2.501492e+02	-2.602085e+01
2.515940e+02	-2.607081e+01
2.530472e+02	-2.612242e+01
2.545088e+02	-2.616880e+01
2.559789e+02	-2.622353e+01
2.574574e+02	-2.626974e+01
2.589444e+02	-2.631895e+01
2.604401e+02	-2.637112e+01
2.619444e+02	-2.642417e+01
2.634574e+02	-2.646765e+01
2.649791e+02	-2.652047e+01
2.665096e+02	-2.657244e+01
2.680489e+02	-2.662024e+01
2.695972e+02	-2.666927e+01
2.711544e+02	-2.671737e+01
2.727205e+02	-2.677306e+01
2.742958e+02	-2.682404e+01
2.758801e+02	-2.687036e+01
2.774736e+02	-2.692291e+01
2.790762e+02	-2.697123e+01
2.806882e+02	-2.702303e+01
2.823094e+02	-2.707191e+01
2.839400e+02	-2.711848e+01
2.855800e+02	-2.716702e+01
2.872295e+02	-2.722287e+01
2.888886e+02	-2.726830e+01
2.905572e+02	-2.732393e+01
2.922354e+02	-2.737166e+01
2.939234e+02	-2.742059e+01
2.956211e+02	-2.746818e+01
2.973286e+02	-2.752175e+01
2.990459e+02	-2.757032e+01
3.007732e+02	-2.762412e+01
3.025104e+02	-2.766895e+01
3.042577e+02	-2.771854e+01
3.060151e+02	-2.776583e+01
3.077826e+02	-2.781839e+01
3.095604e+02	-2.787161e+01
3.113484e+02	-2.792251e+01
3.131467e+02	-2.797022e+01
3.149554e+02	-2.801428e+01
3.167746e+02	-2.806988e+01
3.186043e+02	-2.812153e+01
3.204445e+02	-2.817308e+01
3.222954e+02	-2.822230e+01
3.241570e+02	-2.827034e+01
3.260293e+02	-2.832284e+01
3.279124e+02	-2.837422e+01
3.298064e+02	-2.842217e+01
3.317114e+02	-2.847378e+01
3.336273e+02	-2.852106e+01
3.355544e+02	-2.857088e+01
3.374925e+02	-2.862501e+01
3.394418e+02	-2.867307e+01
3.414024e+02	-2.872275e+01
3.433744e+02	-2.876678e+01
3.453577e+02	-2.882206e+01
3.473525e+02	-2.886896e+01
3.493588e+02	-2.892109e+01
3.513766e+02	-2.897222e+01
3.534062e+02	-2.901924e+01
3.554474e+02	-2.906852e+01
3.575005e+02	-2.912064e+01
3.595654e+02	-2.917219e+01
3.616422e+02	-2.922327e+01
3.637311e+02	-2.927095e+01
3.658320e+02	-2.932444e+01
3.679450e+02	-2.937202e+01
3.700702e+02	-2.942363e+01
3.722077e+02	-2.947044e+01
3.743576e+02	-2.951979e+01
3.765199e+02	-2.957161e+01
3.786946e+02	-2.961992e+01
3.808820e+02	-2.967202e+01
3.830819e+02	-2.972016e+01
3.852946e+02	-2.977154e+01
3.875200e+02	-2.982136e+01
3.897583e+02	-2.987359e+01
3.920096e+02	-2.992208e+01
3.942738e+02	-2.997408e+01
3.965511e+02	-3.002059e+01
3.988416e+02	-3.007035e+01
4.011452e+02	-3.012711e+01
4.034622e+02	-3.017618e+01
4.057926e+02	-3.022517e+01
4.081365e+02	-3.027113e+01
4.104938e+02	-3.032559e+01
4.128648e+02	-3.037638e+01
4.152495e+02	-3.042214e+01
4.176480e+02	-3.047150e+01
4.200603e+02	-3.052566e+01
4.224866e+02	-3.057549e+01
4.249268e+02	-3.062473e+01
4.273812e+02	-3.067316e+01
4.298497e+02	-3.072597e+01
4.323325e+02	-3.077188e+01
4.348297e+02	-3.082395e+01
4.373412e+02	-3.087272e+01
4.398673e+02	-3.092624e+01
4.424079e+02	-3.097188e+01
4.449633e+02	-3.102427e+01
4.475334e+02	-3.107448e+01
4.501183e+02	-3.112492e+01
4.527182e+02	-3.117368e+01
4.553330e+02	-3.122825e+01
4.579630e+02	-3.127466e+01
4.606082e+02	-3.132837e+01
4.632687e+02	-3.138047e+01
4.659445e+02	-3.143525e+01
4.686358e+02	-3.147498e+01
4.713426e+02	-3.151962e+01
4.740650e+02	-3.157662e+01
4.768032e+02	-3.162997e+01
4.795572e+02	-3.167611e+01
4.823271e+02	-3.172486e+01
4.851130e+02	-3.177329e+01
4.879150e+02	-3.182744e+01
4.907332e+02	-3.187918e+01
4.935676e+02	-3.192158e+01
4.964185e+02	-3.196927e+01
4.992858e+02	-3.202758e+01
5.021696e+02	-3.207701e+01
5.050701e+02	-3.212659e+01
5.079874e+02	-3.218104e+01
5.109215e+02	-3.223245e+01
5.138726e+02	-3.227935e+01
5.168407e+02	-3.232330e+01
5.198259e+02	-3.237864e+01
5.228284e+02	-3.242377e+01
5.258482e+02	-3.247721e+01
5.288855e+02	-3.253076e+01
5.319403e+02	-3.258141e+01
5.350128e+02	-3.263077e+01
5.381030e+02	-3.267536e+01
5.412111e+02	-3.273130e+01
5.443371e+02	-3.278039e+01
5.474812e+02	-3.282762e+01
5.506434e+02	-3.288366e+01
5.538239e+02	-3.293216e+01
5.570228e+02	-3.297509e+01
5.602401e+02	-3.302118e+01
5.634760e+02	-3.308550e+01
5.667306e+02	-3.312830e+01
5.700040e+02	-3.318322e+01
5.732964e+02	-3.322725e+01
5.766077e+02	-3.328578e+01
5.799382e+02	-3.333182e+01
5.832879e+02	-3.338259e+01
5.866569e+02	-3.342679e+01
5.900454e+02	-3.348365e+01
5.934535e+02	-3.353346e+01
5.968813e+02	-3.357767e+01
6.003288e+02	-3.363435e+01
6.037963e+02	-3.368754e+01
6.072838e+02	-3.373015e+01
6.107914e+02	-3.379039e+01
6.143194e+02	-3.383892e+01
6.178676e+02	-3.388518e+01
6.214364e+02	-3.393508e+01
6.250258e+02	-3.398405e+01
6.286359e+02	-3.403759e+01
6.322669e+02	-3.408675e+01
6.359189e+02	-3.413424e+01
6.395919e+02	-3.418265e+01
6.432862e+02	-3.424344e+01
6.470017e+02	-3.429052e+01
6.507388e+02	-3.434174e+01
6.544974e+02	-3.438519e+01
6.582778e+02	-3.443519e+01
6.620800e+02	-3.448527e+01
6.659041e+02	-3.453008e+01
6.697504e+02	-3.458583e+01
6.736188e+02	-3.464090e+01
6.775096e+02	-3.468671e+01
6.814229e+02	-3.473777e+01
6.853587e+02	-3.479438e+01
6.893173e+02	-3.484727e+01
6.932988e+02	-3.489449e+01
6.973033e+02	-3.493791e+01
7.013309e+02	-3.498619e+01
