Frequency(Hz)	Magnitude(dB)
1.000000e+01	-1.809473e+00
1.005776e+01	-1.826641e+00
1.011585e+01	-1.843849e+00
1.017428e+01	-1.861235e+00
1.023305e+01	-1.878768e+00
1.029215e+01	-1.896424e+00
1.035160e+01	-1.914016e+00
1.041139e+01	-1.931901e+00
1.047153e+01	-1.949946e+00
1.053201e+01	-1.968257e+00
1.059284e+01	-1.986652e+00
1.065403e+01	-2.004872e+00
1.071556e+01	-2.023296e+00
1.077746e+01	-2.042091e+00
1.083971e+01	-2.061123e+00
1.090232e+01	-2.080121e+00
1.096529e+01	-2.098893e+00
1.102862e+01	-2.118458e+00
1.109232e+01	-2.137953e+00
1.115639e+01	-2.157073e+00
1.122083e+01	-2.177044e+00
1.128564e+01	-2.196717e+00
1.135083e+01	-2.216800e+00
1.141639e+01	-2.236336e+00
1.148233e+01	-2.256905e+00
1.154865e+01	-2.277229e+00
1.161536e+01	-2.297895e+00
1.168245e+01	-2.318442e+00
1.174992e+01	-2.339268e+00
1.181779e+01	-2.360067e+00
1.188605e+01	-2.380956e+00
1.195470e+01	-2.402268e+00
1.202375e+01	-2.423679e+00
1.209320e+01	-2.445002e+00
1.216305e+01	-2.466734e+00
1.223330e+01	-2.488523e+00
1.230396e+01	-2.510407e+00
1.237503e+01	-2.532308e+00
1.244651e+01	-2.554421e+00
1.251840e+01	-2.576770e+00
1.259070e+01	-2.599208e+00
1.266343e+01	-2.621950e+00
1.273657e+01	-2.644583e+00
1.281014e+01	-2.667400e+00
1.288413e+01	-2.690354e+00
1.295855e+01	-2.713851e+00
1.303339e+01	-2.736781e+00
1.310867e+01	-2.760639e+00
1.318439e+01	-2.784032e+00
1.326054e+01	-2.807570e+00
1.333713e+01	-2.831729e+00
1.341417e+01	-2.855707e+00
1.349165e+01	-2.879971e+00
1.356958e+01	-2.904026e+00
1.364795e+01	-2.928664e+00
1.372678e+01	-2.953327e+00
1.380607e+01	-2.978168e+00
1.388581e+01	-3.002735e+00
1.396602e+01	-3.027992e+00
1.404668e+01	-3.053182e+00
1.412782e+01	-3.078438e+00
1.420942e+01	-3.104020e+00
1.429149e+01	-3.129304e+00
1.437404e+01	-3.155306e+00
1.445706e+01	-3.181222e+00
1.454057e+01	-3.207499e+00
1.462455e+01	-3.233634e+00
1.470902e+01	-3.259902e+00
1.479398e+01	-3.286360e+00
1.487943e+01	-3.312606e+00
1.496537e+01	-3.339718e+00
1.505181e+01	-3.366589e+00
1.513875e+01	-3.393773e+00
1.522619e+01	-3.420927e+00
1.531414e+01	-3.448268e+00
1.540259e+01	-3.475666e+00
1.549156e+01	-3.503239e+00
1.558103e+01	-3.531025e+00
1.567103e+01	-3.559166e+00
1.576155e+01	-3.587123e+00
1.585258e+01	-3.615177e+00
1.594415e+01	-3.643617e+00
1.603624e+01	-3.672015e+00
1.612886e+01	-3.700765e+00
1.622202e+01	-3.729608e+00
1.631572e+01	-3.758158e+00
1.640996e+01	-3.787565e+00
1.650474e+01	-3.816576e+00
1.660008e+01	-3.845822e+00
1.669596e+01	-3.875313e+00
1.679239e+01	-3.904871e+00
1.688938e+01	-3.934672e+00
1.698694e+01	-3.964382e+00
1.708505e+01	-3.994627e+00
1.718373e+01	-4.024709e+00
1.728299e+01	-4.055072e+00
1.738281e+01	-4.085626e+00
1.748322e+01	-4.116105e+00
1.758420e+01	-4.146370e+00
1.768576e+01	-4.177464e+00
1.778792e+01	-4.208449e+00
1.789066e+01	-4.239446e+00
1.799399e+01	-4.270796e+00
1.809793e+01	-4.302284e+00
1.820246e+01	-4.333760e+00
1.830760e+01	-4.365425e+00
1.841334e+01	-4.397200e+00
1.851969e+01	-4.429167e+00
1.862666e+01	-4.460905e+00
1.873425e+01	-4.493188e+00
1.884246e+01	-4.525614e+00
1.895129e+01	-4.558168e+00
1.906075e+01	-4.590392e+00
1.917085e+01	-4.623251e+00
1.928158e+01	-4.655995e+00
1.939295e+01	-4.688989e+00
1.950496e+01	-4.722026e+00
1.961762e+01	-4.755490e+00
1.973093e+01	-4.788845e+00
1.984490e+01	-4.822279e+00
1.995952e+01	-4.855720e+00
2.007480e+01	-4.889554e+00
2.019076e+01	-4.923398e+00
2.030738e+01	-4.957591e+00
2.042467e+01	-4.991400e+00
2.054264e+01	-5.025935e+00
2.066130e+01	-5.060372e+00
2.078064e+01	-5.094479e+00
2.090066e+01	-5.129450e+00
2.102139e+01	-5.164124e+00
2.114280e+01	-5.199238e+00
2.126492e+01	-5.234078e+00
2.138775e+01	-5.269053e+00
2.151128e+01	-5.304450e+00
2.163553e+01	-5.339487e+00
2.176050e+01	-5.374954e+00
2.188619e+01	-5.410372e+00
2.201260e+01	-5.446163e+00
2.213974e+01	-5.482042e+00
2.226762e+01	-5.518275e+00
2.239624e+01	-5.553726e+00
2.252560e+01	-5.590514e+00
2.265571e+01	-5.626687e+00
2.278656e+01	-5.662856e+00
2.291818e+01	-5.699480e+00
2.305055e+01	-5.736150e+00
2.318369e+01	-5.772980e+00
2.331760e+01	-5.809447e+00
2.345228e+01	-5.846297e+00
2.358774e+01	-5.883452e+00
2.372398e+01	-5.920997e+00
2.386101e+01	-5.958358e+00
2.399883e+01	-5.995644e+00
2.413745e+01	-6.032999e+00
2.427686e+01	-6.070534e+00
2.441709e+01	-6.108204e+00
2.455812e+01	-6.146159e+00
2.469997e+01	-6.184103e+00
2.484263e+01	-6.222165e+00
2.498612e+01	-6.260077e+00
2.513044e+01	-6.298610e+00
2.527559e+01	-6.337108e+00
2.542158e+01	-6.375175e+00
2.556842e+01	-6.413213e+00
2.571610e+01	-6.452344e+00
2.586463e+01	-6.491234e+00
2.601403e+01	-6.529701e+00
2.616428e+01	-6.569052e+00
2.631541e+01	-6.608102e+00
2.646740e+01	-6.647463e+00
2.662028e+01	-6.686493e+00
2.677404e+01	-6.725608e+00
2.692868e+01	-6.765034e+00
2.708422e+01	-6.804528e+00
2.724066e+01	-6.844551e+00
2.739800e+01	-6.884201e+00
2.755625e+01	-6.923856e+00
2.771541e+01	-6.963451e+00
2.787550e+01	-7.003550e+00
2.803650e+01	-7.043816e+00
2.819844e+01	-7.084223e+00
2.836131e+01	-7.124716e+00
2.852513e+01	-7.164619e+00
2.868989e+01	-7.204979e+00
2.885560e+01	-7.245906e+00
2.902227e+01	-7.286409e+00
2.918990e+01	-7.327126e+00
2.935850e+01	-7.367934e+00
2.952807e+01	-7.408758e+00
2.969863e+01	-7.449755e+00
2.987016e+01	-7.490845e+00
3.004269e+01	-7.532079e+00
3.021622e+01	-7.573601e+00
3.039075e+01	-7.614784e+00
3.056628e+01	-7.656050e+00
3.074283e+01	-7.697553e+00
3.092040e+01	-7.738919e+00
3.109900e+01	-7.780930e+00
3.127862e+01	-7.822514e+00
3.145929e+01	-7.863937e+00
3.164099e+01	-7.906001e+00
3.182375e+01	-7.947928e+00
3.200756e+01	-7.989988e+00
3.219244e+01	-8.032153e+00
3.237838e+01	-8.074821e+00
3.256540e+01	-8.116758e+00
3.275349e+01	-8.159162e+00
3.294268e+01	-8.201785e+00
3.313295e+01	-8.244332e+00
3.332433e+01	-8.286755e+00
3.351681e+01	-8.329185e+00
3.371040e+01	-8.371709e+00
3.390511e+01	-8.414885e+00
3.410094e+01	-8.458164e+00
3.429791e+01	-8.500687e+00
3.449601e+01	-8.543668e+00
3.469526e+01	-8.586321e+00
3.489566e+01	-8.630058e+00
3.509721e+01	-8.672646e+00
3.529993e+01	-8.716278e+00
3.550382e+01	-8.759355e+00
3.570889e+01	-8.803072e+00
3.591515e+01	-8.846398e+00
3.612259e+01	-8.890085e+00
3.633123e+01	-8.933627e+00
3.654108e+01	-8.977004e+00
3.675214e+01	-9.020811e+00
3.696442e+01	-9.064797e+00
3.717792e+01	-9.108877e+00
3.739266e+01	-9.152577e+00
3.760864e+01	-9.195967e+00
3.782587e+01	-9.240434e+00
3.804435e+01	-9.284492e+00
3.826409e+01	-9.328475e+00
3.848510e+01	-9.373023e+00
3.870739e+01	-9.417723e+00
3.893096e+01	-9.461148e+00
3.915583e+01	-9.505865e+00
3.938199e+01	-9.550357e+00
3.960946e+01	-9.594729e+00
3.983824e+01	-9.639111e+00
4.006834e+01	-9.683924e+00
4.029978e+01	-9.728822e+00
4.053255e+01	-9.773045e+00
4.076666e+01	-9.818219e+00
4.100213e+01	-9.863125e+00
4.123896e+01	-9.908055e+00
4.147715e+01	-9.953018e+00
4.171672e+01	-9.998007e+00
4.195767e+01	-1.004259e+01
4.220002e+01	-1.008792e+01
4.244377e+01	-1.013334e+01
4.268892e+01	-1.017810e+01
4.293549e+01	-1.022392e+01
4.318348e+01	-1.026901e+01
4.343291e+01	-1.031447e+01
4.368377e+01	-1.035949e+01
4.393609e+01	-1.040513e+01
4.418986e+01	-1.045089e+01
4.444510e+01	-1.049633e+01
4.470182e+01	-1.054182e+01
4.496001e+01	-1.058706e+01
4.521970e+01	-1.063304e+01
4.548089e+01	-1.067925e+01
4.574358e+01	-1.072466e+01
4.600779e+01	-1.077000e+01
4.627353e+01	-1.081656e+01
4.654081e+01	-1.086167e+01
4.680963e+01	-1.090804e+01
4.708000e+01	-1.095402e+01
4.735193e+01	-1.099939e+01
4.762543e+01	-1.104663e+01
4.790051e+01	-1.109220e+01
4.817719e+01	-1.113862e+01
4.845545e+01	-1.118450e+01
4.873533e+01	-1.123157e+01
4.901682e+01	-1.127751e+01
4.929994e+01	-1.132369e+01
4.958470e+01	-1.136954e+01
4.987110e+01	-1.141638e+01
5.015915e+01	-1.146271e+01
5.044887e+01	-1.150869e+01
5.074026e+01	-1.155538e+01
5.103333e+01	-1.160271e+01
5.132810e+01	-1.164860e+01
5.162457e+01	-1.169499e+01
5.192275e+01	-1.174121e+01
5.222265e+01	-1.178884e+01
5.252429e+01	-1.183550e+01
5.282767e+01	-1.188212e+01
5.313280e+01	-1.192919e+01
5.343969e+01	-1.197591e+01
5.374836e+01	-1.202309e+01
5.405880e+01	-1.207002e+01
5.437105e+01	-1.211654e+01
5.468509e+01	-1.216337e+01
5.500095e+01	-1.220997e+01
5.531863e+01	-1.225734e+01
5.563815e+01	-1.230452e+01
5.595951e+01	-1.235186e+01
5.628273e+01	-1.239904e+01
5.660782e+01	-1.244579e+01
5.693479e+01	-1.249298e+01
5.726364e+01	-1.254006e+01
5.759439e+01	-1.258748e+01
5.792705e+01	-1.263407e+01
5.826164e+01	-1.268232e+01
5.859815e+01	-1.273007e+01
5.893662e+01	-1.277818e+01
5.927703e+01	-1.282473e+01
5.961941e+01	-1.287144e+01
5.996377e+01	-1.291905e+01
6.031012e+01	-1.296583e+01
6.065847e+01	-1.301492e+01
6.100883e+01	-1.306236e+01
6.136121e+01	-1.310995e+01
6.171563e+01	-1.315680e+01
6.207210e+01	-1.320455e+01
6.243063e+01	-1.325234e+01
6.279122e+01	-1.330023e+01
6.315390e+01	-1.334749e+01
6.351868e+01	-1.339596e+01
6.388556e+01	-1.344352e+01
6.425456e+01	-1.349107e+01
6.462569e+01	-1.353895e+01
6.499897e+01	-1.358629e+01
6.537440e+01	-1.363381e+01
6.575200e+01	-1.368273e+01
6.613178e+01	-1.372999e+01
6.651375e+01	-1.377803e+01
6.689793e+01	-1.382606e+01
6.728433e+01	-1.387322e+01
6.767297e+01	-1.392241e+01
6.806384e+01	-1.396949e+01
6.845698e+01	-1.401722e+01
6.885238e+01	-1.406598e+01
6.925007e+01	-1.411517e+01
6.965005e+01	-1.416190e+01
7.005235e+01	-1.421030e+01
7.045697e+01	-1.425817e+01
7.086393e+01	-1.430598e+01
7.127323e+01	-1.435395e+01
7.168490e+01	-1.440349e+01
7.209895e+01	-1.445177e+01
7.251539e+01	-1.450015e+01
7.293424e+01	-1.454807e+01
7.335551e+01	-1.459567e+01
7.377920e+01	-1.464412e+01
7.420535e+01	-1.469286e+01
7.463396e+01	-1.474163e+01
7.506504e+01	-1.478939e+01
7.549861e+01	-1.483777e+01
7.593469e+01	-1.488637e+01
7.637328e+01	-1.493473e+01
7.681441e+01	-1.498301e+01
7.725809e+01	-1.503113e+01
7.770433e+01	-1.508043e+01
7.815315e+01	-1.512859e+01
7.860456e+01	-1.517696e+01
7.905857e+01	-1.522469e+01
7.951521e+01	-1.527388e+01
7.997449e+01	-1.532218e+01
8.043642e+01	-1.537079e+01
8.090102e+01	-1.541964e+01
8.136830e+01	-1.546842e+01
8.183828e+01	-1.551692e+01
8.231097e+01	-1.556494e+01
8.278640e+01	-1.561411e+01
8.326457e+01	-1.566264e+01
8.374550e+01	-1.571135e+01
8.422921e+01	-1.576045e+01
8.471572e+01	-1.580817e+01
8.520503e+01	-1.585846e+01
8.569717e+01	-1.590683e+01
8.619215e+01	-1.595553e+01
8.669000e+01	-1.600447e+01
8.719071e+01	-1.605313e+01
8.769432e+01	-1.610179e+01
8.820084e+01	-1.615021e+01
8.871029e+01	-1.619868e+01
8.922267e+01	-1.624713e+01
8.973802e+01	-1.629748e+01
9.025634e+01	-1.634512e+01
9.077766e+01	-1.639518e+01
9.130199e+01	-1.644438e+01
9.182935e+01	-1.649261e+01
9.235975e+01	-1.654158e+01
9.289321e+01	-1.659073e+01
9.342976e+01	-1.663897e+01
9.396941e+01	-1.668947e+01
9.451217e+01	-1.673716e+01
9.505807e+01	-1.678639e+01
9.560712e+01	-1.683396e+01
9.615934e+01	-1.688436e+01
9.671476e+01	-1.693274e+01
9.727338e+01	-1.698163e+01
9.783522e+01	-1.703082e+01
9.840032e+01	-1.708113e+01
9.896867e+01	-1.712922e+01
9.954031e+01	-1.717804e+01
1.001153e+02	-1.722786e+01
1.006935e+02	-1.727669e+01
1.012751e+02	-1.732600e+01
1.018601e+02	-1.737458e+01
1.024484e+02	-1.742411e+01
1.030402e+02	-1.747281e+01
1.036353e+02	-1.752202e+01
1.042339e+02	-1.757119e+01
1.048360e+02	-1.762021e+01
1.054415e+02	-1.766948e+01
1.060505e+02	-1.771895e+01
1.066631e+02	-1.776859e+01
1.072791e+02	-1.781658e+01
1.078988e+02	-1.786675e+01
1.085220e+02	-1.791555e+01
1.091488e+02	-1.796434e+01
1.097793e+02	-1.801510e+01
1.104133e+02	-1.806309e+01
1.110511e+02	-1.811294e+01
1.116925e+02	-1.816314e+01
1.123376e+02	-1.821083e+01
1.129865e+02	-1.825916e+01
1.136391e+02	-1.830958e+01
1.142955e+02	-1.835859e+01
1.149556e+02	-1.840876e+01
1.156196e+02	-1.845760e+01
1.162874e+02	-1.850798e+01
1.169591e+02	-1.855718e+01
1.176347e+02	-1.860717e+01
1.183141e+02	-1.865447e+01
1.189975e+02	-1.870358e+01
1.196848e+02	-1.875474e+01
1.203761e+02	-1.880408e+01
1.210714e+02	-1.885149e+01
1.217707e+02	-1.890165e+01
1.224740e+02	-1.895142e+01
1.231814e+02	-1.900202e+01
1.238929e+02	-1.905029e+01
1.246085e+02	-1.909930e+01
1.253283e+02	-1.914847e+01
1.260522e+02	-1.919798e+01
1.267802e+02	-1.924654e+01
1.275125e+02	-1.929780e+01
1.282490e+02	-1.934759e+01
1.289898e+02	-1.939653e+01
1.297348e+02	-1.944595e+01
1.304842e+02	-1.949469e+01
1.312378e+02	-1.954565e+01
1.319959e+02	-1.959460e+01
1.327583e+02	-1.964339e+01
1.335251e+02	-1.969371e+01
1.342963e+02	-1.974346e+01
1.350720e+02	-1.979266e+01
1.358522e+02	-1.984247e+01
1.366368e+02	-1.988964e+01
1.374260e+02	-1.994030e+01
1.382198e+02	-1.999155e+01
1.390182e+02	-2.003910e+01
1.398211e+02	-2.008975e+01
1.406287e+02	-2.013965e+01
1.414410e+02	-2.018667e+01
1.422579e+02	-2.023841e+01
1.430796e+02	-2.028775e+01
1.439060e+02	-2.033781e+01
1.447372e+02	-2.038608e+01
1.455732e+02	-2.043642e+01
1.464141e+02	-2.048685e+01
1.472597e+02	-2.053221e+01
1.481103e+02	-2.058515e+01
1.489658e+02	-2.063351e+01
1.498262e+02	-2.068395e+01
1.506916e+02	-2.073415e+01
1.515620e+02	-2.078300e+01
1.524374e+02	-2.083374e+01
1.533179e+02	-2.088211e+01
1.542034e+02	-2.093468e+01
1.550941e+02	-2.098231e+01
1.559899e+02	-2.103314e+01
1.568909e+02	-2.108107e+01
1.577971e+02	-2.113056e+01
1.587085e+02	-2.117959e+01
1.596252e+02	-2.123024e+01
1.605472e+02	-2.127954e+01
1.614745e+02	-2.133030e+01
1.624072e+02	-2.138071e+01
1.633453e+02	-2.142920e+01
1.642887e+02	-2.147753e+01
1.652377e+02	-2.152951e+01
1.661921e+02	-2.157637e+01
1.671520e+02	-2.163025e+01
1.681175e+02	-2.167799e+01
1.690885e+02	-2.172755e+01
1.700651e+02	-2.177805e+01
1.710474e+02	-2.182763e+01
1.720354e+02	-2.187659e+01
1.730291e+02	-2.192425e+01
1.740285e+02	-2.197675e+01
1.750337e+02	-2.202384e+01
1.760446e+02	-2.207559e+01
1.770615e+02	-2.212540e+01
1.780842e+02	-2.217763e+01
1.791128e+02	-2.222336e+01
1.801473e+02	-2.227191e+01
1.811878e+02	-2.232438e+01
1.822344e+02	-2.237369e+01
1.832870e+02	-2.242348e+01
1.843456e+02	-2.247417e+01
1.854104e+02	-2.252508e+01
1.864813e+02	-2.257170e+01
1.875584e+02	-2.262450e+01
1.886418e+02	-2.267224e+01
1.897313e+02	-2.272064e+01
1.908272e+02	-2.277013e+01
1.919294e+02	-2.282166e+01
1.930380e+02	-2.287110e+01
1.941530e+02	-2.292111e+01
1.952744e+02	-2.297143e+01
1.964023e+02	-2.302079e+01
1.975367e+02	-2.306965e+01
1.986777e+02	-2.311857e+01
1.998252e+02	-2.317131e+01
2.009794e+02	-2.321955e+01
2.021403e+02	-2.327028e+01
2.033078e+02	-2.331908e+01
2.044821e+02	-2.336715e+01
2.056632e+02	-2.342138e+01
2.068511e+02	-2.346655e+01
2.080459e+02	-2.351756e+01
2.092475e+02	-2.356832e+01
2.104561e+02	-2.362080e+01
2.116717e+02	-2.366966e+01
2.128943e+02	-2.371963e+01
2.141240e+02	-2.377045e+01
2.153608e+02	-2.381901e+01
2.166047e+02	-2.387059e+01
2.178558e+02	-2.391884e+01
2.191141e+02	-2.396808e+01
2.203797e+02	-2.401573e+01
2.216526e+02	-2.406598e+01
2.229329e+02	-2.411824e+01
2.242205e+02	-2.416637e+01
2.255156e+02	-2.421545e+01
2.268182e+02	-2.426704e+01
2.281283e+02	-2.431858e+01
2.294459e+02	-2.436736e+01
2.307712e+02	-2.441475e+01
2.321041e+02	-2.446407e+01
2.334447e+02	-2.451653e+01
2.347931e+02	-2.456662e+01
2.361493e+02	-2.461670e+01
2.375133e+02	-2.466673e+01
2.388851e+02	-2.471584e+01
2.402649e+02	-2.476807e+01
2.416527e+02	-2.481663e+01
2.430484e+02	-2.486473e+01
2.444523e+02	-2.491189e+01
2.458642e+02	-2.496618e+01
2.472843e+02	-2.501600e+01
2.487126e+02	-2.506472e+01
2.501492e+02	-2.511416e+01
2.515940e+02	-2.516121e+01
2.530472e+02	-2.521598e+01
2.545088e+02	-2.526352e+01
2.559789e+02	-2.531887e+01
2.574574e+02	-2.536408e+01
2.589444e+02	-2.541619e+01
2.604401e+02	-2.546341e+01
2.619444e+02	-2.551455e+01
2.634574e+02	-2.556230e+01
2.649791e+02	-2.561818e+01
2.665096e+02	-2.566147e+01
2.680489e+02	-2.571295e+01
2.695972e+02	-2.576631e+01
2.711544e+02	-2.581534e+01
2.727205e+02	-2.586760e+01
2.742958e+02	-2.591568e+01
2.758801e+02	-2.596455e+01
2.774736e+02	-2.601476e+01
2.790762e+02	-2.606515e+01
2.806882e+02	-2.611176e+01
2.823094e+02	-2.616310e+01
2.839400e+02	-2.621164e+01
2.855800e+02	-2.626610e+01
2.872295e+02	-2.631600e+01
2.888886e+02	-2.636432e+01
2.905572e+02	-2.641424e+01
2.922354e+02	-2.646478e+01
2.939234e+02	-2.651406e+01
2.956211e+02	-2.656295e+01
2.973286e+02	-2.661452e+01
2.990459e+02	-2.666502e+01
3.007732e+02	-2.671485e+01
3.025104e+02	-2.676433e+01
3.042577e+02	-2.681531e+01
3.060151e+02	-2.686677e+01
3.077826e+02	-2.691370e+01
3.095604e+02	-2.696401e+01
3.113484e+02	-2.701442e+01
3.131467e+02	-2.706708e+01
3.149554e+02	-2.711222e+01
3.167746e+02	-2.716547e+01
3.186043e+02	-2.721110e+01
3.204445e+02	-2.726183e+01
3.222954e+02	-2.731124e+01
3.241570e+02	-2.736264e+01
3.260293e+02	-2.741343e+01
3.279124e+02	-2.746584e+01
3.298064e+02	-2.751504e+01
3.317114e+02	-2.756081e+01
3.336273e+02	-2.761616e+01
3.355544e+02	-2.766506e+01
3.374925e+02	-2.771358e+01
3.394418e+02	-2.776296e+01
3.414024e+02	-2.781596e+01
3.433744e+02	-2.786469e+01
3.453577e+02	-2.791771e+01
3.473525e+02	-2.796576e+01
3.493588e+02	-2.801626e+01
3.513766e+02	-2.806474e+01
3.534062e+02	-2.811753e+01
3.554474e+02	-2.816610e+01
3.575005e+02	-2.821152e+01
3.595654e+02	-2.826232e+01
3.616422e+02	-2.831283e+01
3.637311e+02	-2.836325e+01
3.658320e+02	-2.841240e+01
3.679450e+02	-2.846579e+01
3.700702e+02	-2.851185e+01
3.722077e+02	-2.856586e+01
3.743576e+02	-2.861692e+01
3.765199e+02	-2.866436e+01
3.786946e+02	-2.871132e+01
3.808820e+02	-2.876407e+01
3.830819e+02	-2.881751e+01
3.852946e+02	-2.886732e+01
3.875200e+02	-2.891702e+01
3.897583e+02	-2.896142e+01
3.920096e+02	-2.901429e+01
3.942738e+02	-2.906818e+01
3.965511e+02	-2.911683e+01
3.988416e+02	-2.916756e+01
4.011452e+02	-2.921254e+01
4.034622e+02	-2.926544e+01
4.057926e+02	-2.931843e+01
4.081365e+02	-2.936819e+01
4.104938e+02	-2.941738e+01
4.128648e+02	-2.946415e+01
4.152495e+02	-2.951575e+01
4.176480e+02	-2.956738e+01
4.200603e+02	-2.961189e+01
4.224866e+02	-2.966594e+01
4.249268e+02	-2.971694e+01
4.273812e+02	-2.976388e+01
4.298497e+02	-2.981604e+01
4.323325e+02	-2.986483e+01
4.348297e+02	-2.991724e+01
4.373412e+02	-2.996258e+01
4.398673e+02	-3.001618e+01
4.424079e+02	-3.006987e+01
4.449633e+02	-3.011191e+01
4.475334e+02	-3.016819e+01
4.501183e+02	-3.021412e+01
4.527182e+02	-3.026287e+01
4.553330e+02	-3.032053e+01
4.579630e+02	-3.036970e+01
4.606082e+02	-3.042132e+01
4.632687e+02	-3.046863e+01
4.659445e+02	-3.051955e+01
4.686358e+02	-3.057009e+01
4.713426e+02	-3.061911e+01
4.740650e+02	-3.066897e+01
4.768032e+02	-3.071809e+01
4.795572e+02	-3.076909e+01
4.823271e+02	-3.082121e+01
4.851130e+02	-3.087372e+01
4.879150e+02	-3.091607e+01
4.907332e+02	-3.097016e+01
4.935676e+02	-3.102176e+01
4.964185e+02	-3.106568e+01
4.992858e+02	-3.112179e+01
5.021696e+02	-3.117250e+01
5.050701e+02	-3.121920e+01
5.079874e+02	-3.127541e+01
5.109215e+02	-3.132444e+01
5.138726e+02	-3.136705e+01
5.168407e+02	-3.142155e+01
5.198259e+02	-3.146633e+01
5.228284e+02	-3.152263e+01
5.258482e+02	-3.156847e+01
5.288855e+02	-3.161800e+01
5.319403e+02	-3.167787e+01
5.350128e+02	-3.172281e+01
5.381030e+02	-3.176893e+01
5.412111e+02	-3.182187e+01
5.443371e+02	-3.187334e+01
5.474812e+02	-3.192371e+01
5.506434e+02	-3.197196e+01
5.538239e+02	-3.202159e+01
5.570228e+02	-3.207260e+01
5.602401e+02	-3.212616e+01
5.634760e+02	-3.217770e+01
5.667306e+02	-3.222318e+01
5.700040e+02	-3.227380e+01
5.732964e+02	-3.232856e+01
5.766077e+02	-3.237652e+01
5.799382e+02	-3.243085e+01
5.832879e+02	-3.247237e+01
5.866569e+02	-3.253367e+01
5.900454e+02	-3.257730e+01
5.934535e+02	-3.262756e+01
5.968813e+02	-3.267812e+01
6.003288e+02	-3.272652e+01
6.037963e+02	-3.277495e+01
6.072838e+02	-3.282572e+01
6.107914e+02	-3.288153e+01
6.143194e+02	-3.292793e+01
6.178676e+02	-3.298133e+01
6.214364e+02	-3.303153e+01
6.250258e+02	-3.308187e+01
6.286359e+02	-3.312917e+01
6.322669e+02	-3.316990e+01
6.359189e+02	-3.323172e+01
6.395919e+02	-3.328833e+01
6.432862e+02	-3.333060e+01
6.470017e+02	-3.337707e+01
6.507388e+02	-3.343623e+01
6.544974e+02	-3.348385e+01
6.582778e+02	-3.353264e+01
6.620800e+02	-3.358138e+01
6.659041e+02	-3.363396e+01
6.697504e+02	-3.367586e+01
6.736188e+02	-3.373185e+01
6.775096e+02	-3.379597e+01
6.814229e+02	-3.383428e+01
6.853587e+02	-3.388278e+01
6.893173e+02	-3.393499e+01
6.932988e+02	-3.398059e+01
6.973033e+02	-3.404009e+01
7.013309e+02	-3.409187e+01
