Frequency(Hz)	Magnitude(dB)
1.000000e+01	-2.050384e+00
1.005776e+01	-2.069249e+00
1.011585e+01	-2.088486e+00
1.017428e+01	-2.107621e+00
1.023305e+01	-2.126818e+00
1.029215e+01	-2.146316e+00
1.035160e+01	-2.165799e+00
1.041139e+01	-2.185336e+00
1.047153e+01	-2.205320e+00
1.053201e+01	-2.225400e+00
1.059284e+01	-2.245560e+00
1.065403e+01	-2.265965e+00
1.071556e+01	-2.286227e+00
1.077746e+01	-2.306808e+00
1.083971e+01	-2.327544e+00
1.090232e+01	-2.348227e+00
1.096529e+01	-2.369227e+00
1.102862e+01	-2.390379e+00
1.109232e+01	-2.411629e+00
1.115639e+01	-2.432866e+00
1.122083e+01	-2.454303e+00
1.128564e+01	-2.476164e+00
1.135083e+01	-2.497937e+00
1.141639e+01	-2.519916e+00
1.148233e+01	-2.542011e+00
1.154865e+01	-2.564283e+00
1.161536e+01	-2.586550e+00
1.168245e+01	-2.609203e+00
1.174992e+01	-2.631730e+00
1.181779e+01	-2.654565e+00
1.188605e+01	-2.677472e+00
1.195470e+01	-2.700399e+00
1.202375e+01	-2.723621e+00
1.209320e+01	-2.747012e+00
1.216305e+01	-2.770679e+00
1.223330e+01	-2.794317e+00
1.230396e+01	-2.818377e+00
1.237503e+01	-2.842360e+00
1.244651e+01	-2.866308e+00
1.251840e+01	-2.890751e+00
1.259070e+01	-2.914962e+00
1.266343e+01	-2.939520e+00
1.273657e+01	-2.964212e+00
1.281014e+01	-2.988901e+00
1.288413e+01	-3.013924e+00
1.295855e+01	-3.039070e+00
1.303339e+01	-3.064204e+00
1.310867e+01	-3.089924e+00
1.318439e+01	-3.115250e+00
1.326054e+01	-3.140880e+00
1.333713e+01	-3.166601e+00
1.341417e+01	-3.192787e+00
1.349165e+01	-3.218744e+00
1.356958e+01	-3.245027e+00
1.364795e+01	-3.271476e+00
1.372678e+01	-3.297882e+00
1.380607e+01	-3.324839e+00
1.388581e+01	-3.351681e+00
1.396602e+01	-3.378497e+00
1.404668e+01	-3.405649e+00
1.412782e+01	-3.432920e+00
1.420942e+01	-3.460329e+00
1.429149e+01	-3.487975e+00
1.437404e+01	-3.515510e+00
1.445706e+01	-3.543565e+00
1.454057e+01	-3.571383e+00
1.462455e+01	-3.599130e+00
1.470902e+01	-3.627657e+00
1.479398e+01	-3.655919e+00
1.487943e+01	-3.684584e+00
1.496537e+01	-3.713267e+00
1.505181e+01	-3.742116e+00
1.513875e+01	-3.770725e+00
1.522619e+01	-3.800260e+00
1.531414e+01	-3.829353e+00
1.540259e+01	-3.858916e+00
1.549156e+01	-3.888342e+00
1.558103e+01	-3.918141e+00
1.567103e+01	-3.947677e+00
1.576155e+01	-3.977927e+00
1.585258e+01	-4.007901e+00
1.594415e+01	-4.038043e+00
1.603624e+01	-4.068471e+00
1.612886e+01	-4.098706e+00
1.622202e+01	-4.129618e+00
1.631572e+01	-4.160298e+00
1.640996e+01	-4.190897e+00
1.650474e+01	-4.222223e+00
1.660008e+01	-4.253202e+00
1.669596e+01	-4.284543e+00
1.679239e+01	-4.316124e+00
1.688938e+01	-4.347965e+00
1.698694e+01	-4.379339e+00
1.708505e+01	-4.411204e+00
1.718373e+01	-4.443096e+00
1.728299e+01	-4.475310e+00
1.738281e+01	-4.507384e+00
1.748322e+01	-4.539916e+00
1.758420e+01	-4.572440e+00
1.768576e+01	-4.605070e+00
1.778792e+01	-4.637808e+00
1.789066e+01	-4.670398e+00
1.799399e+01	-4.703588e+00
1.809793e+01	-4.736816e+00
1.820246e+01	-4.770091e+00
1.830760e+01	-4.803599e+00
1.841334e+01	-4.837275e+00
1.851969e+01	-4.870834e+00
1.862666e+01	-4.904732e+00
1.873425e+01	-4.938199e+00
1.884246e+01	-4.972454e+00
1.895129e+01	-5.006847e+00
1.906075e+01	-5.041014e+00
1.917085e+01	-5.075452e+00
1.928158e+01	-5.110039e+00
1.939295e+01	-5.144652e+00
1.950496e+01	-5.179568e+00
1.961762e+01	-5.214449e+00
1.973093e+01	-5.249314e+00
1.984490e+01	-5.284407e+00
1.995952e+01	-5.319678e+00
2.007480e+01	-5.355060e+00
2.019076e+01	-5.390480e+00
2.030738e+01	-5.426238e+00
2.042467e+01	-5.462041e+00
2.054264e+01	-5.497907e+00
2.066130e+01	-5.533738e+00
2.078064e+01	-5.569704e+00
2.090066e+01	-5.606036e+00
2.102139e+01	-5.642739e+00
2.114280e+01	-5.678866e+00
2.126492e+01	-5.715279e+00
2.138775e+01	-5.751845e+00
2.151128e+01	-5.789054e+00
2.163553e+01	-5.825753e+00
2.176050e+01	-5.862788e+00
2.188619e+01	-5.899973e+00
2.201260e+01	-5.937064e+00
2.213974e+01	-5.974334e+00
2.226762e+01	-6.012033e+00
2.239624e+01	-6.049348e+00
2.252560e+01	-6.087384e+00
2.265571e+01	-6.124882e+00
2.278656e+01	-6.163028e+00
2.291818e+01	-6.200631e+00
2.305055e+01	-6.239004e+00
2.318369e+01	-6.276813e+00
2.331760e+01	-6.315329e+00
2.345228e+01	-6.353406e+00
2.358774e+01	-6.391977e+00
2.372398e+01	-6.430997e+00
2.386101e+01	-6.469373e+00
2.399883e+01	-6.508280e+00
2.413745e+01	-6.547148e+00
2.427686e+01	-6.586144e+00
2.441709e+01	-6.625086e+00
2.455812e+01	-6.664550e+00
2.469997e+01	-6.703779e+00
2.484263e+01	-6.743609e+00
2.498612e+01	-6.782573e+00
2.513044e+01	-6.821901e+00
2.527559e+01	-6.861914e+00
2.542158e+01	-6.901757e+00
2.556842e+01	-6.941338e+00
2.571610e+01	-6.981613e+00
2.586463e+01	-7.021932e+00
2.601403e+01	-7.061427e+00
2.616428e+01	-7.101907e+00
2.631541e+01	-7.142474e+00
2.646740e+01	-7.182660e+00
2.662028e+01	-7.223157e+00
2.677404e+01	-7.263424e+00
2.692868e+01	-7.304372e+00
2.708422e+01	-7.344910e+00
2.724066e+01	-7.386294e+00
2.739800e+01	-7.427089e+00
2.755625e+01	-7.467745e+00
2.771541e+01	-7.508955e+00
2.787550e+01	-7.550461e+00
2.803650e+01	-7.591476e+00
2.819844e+01	-7.632925e+00
2.836131e+01	-7.674349e+00
2.852513e+01	-7.715969e+00
2.868989e+01	-7.757590e+00
2.885560e+01	-7.798793e+00
2.902227e+01	-7.841188e+00
2.918990e+01	-7.882452e+00
2.935850e+01	-7.924699e+00
2.952807e+01	-7.966754e+00
2.969863e+01	-8.008679e+00
2.987016e+01	-8.050679e+00
3.004269e+01	-8.093101e+00
3.021622e+01	-8.135591e+00
3.039075e+01	-8.177689e+00
3.056628e+01	-8.219993e+00
3.074283e+01	-8.262680e+00
3.092040e+01	-8.305510e+00
3.109900e+01	-8.347660e+00
3.127862e+01	-8.390721e+00
3.145929e+01	-8.433960e+00
3.164099e+01	-8.476808e+00
3.182375e+01	-8.519654e+00
3.200756e+01	-8.562651e+00
3.219244e+01	-8.605934e+00
3.237838e+01	-8.648474e+00
3.256540e+01	-8.691691e+00
3.275349e+01	-8.734720e+00
3.294268e+01	-8.778340e+00
3.313295e+01	-8.822202e+00
3.332433e+01	-8.865622e+00
3.351681e+01	-8.908870e+00
3.371040e+01	-8.952955e+00
3.390511e+01	-8.996585e+00
3.410094e+01	-9.040144e+00
3.429791e+01	-9.084085e+00
3.449601e+01	-9.127963e+00
3.469526e+01	-9.171927e+00
3.489566e+01	-9.215143e+00
3.509721e+01	-9.259516e+00
3.529993e+01	-9.303896e+00
3.550382e+01	-9.348248e+00
3.570889e+01	-9.392415e+00
3.591515e+01	-9.437005e+00
3.612259e+01	-9.481213e+00
3.633123e+01	-9.525725e+00
3.654108e+01	-9.569978e+00
3.675214e+01	-9.614144e+00
3.696442e+01	-9.659043e+00
3.717792e+01	-9.703532e+00
3.739266e+01	-9.748438e+00
3.760864e+01	-9.793070e+00
3.782587e+01	-9.838184e+00
3.804435e+01	-9.882976e+00
3.826409e+01	-9.927927e+00
3.848510e+01	-9.972988e+00
3.870739e+01	-1.001760e+01
3.893096e+01	-1.006278e+01
3.915583e+01	-1.010807e+01
3.938199e+01	-1.015293e+01
3.960946e+01	-1.019781e+01
3.983824e+01	-1.024354e+01
4.006834e+01	-1.028872e+01
4.029978e+01	-1.033449e+01
4.053255e+01	-1.038006e+01
4.076666e+01	-1.042519e+01
4.100213e+01	-1.047055e+01
4.123896e+01	-1.051598e+01
4.147715e+01	-1.056148e+01
4.171672e+01	-1.060791e+01
4.195767e+01	-1.065341e+01
4.220002e+01	-1.069870e+01
4.244377e+01	-1.074495e+01
4.268892e+01	-1.079055e+01
4.293549e+01	-1.083664e+01
4.318348e+01	-1.088267e+01
4.343291e+01	-1.092876e+01
4.368377e+01	-1.097450e+01
4.393609e+01	-1.102088e+01
4.418986e+01	-1.106650e+01
4.444510e+01	-1.111250e+01
4.470182e+01	-1.115823e+01
4.496001e+01	-1.120502e+01
4.521970e+01	-1.125104e+01
4.548089e+01	-1.129752e+01
4.574358e+01	-1.134382e+01
4.600779e+01	-1.139011e+01
4.627353e+01	-1.143643e+01
4.654081e+01	-1.148308e+01
4.680963e+01	-1.153013e+01
4.708000e+01	-1.157597e+01
4.735193e+01	-1.162282e+01
4.762543e+01	-1.166955e+01
4.790051e+01	-1.171627e+01
4.817719e+01	-1.176224e+01
4.845545e+01	-1.180965e+01
4.873533e+01	-1.185642e+01
4.901682e+01	-1.190276e+01
4.929994e+01	-1.194958e+01
4.958470e+01	-1.199659e+01
4.987110e+01	-1.204402e+01
5.015915e+01	-1.209012e+01
5.044887e+01	-1.213800e+01
5.074026e+01	-1.218431e+01
5.103333e+01	-1.223138e+01
5.132810e+01	-1.227831e+01
5.162457e+01	-1.232506e+01
5.192275e+01	-1.237252e+01
5.222265e+01	-1.241937e+01
5.252429e+01	-1.246671e+01
5.282767e+01	-1.251465e+01
5.313280e+01	-1.256147e+01
5.343969e+01	-1.260815e+01
5.374836e+01	-1.265592e+01
5.405880e+01	-1.270296e+01
5.437105e+01	-1.275074e+01
5.468509e+01	-1.279792e+01
5.500095e+01	-1.284508e+01
5.531863e+01	-1.289251e+01
5.563815e+01	-1.294038e+01
5.595951e+01	-1.298806e+01
5.628273e+01	-1.303472e+01
5.660782e+01	-1.308303e+01
5.693479e+01	-1.313046e+01
5.726364e+01	-1.317714e+01
5.759439e+01	-1.322640e+01
5.792705e+01	-1.327377e+01
5.826164e+01	-1.332069e+01
5.859815e+01	-1.336859e+01
5.893662e+01	-1.341660e+01
5.927703e+01	-1.346439e+01
5.961941e+01	-1.351256e+01
5.996377e+01	-1.355982e+01
6.031012e+01	-1.360884e+01
6.065847e+01	-1.365555e+01
6.100883e+01	-1.370343e+01
6.136121e+01	-1.375114e+01
6.171563e+01	-1.379959e+01
6.207210e+01	-1.384716e+01
6.243063e+01	-1.389499e+01
6.279122e+01	-1.394359e+01
6.315390e+01	-1.399114e+01
6.351868e+01	-1.403931e+01
6.388556e+01	-1.408747e+01
6.425456e+01	-1.413479e+01
6.462569e+01	-1.418457e+01
6.499897e+01	-1.423107e+01
6.537440e+01	-1.428028e+01
6.575200e+01	-1.432788e+01
6.613178e+01	-1.437642e+01
6.651375e+01	-1.442397e+01
6.689793e+01	-1.447192e+01
6.728433e+01	-1.452066e+01
6.767297e+01	-1.456901e+01
6.806384e+01	-1.461789e+01
6.845698e+01	-1.466577e+01
6.885238e+01	-1.471366e+01
6.925007e+01	-1.476222e+01
6.965005e+01	-1.481099e+01
7.005235e+01	-1.485959e+01
7.045697e+01	-1.490775e+01
7.086393e+01	-1.495628e+01
7.127323e+01	-1.500461e+01
7.168490e+01	-1.505243e+01
7.209895e+01	-1.510083e+01
7.251539e+01	-1.515027e+01
7.293424e+01	-1.519747e+01
7.335551e+01	-1.524692e+01
7.377920e+01	-1.529560e+01
7.420535e+01	-1.534376e+01
7.463396e+01	-1.539297e+01
7.506504e+01	-1.544228e+01
7.549861e+01	-1.549002e+01
7.593469e+01	-1.553789e+01
7.637328e+01	-1.558761e+01
7.681441e+01	-1.563565e+01
7.725809e+01	-1.568429e+01
7.770433e+01	-1.573291e+01
7.815315e+01	-1.578185e+01
7.860456e+01	-1.583084e+01
7.905857e+01	-1.588004e+01
7.951521e+01	-1.592766e+01
7.997449e+01	-1.597620e+01
8.043642e+01	-1.602581e+01
8.090102e+01	-1.607461e+01
8.136830e+01	-1.612227e+01
8.183828e+01	-1.617159e+01
8.231097e+01	-1.622060e+01
8.278640e+01	-1.626935e+01
8.326457e+01	-1.631883e+01
8.374550e+01	-1.636729e+01
8.422921e+01	-1.641684e+01
8.471572e+01	-1.646380e+01
8.520503e+01	-1.651387e+01
8.569717e+01	-1.656395e+01
8.619215e+01	-1.661264e+01
8.669000e+01	-1.666121e+01
8.719071e+01	-1.670981e+01
8.769432e+01	-1.675890e+01
8.820084e+01	-1.680758e+01
8.871029e+01	-1.685659e+01
8.922267e+01	-1.690514e+01
8.973802e+01	-1.695609e+01
9.025634e+01	-1.700460e+01
9.077766e+01	-1.705253e+01
9.130199e+01	-1.710240e+01
9.182935e+01	-1.714995e+01
9.235975e+01	-1.719938e+01
9.289321e+01	-1.724798e+01
9.342976e+01	-1.729847e+01
9.396941e+01	-1.734737e+01
9.451217e+01	-1.739727e+01
9.505807e+01	-1.744545e+01
9.560712e+01	-1.749437e+01
9.615934e+01	-1.754392e+01
9.671476e+01	-1.759310e+01
9.727338e+01	-1.764124e+01
9.783522e+01	-1.769224e+01
9.840032e+01	-1.774074e+01
9.896867e+01	-1.778952e+01
9.954031e+01	-1.784100e+01
1.001153e+02	-1.788838e+01
1.006935e+02	-1.793731e+01
1.012751e+02	-1.798598e+01
1.018601e+02	-1.803632e+01
1.024484e+02	-1.808538e+01
1.030402e+02	-1.813398e+01
1.036353e+02	-1.818340e+01
1.042339e+02	-1.823160e+01
1.048360e+02	-1.828280e+01
1.054415e+02	-1.833074e+01
1.060505e+02	-1.838032e+01
1.066631e+02	-1.843058e+01
1.072791e+02	-1.847904e+01
1.078988e+02	-1.852888e+01
1.085220e+02	-1.857815e+01
1.091488e+02	-1.862903e+01
1.097793e+02	-1.867657e+01
1.104133e+02	-1.872560e+01
1.110511e+02	-1.877421e+01
1.116925e+02	-1.882454e+01
1.123376e+02	-1.887428e+01
1.129865e+02	-1.892454e+01
1.136391e+02	-1.897312e+01
1.142955e+02	-1.902219e+01
1.149556e+02	-1.907153e+01
1.156196e+02	-1.912108e+01
1.162874e+02	-1.917172e+01
1.169591e+02	-1.922037e+01
1.176347e+02	-1.926947e+01
1.183141e+02	-1.931919e+01
1.189975e+02	-1.936853e+01
1.196848e+02	-1.941781e+01
1.203761e+02	-1.946770e+01
1.210714e+02	-1.951610e+01
1.217707e+02	-1.956487e+01
1.224740e+02	-1.961555e+01
1.231814e+02	-1.966494e+01
1.238929e+02	-1.971595e+01
1.246085e+02	-1.976377e+01
1.253283e+02	-1.981371e+01
1.260522e+02	-1.986201e+01
1.267802e+02	-1.991137e+01
1.275125e+02	-1.996189e+01
1.282490e+02	-2.001166e+01
1.289898e+02	-2.006143e+01
1.297348e+02	-2.011120e+01
1.304842e+02	-2.015994e+01
1.312378e+02	-2.020909e+01
1.319959e+02	-2.026014e+01
1.327583e+02	-2.030821e+01
1.335251e+02	-2.035912e+01
1.342963e+02	-2.040783e+01
1.350720e+02	-2.045905e+01
1.358522e+02	-2.050595e+01
1.366368e+02	-2.055702e+01
1.374260e+02	-2.060592e+01
1.382198e+02	-2.065679e+01
1.390182e+02	-2.070490e+01
1.398211e+02	-2.075533e+01
1.406287e+02	-2.080429e+01
1.414410e+02	-2.085489e+01
1.422579e+02	-2.090357e+01
1.430796e+02	-2.095487e+01
1.439060e+02	-2.100327e+01
1.447372e+02	-2.105389e+01
1.455732e+02	-2.110276e+01
1.464141e+02	-2.115335e+01
1.472597e+02	-2.120264e+01
1.481103e+02	-2.125104e+01
1.489658e+02	-2.130106e+01
1.498262e+02	-2.135176e+01
1.506916e+02	-2.140127e+01
1.515620e+02	-2.145251e+01
1.524374e+02	-2.150094e+01
1.533179e+02	-2.155064e+01
1.542034e+02	-2.160146e+01
1.550941e+02	-2.164874e+01
1.559899e+02	-2.170017e+01
1.568909e+02	-2.174886e+01
1.577971e+02	-2.179917e+01
1.587085e+02	-2.184784e+01
1.596252e+02	-2.189678e+01
1.605472e+02	-2.194827e+01
1.614745e+02	-2.199592e+01
1.624072e+02	-2.204849e+01
1.633453e+02	-2.209615e+01
1.642887e+02	-2.214492e+01
1.652377e+02	-2.219553e+01
1.661921e+02	-2.224596e+01
1.671520e+02	-2.229413e+01
1.681175e+02	-2.234634e+01
1.690885e+02	-2.239393e+01
1.700651e+02	-2.244591e+01
1.710474e+02	-2.249331e+01
1.720354e+02	-2.254619e+01
1.730291e+02	-2.259336e+01
1.740285e+02	-2.264326e+01
1.750337e+02	-2.269458e+01
1.760446e+02	-2.274336e+01
1.770615e+02	-2.279267e+01
1.780842e+02	-2.284188e+01
1.791128e+02	-2.289478e+01
1.801473e+02	-2.294261e+01
1.811878e+02	-2.299298e+01
1.822344e+02	-2.304259e+01
1.832870e+02	-2.309100e+01
1.843456e+02	-2.314215e+01
1.854104e+02	-2.319316e+01
1.864813e+02	-2.324393e+01
1.875584e+02	-2.329110e+01
1.886418e+02	-2.333981e+01
1.897313e+02	-2.339194e+01
1.908272e+02	-2.344232e+01
1.919294e+02	-2.349253e+01
1.930380e+02	-2.353862e+01
1.941530e+02	-2.359087e+01
1.952744e+02	-2.363896e+01
1.964023e+02	-2.369045e+01
1.975367e+02	-2.373982e+01
1.986777e+02	-2.379020e+01
1.998252e+02	-2.384066e+01
2.009794e+02	-2.388970e+01
2.021403e+02	-2.393935e+01
2.033078e+02	-2.398970e+01
2.044821e+02	-2.404026e+01
2.056632e+02	-2.409068e+01
2.068511e+02	-2.413906e+01
2.080459e+02	-2.418753e+01
2.092475e+02	-2.423994e+01
2.104561e+02	-2.429133e+01
2.116717e+02	-2.433756e+01
2.128943e+02	-2.438935e+01
2.141240e+02	-2.443598e+01
2.153608e+02	-2.448629e+01
2.166047e+02	-2.453973e+01
2.178558e+02	-2.458690e+01
2.191141e+02	-2.463989e+01
2.203797e+02	-2.468968e+01
2.216526e+02	-2.473731e+01
2.229329e+02	-2.478681e+01
2.242205e+02	-2.483672e+01
2.255156e+02	-2.488820e+01
2.268182e+02	-2.494094e+01
2.281283e+02	-2.499018e+01
2.294459e+02	-2.503739e+01
2.307712e+02	-2.508421e+01
2.321041e+02	-2.513580e+01
2.334447e+02	-2.518605e+01
2.347931e+02	-2.523367e+01
2.361493e+02	-2.528916e+01
2.375133e+02	-2.533827e+01
2.388851e+02	-2.538512e+01
2.402649e+02	-2.543710e+01
2.416527e+02	-2.548724e+01
2.430484e+02	-2.553331e+01
2.444523e+02	-2.558631e+01
2.458642e+02	-2.563670e+01
2.472843e+02	-2.568651e+01
2.487126e+02	-2.573595e+01
2.501492e+02	-2.578359e+01
2.515940e+02	-2.583600e+01
2.530472e+02	-2.588646e+01
2.545088e+02	-2.593626e+01
2.559789e+02	-2.598626e+01
2.574574e+02	-2.603670e+01
2.589444e+02	-2.608655e+01
2.604401e+02	-2.613539e+01
2.619444e+02	-2.618407e+01
2.634574e+02	-2.623523e+01
2.649791e+02	-2.628502e+01
2.665096e+02	-2.633400e+01
2.680489e+02	-2.638823e+01
2.695972e+02	-2.643866e+01
2.711544e+02	-2.648492e+01
2.727205e+02	-2.653696e+01
2.742958e+02	-2.658758e+01
2.758801e+02	-2.663626e+01
2.774736e+02	-2.668421e+01
2.790762e+02	-2.673494e+01
2.806882e+02	-2.678944e+01
2.823094e+02	-2.683258e+01
2.839400e+02	-2.688611e+01
2.855800e+02	-2.693539e+01
2.872295e+02	-2.698317e+01
2.888886e+02	-2.703522e+01
2.905572e+02	-2.708368e+01
2.922354e+02	-2.713866e+01
2.939234e+02	-2.718288e+01
2.956211e+02	-2.723504e+01
2.973286e+02	-2.728301e+01
2.990459e+02	-2.733588e+01
3.007732e+02	-2.738542e+01
3.025104e+02	-2.743759e+01
3.042577e+02	-2.748453e+01
3.060151e+02	-2.753521e+01
3.077826e+02	-2.758587e+01
3.095604e+02	-2.763732e+01
3.113484e+02	-2.768676e+01
3.131467e+02	-2.773790e+01
3.149554e+02	-2.778408e+01
3.167746e+02	-2.783193e+01
3.186043e+02	-2.788709e+01
3.204445e+02	-2.793462e+01
3.222954e+02	-2.799055e+01
3.241570e+02	-2.803664e+01
3.260293e+02	-2.808631e+01
3.279124e+02	-2.813767e+01
3.298064e+02	-2.818710e+01
3.317114e+02	-2.823597e+01
3.336273e+02	-2.828605e+01
3.355544e+02	-2.833290e+01
3.374925e+02	-2.838848e+01
3.394418e+02	-2.843508e+01
3.414024e+02	-2.848521e+01
3.433744e+02	-2.853794e+01
3.453577e+02	-2.859163e+01
3.473525e+02	-2.863566e+01
3.493588e+02	-2.868468e+01
3.513766e+02	-2.874145e+01
3.534062e+02	-2.878722e+01
3.554474e+02	-2.883652e+01
3.575005e+02	-2.888394e+01
3.595654e+02	-2.893850e+01
3.616422e+02	-2.898739e+01
3.637311e+02	-2.903107e+01
3.658320e+02	-2.908698e+01
3.679450e+02	-2.913416e+01
3.700702e+02	-2.918816e+01
3.722077e+02	-2.924028e+01
3.743576e+02	-2.928483e+01
3.765199e+02	-2.933700e+01
3.786946e+02	-2.939363e+01
3.808820e+02	-2.943313e+01
3.830819e+02	-2.948710e+01
3.852946e+02	-2.954086e+01
3.875200e+02	-2.958847e+01
3.897583e+02	-2.963828e+01
3.920096e+02	-2.969015e+01
3.942738e+02	-2.973399e+01
3.965511e+02	-2.979132e+01
3.988416e+02	-2.984260e+01
4.011452e+02	-2.988583e+01
4.034622e+02	-2.993794e+01
4.057926e+02	-2.999020e+01
4.081365e+02	-3.004045e+01
4.104938e+02	-3.009107e+01
4.128648e+02	-3.013788e+01
4.152495e+02	-3.018963e+01
4.176480e+02	-3.024465e+01
4.200603e+02	-3.029056e+01
4.224866e+02	-3.033774e+01
4.249268e+02	-3.038725e+01
4.273812e+02	-3.043763e+01
4.298497e+02	-3.049146e+01
4.323325e+02	-3.054207e+01
4.348297e+02	-3.058573e+01
4.373412e+02	-3.064539e+01
4.398673e+02	-3.069244e+01
4.424079e+02	-3.074354e+01
4.449633e+02	-3.079428e+01
4.475334e+02	-3.083949e+01
4.501183e+02	-3.089432e+01
4.527182e+02	-3.094194e+01
4.553330e+02	-3.099052e+01
4.579630e+02	-3.103902e+01
4.606082e+02	-3.108810e+01
4.632687e+02	-3.114073e+01
4.659445e+02	-3.119298e+01
4.686358e+02	-3.124028e+01
4.713426e+02	-3.129108e+01
4.740650e+02	-3.134223e+01
4.768032e+02	-3.138564e+01
4.795572e+02	-3.144046e+01
4.823271e+02	-3.149155e+01
4.851130e+02	-3.154112e+01
4.879150e+02	-3.159297e+01
4.907332e+02	-3.164182e+01
4.935676e+02	-3.169278e+01
4.964185e+02	-3.174341e+01
4.992858e+02	-3.179826e+01
5.021696e+02	-3.185177e+01
5.050701e+02	-3.189380e+01
5.079874e+02	-3.194207e+01
5.109215e+02	-3.200241e+01
5.138726e+02	-3.204160e+01
5.168407e+02	-3.209518e+01
5.198259e+02	-3.214332e+01
5.228284e+02	-3.219940e+01
5.258482e+02	-3.224945e+01
5.288855e+02	-3.229389e+01
5.319403e+02	-3.234849e+01
5.350128e+02	-3.239866e+01
5.381030e+02	-3.244813e+01
5.412111e+02	-3.249782e+01
5.443371e+02	-3.254096e+01
5.474812e+02	-3.259479e+01
5.506434e+02	-3.264860e+01
5.538239e+02	-3.269802e+01
5.570228e+02	-3.273752e+01
5.602401e+02	-3.279871e+01
5.634760e+02	-3.284365e+01
5.667306e+02	-3.289397e+01
5.700040e+02	-3.295195e+01
5.732964e+02	-3.299782e+01
5.766077e+02	-3.304591e+01
5.799382e+02	-3.310105e+01
5.832879e+02	-3.315269e+01
5.866569e+02	-3.319496e+01
5.900454e+02	-3.324966e+01
5.934535e+02	-3.329959e+01
5.968813e+02	-3.334757e+01
6.003288e+02	-3.340221e+01
6.037963e+02	-3.345723e+01
6.072838e+02	-3.350200e+01
6.107914e+02	-3.356059e+01
6.143194e+02	-3.360137e+01
6.178676e+02	-3.365693e+01
6.214364e+02	-3.370728e+01
6.250258e+02	-3.374681e+01
6.286359e+02	-3.380335e+01
6.322669e+02	-3.385150e+01
6.359189e+02	-3.390865e+01
6.395919e+02	-3.396310e+01
6.432862e+02	-3.400362e+01
6.470017e+02	-3.404834e+01
6.507388e+02	-3.411085e+01
6.544974e+02	-3.416222e+01
6.582778e+02	-3.420268e+01
6.620800e+02	-3.426078e+01
6.659041e+02	-3.431051e+01
6.697504e+02	-3.434849e+01
6.736188e+02	-3.440474e+01
6.775096e+02	-3.445834e+01
6.814229e+02	-3.450566e+01
6.853587e+02	-3.455427e+01
6.893173e+02	-3.461357e+01
6.932988e+02	-3.466163e+01
6.973033e+02	-3.471102e+01
7.013309e+02	-3.476494e+01
