Frequency(Hz)	Magnitude(dB)
1.000000e+01	-2.224730e+00
1.005776e+01	-2.244844e+00
1.011585e+01	-2.265160e+00
1.017428e+01	-2.285598e+00
1.023305e+01	-2.305897e+00
1.029215e+01	-2.326651e+00
1.035160e+01	-2.347684e+00
1.041139e+01	-2.368578e+00
1.047153e+01	-2.389742e+00
1.053201e+01	-2.411003e+00
1.059284e+01	-2.432143e+00
1.065403e+01	-2.453867e+00
1.071556e+01	-2.475461e+00
1.077746e+01	-2.497315e+00
1.083971e+01	-2.519398e+00
1.090232e+01	-2.541213e+00
1.096529e+01	-2.563786e+00
1.102862e+01	-2.585765e+00
1.109232e+01	-2.608351e+00
1.115639e+01	-2.630944e+00
1.122083e+01	-2.653902e+00
1.128564e+01	-2.676794e+00
1.135083e+01	-2.699740e+00
1.141639e+01	-2.722967e+00
1.148233e+01	-2.746489e+00
1.154865e+01	-2.769696e+00
1.161536e+01	-2.793746e+00
1.168245e+01	-2.817648e+00
1.174992e+01	-2.841462e+00
1.181779e+01	-2.865634e+00
1.188605e+01	-2.889687e+00
1.195470e+01	-2.914000e+00
1.202375e+01	-2.938955e+00
1.209320e+01	-2.963446e+00
1.216305e+01	-2.987999e+00
1.223330e+01	-3.013064e+00
1.230396e+01	-3.038151e+00
1.237503e+01	-3.063492e+00
1.244651e+01	-3.088679e+00
1.251840e+01	-3.114385e+00
1.259070e+01	-3.139922e+00
1.266343e+01	-3.165733e+00
1.273657e+01	-3.191896e+00
1.281014e+01	-3.218157e+00
1.288413e+01	-3.244177e+00
1.295855e+01	-3.270470e+00
1.303339e+01	-3.297017e+00
1.310867e+01	-3.323698e+00
1.318439e+01	-3.350480e+00
1.326054e+01	-3.377792e+00
1.333713e+01	-3.404821e+00
1.341417e+01	-3.431995e+00
1.349165e+01	-3.459250e+00
1.356958e+01	-3.487083e+00
1.364795e+01	-3.514488e+00
1.372678e+01	-3.542702e+00
1.380607e+01	-3.570415e+00
1.388581e+01	-3.598594e+00
1.396602e+01	-3.626782e+00
1.404668e+01	-3.655032e+00
1.412782e+01	-3.683745e+00
1.420942e+01	-3.712498e+00
1.429149e+01	-3.741175e+00
1.437404e+01	-3.770157e+00
1.445706e+01	-3.799134e+00
1.454057e+01	-3.828514e+00
1.462455e+01	-3.857978e+00
1.470902e+01	-3.887411e+00
1.479398e+01	-3.916903e+00
1.487943e+01	-3.946726e+00
1.496537e+01	-3.977039e+00
1.505181e+01	-4.006972e+00
1.513875e+01	-4.037071e+00
1.522619e+01	-4.067211e+00
1.531414e+01	-4.097988e+00
1.540259e+01	-4.128384e+00
1.549156e+01	-4.159490e+00
1.558103e+01	-4.190336e+00
1.567103e+01	-4.221056e+00
1.576155e+01	-4.252293e+00
1.585258e+01	-4.283448e+00
1.594415e+01	-4.315099e+00
1.603624e+01	-4.346511e+00
1.612886e+01	-4.378397e+00
1.622202e+01	-4.410237e+00
1.631572e+01	-4.442193e+00
1.640996e+01	-4.474462e+00
1.650474e+01	-4.506293e+00
1.660008e+01	-4.538669e+00
1.669596e+01	-4.571250e+00
1.679239e+01	-4.604114e+00
1.688938e+01	-4.636838e+00
1.698694e+01	-4.669798e+00
1.708505e+01	-4.702626e+00
1.718373e+01	-4.735860e+00
1.728299e+01	-4.769103e+00
1.738281e+01	-4.802489e+00
1.748322e+01	-4.836306e+00
1.758420e+01	-4.869554e+00
1.768576e+01	-4.903354e+00
1.778792e+01	-4.937460e+00
1.789066e+01	-4.971350e+00
1.799399e+01	-5.005744e+00
1.809793e+01	-5.039799e+00
1.820246e+01	-5.074455e+00
1.830760e+01	-5.108962e+00
1.841334e+01	-5.143536e+00
1.851969e+01	-5.178320e+00
1.862666e+01	-5.213237e+00
1.873425e+01	-5.248529e+00
1.884246e+01	-5.283585e+00
1.895129e+01	-5.318427e+00
1.906075e+01	-5.354182e+00
1.917085e+01	-5.389523e+00
1.928158e+01	-5.425079e+00
1.939295e+01	-5.460812e+00
1.950496e+01	-5.496724e+00
1.961762e+01	-5.532432e+00
1.973093e+01	-5.568776e+00
1.984490e+01	-5.604896e+00
1.995952e+01	-5.641326e+00
2.007480e+01	-5.677910e+00
2.019076e+01	-5.714222e+00
2.030738e+01	-5.750740e+00
2.042467e+01	-5.787810e+00
2.054264e+01	-5.824583e+00
2.066130e+01	-5.861498e+00
2.078064e+01	-5.898635e+00
2.090066e+01	-5.936228e+00
2.102139e+01	-5.973235e+00
2.114280e+01	-6.010329e+00
2.126492e+01	-6.048322e+00
2.138775e+01	-6.085882e+00
2.151128e+01	-6.123706e+00
2.163553e+01	-6.161485e+00
2.176050e+01	-6.199511e+00
2.188619e+01	-6.237414e+00
2.201260e+01	-6.275575e+00
2.213974e+01	-6.313889e+00
2.226762e+01	-6.352713e+00
2.239624e+01	-6.390709e+00
2.252560e+01	-6.429867e+00
2.265571e+01	-6.468286e+00
2.278656e+01	-6.506690e+00
2.291818e+01	-6.545916e+00
2.305055e+01	-6.584850e+00
2.318369e+01	-6.623923e+00
2.331760e+01	-6.663142e+00
2.345228e+01	-6.702748e+00
2.358774e+01	-6.741850e+00
2.372398e+01	-6.781333e+00
2.386101e+01	-6.820655e+00
2.399883e+01	-6.860790e+00
2.413745e+01	-6.900125e+00
2.427686e+01	-6.940026e+00
2.441709e+01	-6.980298e+00
2.455812e+01	-7.020179e+00
2.469997e+01	-7.060418e+00
2.484263e+01	-7.100602e+00
2.498612e+01	-7.140585e+00
2.513044e+01	-7.181414e+00
2.527559e+01	-7.221796e+00
2.542158e+01	-7.262616e+00
2.556842e+01	-7.302709e+00
2.571610e+01	-7.343765e+00
2.586463e+01	-7.384384e+00
2.601403e+01	-7.425518e+00
2.616428e+01	-7.466788e+00
2.631541e+01	-7.507743e+00
2.646740e+01	-7.549181e+00
2.662028e+01	-7.590338e+00
2.677404e+01	-7.631376e+00
2.692868e+01	-7.673047e+00
2.708422e+01	-7.714505e+00
2.724066e+01	-7.756216e+00
2.739800e+01	-7.797868e+00
2.755625e+01	-7.839680e+00
2.771541e+01	-7.881388e+00
2.787550e+01	-7.923042e+00
2.803650e+01	-7.964923e+00
2.819844e+01	-8.007261e+00
2.836131e+01	-8.049487e+00
2.852513e+01	-8.091856e+00
2.868989e+01	-8.133714e+00
2.885560e+01	-8.175993e+00
2.902227e+01	-8.218722e+00
2.918990e+01	-8.260953e+00
2.935850e+01	-8.303803e+00
2.952807e+01	-8.346228e+00
2.969863e+01	-8.389071e+00
2.987016e+01	-8.431709e+00
3.004269e+01	-8.475109e+00
3.021622e+01	-8.518209e+00
3.039075e+01	-8.561033e+00
3.056628e+01	-8.603711e+00
3.074283e+01	-8.646872e+00
3.092040e+01	-8.690670e+00
3.109900e+01	-8.733915e+00
3.127862e+01	-8.777264e+00
3.145929e+01	-8.820721e+00
3.164099e+01	-8.863758e+00
3.182375e+01	-8.907433e+00
3.200756e+01	-8.951555e+00
3.219244e+01	-8.994602e+00
3.237838e+01	-9.038443e+00
3.256540e+01	-9.082524e+00
3.275349e+01	-9.126282e+00
3.294268e+01	-9.170397e+00
3.313295e+01	-9.214615e+00
3.332433e+01	-9.258826e+00
3.351681e+01	-9.302416e+00
3.371040e+01	-9.347087e+00
3.390511e+01	-9.390827e+00
3.410094e+01	-9.435391e+00
3.429791e+01	-9.479521e+00
3.449601e+01	-9.524288e+00
3.469526e+01	-9.568910e+00
3.489566e+01	-9.613033e+00
3.509721e+01	-9.657615e+00
3.529993e+01	-9.702230e+00
3.550382e+01	-9.746645e+00
3.570889e+01	-9.791670e+00
3.591515e+01	-9.836955e+00
3.612259e+01	-9.881173e+00
3.633123e+01	-9.925628e+00
3.654108e+01	-9.971495e+00
3.675214e+01	-1.001620e+01
3.696442e+01	-1.006104e+01
3.717792e+01	-1.010656e+01
3.739266e+01	-1.015206e+01
3.760864e+01	-1.019682e+01
3.782587e+01	-1.024154e+01
3.804435e+01	-1.028778e+01
3.826409e+01	-1.033300e+01
3.848510e+01	-1.037862e+01
3.870739e+01	-1.042408e+01
3.893096e+01	-1.046937e+01
3.915583e+01	-1.051441e+01
3.938199e+01	-1.056041e+01
3.960946e+01	-1.060623e+01
3.983824e+01	-1.065153e+01
4.006834e+01	-1.069737e+01
4.029978e+01	-1.074306e+01
4.053255e+01	-1.078932e+01
4.076666e+01	-1.083529e+01
4.100213e+01	-1.088049e+01
4.123896e+01	-1.092693e+01
4.147715e+01	-1.097284e+01
4.171672e+01	-1.101927e+01
4.195767e+01	-1.106568e+01
4.220002e+01	-1.111110e+01
4.244377e+01	-1.115730e+01
4.268892e+01	-1.120307e+01
4.293549e+01	-1.124966e+01
4.318348e+01	-1.129576e+01
4.343291e+01	-1.134223e+01
4.368377e+01	-1.138848e+01
4.393609e+01	-1.143504e+01
4.418986e+01	-1.148209e+01
4.444510e+01	-1.152833e+01
4.470182e+01	-1.157450e+01
4.496001e+01	-1.162096e+01
4.521970e+01	-1.166832e+01
4.548089e+01	-1.171418e+01
4.574358e+01	-1.176087e+01
4.600779e+01	-1.180789e+01
4.627353e+01	-1.185425e+01
4.654081e+01	-1.190070e+01
4.680963e+01	-1.194807e+01
4.708000e+01	-1.199576e+01
4.735193e+01	-1.204189e+01
4.762543e+01	-1.208856e+01
4.790051e+01	-1.213545e+01
4.817719e+01	-1.218263e+01
4.845545e+01	-1.222945e+01
4.873533e+01	-1.227642e+01
4.901682e+01	-1.232394e+01
4.929994e+01	-1.237124e+01
4.958470e+01	-1.241827e+01
4.987110e+01	-1.246608e+01
5.015915e+01	-1.251319e+01
5.044887e+01	-1.255989e+01
5.074026e+01	-1.260659e+01
5.103333e+01	-1.265391e+01
5.132810e+01	-1.270182e+01
5.162457e+01	-1.274922e+01
5.192275e+01	-1.279644e+01
5.222265e+01	-1.284359e+01
5.252429e+01	-1.289110e+01
5.282767e+01	-1.293877e+01
5.313280e+01	-1.298652e+01
5.343969e+01	-1.303388e+01
5.374836e+01	-1.308140e+01
5.405880e+01	-1.312954e+01
5.437105e+01	-1.317695e+01
5.468509e+01	-1.322347e+01
5.500095e+01	-1.327147e+01
5.531863e+01	-1.331898e+01
5.563815e+01	-1.336653e+01
5.595951e+01	-1.341468e+01
5.628273e+01	-1.346270e+01
5.660782e+01	-1.351074e+01
5.693479e+01	-1.355789e+01
5.726364e+01	-1.360616e+01
5.759439e+01	-1.365432e+01
5.792705e+01	-1.370215e+01
5.826164e+01	-1.374937e+01
5.859815e+01	-1.379732e+01
5.893662e+01	-1.384614e+01
5.927703e+01	-1.389405e+01
5.961941e+01	-1.394101e+01
5.996377e+01	-1.399000e+01
6.031012e+01	-1.403728e+01
6.065847e+01	-1.408594e+01
6.100883e+01	-1.413332e+01
6.136121e+01	-1.418188e+01
6.171563e+01	-1.422935e+01
6.207210e+01	-1.427876e+01
6.243063e+01	-1.432566e+01
6.279122e+01	-1.437418e+01
6.315390e+01	-1.442261e+01
6.351868e+01	-1.447045e+01
6.388556e+01	-1.451945e+01
6.425456e+01	-1.456730e+01
6.462569e+01	-1.461644e+01
6.499897e+01	-1.466441e+01
6.537440e+01	-1.471269e+01
6.575200e+01	-1.476200e+01
6.613178e+01	-1.480963e+01
6.651375e+01	-1.485774e+01
6.689793e+01	-1.490557e+01
6.728433e+01	-1.495476e+01
6.767297e+01	-1.500252e+01
6.806384e+01	-1.505076e+01
6.845698e+01	-1.509937e+01
6.885238e+01	-1.514829e+01
6.925007e+01	-1.519658e+01
6.965005e+01	-1.524562e+01
7.005235e+01	-1.529339e+01
7.045697e+01	-1.534253e+01
7.086393e+01	-1.539065e+01
7.127323e+01	-1.543939e+01
7.168490e+01	-1.548803e+01
7.209895e+01	-1.553710e+01
7.251539e+01	-1.558534e+01
7.293424e+01	-1.563347e+01
7.335551e+01	-1.568247e+01
7.377920e+01	-1.573166e+01
7.420535e+01	-1.577993e+01
7.463396e+01	-1.582881e+01
7.506504e+01	-1.587722e+01
7.549861e+01	-1.592650e+01
7.593469e+01	-1.597573e+01
7.637328e+01	-1.602427e+01
7.681441e+01	-1.607221e+01
7.725809e+01	-1.612073e+01
7.770433e+01	-1.617094e+01
7.815315e+01	-1.621890e+01
7.860456e+01	-1.626747e+01
7.905857e+01	-1.631649e+01
7.951521e+01	-1.636636e+01
7.997449e+01	-1.641366e+01
8.043642e+01	-1.646304e+01
8.090102e+01	-1.651210e+01
8.136830e+01	-1.655979e+01
8.183828e+01	-1.661040e+01
8.231097e+01	-1.665967e+01
8.278640e+01	-1.670760e+01
8.326457e+01	-1.675766e+01
8.374550e+01	-1.680719e+01
8.422921e+01	-1.685531e+01
8.471572e+01	-1.690337e+01
8.520503e+01	-1.695177e+01
8.569717e+01	-1.700349e+01
8.619215e+01	-1.705154e+01
8.669000e+01	-1.710026e+01
8.719071e+01	-1.714974e+01
8.769432e+01	-1.719881e+01
8.820084e+01	-1.724707e+01
8.871029e+01	-1.729636e+01
8.922267e+01	-1.734609e+01
8.973802e+01	-1.739538e+01
9.025634e+01	-1.744367e+01
9.077766e+01	-1.749261e+01
9.130199e+01	-1.754201e+01
9.182935e+01	-1.759091e+01
9.235975e+01	-1.764022e+01
9.289321e+01	-1.769076e+01
9.342976e+01	-1.773896e+01
9.396941e+01	-1.778837e+01
9.451217e+01	-1.783624e+01
9.505807e+01	-1.788721e+01
9.560712e+01	-1.793686e+01
9.615934e+01	-1.798477e+01
9.671476e+01	-1.803437e+01
9.727338e+01	-1.808224e+01
9.783522e+01	-1.813189e+01
9.840032e+01	-1.818168e+01
9.896867e+01	-1.823036e+01
9.954031e+01	-1.828043e+01
1.001153e+02	-1.833040e+01
1.006935e+02	-1.837973e+01
1.012751e+02	-1.842807e+01
1.018601e+02	-1.847562e+01
1.024484e+02	-1.852793e+01
1.030402e+02	-1.857758e+01
1.036353e+02	-1.862572e+01
1.042339e+02	-1.867510e+01
1.048360e+02	-1.872278e+01
1.054415e+02	-1.877430e+01
1.060505e+02	-1.882360e+01
1.066631e+02	-1.887300e+01
1.072791e+02	-1.892201e+01
1.078988e+02	-1.897182e+01
1.085220e+02	-1.902145e+01
1.091488e+02	-1.906975e+01
1.097793e+02	-1.911926e+01
1.104133e+02	-1.916964e+01
1.110511e+02	-1.921833e+01
1.116925e+02	-1.926796e+01
1.123376e+02	-1.931939e+01
1.129865e+02	-1.936692e+01
1.136391e+02	-1.941608e+01
1.142955e+02	-1.946672e+01
1.149556e+02	-1.951489e+01
1.156196e+02	-1.956368e+01
1.162874e+02	-1.961535e+01
1.169591e+02	-1.966376e+01
1.176347e+02	-1.971334e+01
1.183141e+02	-1.976183e+01
1.189975e+02	-1.981242e+01
1.196848e+02	-1.986135e+01
1.203761e+02	-1.991324e+01
1.210714e+02	-1.996114e+01
1.217707e+02	-2.001114e+01
1.224740e+02	-2.005899e+01
1.231814e+02	-2.010919e+01
1.238929e+02	-2.015959e+01
1.246085e+02	-2.020700e+01
1.253283e+02	-2.025913e+01
1.260522e+02	-2.030623e+01
1.267802e+02	-2.035808e+01
1.275125e+02	-2.040647e+01
1.282490e+02	-2.045464e+01
1.289898e+02	-2.050438e+01
1.297348e+02	-2.055529e+01
1.304842e+02	-2.060521e+01
1.312378e+02	-2.065427e+01
1.319959e+02	-2.070395e+01
1.327583e+02	-2.075415e+01
1.335251e+02	-2.080389e+01
1.342963e+02	-2.085319e+01
1.350720e+02	-2.090153e+01
1.358522e+02	-2.095067e+01
1.366368e+02	-2.100233e+01
1.374260e+02	-2.105283e+01
1.382198e+02	-2.110129e+01
1.390182e+02	-2.114898e+01
1.398211e+02	-2.120109e+01
1.406287e+02	-2.125003e+01
1.414410e+02	-2.129832e+01
1.422579e+02	-2.134934e+01
1.430796e+02	-2.140095e+01
1.439060e+02	-2.144889e+01
1.447372e+02	-2.149711e+01
1.455732e+02	-2.154747e+01
1.464141e+02	-2.159899e+01
1.472597e+02	-2.164729e+01
1.481103e+02	-2.169733e+01
1.489658e+02	-2.174695e+01
1.498262e+02	-2.179789e+01
1.506916e+02	-2.184553e+01
1.515620e+02	-2.189688e+01
1.524374e+02	-2.194690e+01
1.533179e+02	-2.199640e+01
1.542034e+02	-2.204580e+01
1.550941e+02	-2.209577e+01
1.559899e+02	-2.214529e+01
1.568909e+02	-2.219358e+01
1.577971e+02	-2.224583e+01
1.587085e+02	-2.229445e+01
1.596252e+02	-2.234463e+01
1.605472e+02	-2.239478e+01
1.614745e+02	-2.244296e+01
1.624072e+02	-2.249177e+01
1.633453e+02	-2.254354e+01
1.642887e+02	-2.259227e+01
1.652377e+02	-2.264191e+01
1.661921e+02	-2.269456e+01
1.671520e+02	-2.274126e+01
1.681175e+02	-2.279179e+01
1.690885e+02	-2.283995e+01
1.700651e+02	-2.289148e+01
1.710474e+02	-2.294153e+01
1.720354e+02	-2.298881e+01
1.730291e+02	-2.304050e+01
1.740285e+02	-2.309186e+01
1.750337e+02	-2.314099e+01
1.760446e+02	-2.319100e+01
1.770615e+02	-2.323901e+01
1.780842e+02	-2.329230e+01
1.791128e+02	-2.333959e+01
1.801473e+02	-2.338799e+01
1.811878e+02	-2.343903e+01
1.822344e+02	-2.348662e+01
1.832870e+02	-2.353825e+01
1.843456e+02	-2.358871e+01
1.854104e+02	-2.364021e+01
1.864813e+02	-2.369065e+01
1.875584e+02	-2.373641e+01
1.886418e+02	-2.378763e+01
1.897313e+02	-2.383634e+01
1.908272e+02	-2.388768e+01
1.919294e+02	-2.393952e+01
1.930380e+02	-2.398875e+01
1.941530e+02	-2.403465e+01
1.952744e+02	-2.408621e+01
1.964023e+02	-2.413689e+01
1.975367e+02	-2.418336e+01
1.986777e+02	-2.423705e+01
1.998252e+02	-2.428646e+01
2.009794e+02	-2.433742e+01
2.021403e+02	-2.438736e+01
2.033078e+02	-2.443670e+01
2.044821e+02	-2.448480e+01
2.056632e+02	-2.453423e+01
2.068511e+02	-2.458860e+01
2.080459e+02	-2.463558e+01
2.092475e+02	-2.468528e+01
2.104561e+02	-2.473505e+01
2.116717e+02	-2.478498e+01
2.128943e+02	-2.483356e+01
2.141240e+02	-2.488752e+01
2.153608e+02	-2.493422e+01
2.166047e+02	-2.498215e+01
2.178558e+02	-2.503508e+01
2.191141e+02	-2.508407e+01
2.203797e+02	-2.513206e+01
2.216526e+02	-2.518522e+01
2.229329e+02	-2.523451e+01
2.242205e+02	-2.528389e+01
2.255156e+02	-2.533408e+01
2.268182e+02	-2.538473e+01
2.281283e+02	-2.543263e+01
2.294459e+02	-2.548519e+01
2.307712e+02	-2.553271e+01
2.321041e+02	-2.558456e+01
2.334447e+02	-2.563329e+01
2.347931e+02	-2.568513e+01
2.361493e+02	-2.573407e+01
2.375133e+02	-2.578391e+01
2.388851e+02	-2.583484e+01
2.402649e+02	-2.588128e+01
2.416527e+02	-2.593472e+01
2.430484e+02	-2.598294e+01
2.444523e+02	-2.603224e+01
2.458642e+02	-2.608175e+01
2.472843e+02	-2.613429e+01
2.487126e+02	-2.618209e+01
2.501492e+02	-2.623509e+01
2.515940e+02	-2.627927e+01
2.530472e+02	-2.633218e+01
2.545088e+02	-2.638313e+01
2.559789e+02	-2.643329e+01
2.574574e+02	-2.648462e+01
2.589444e+02	-2.652943e+01
2.604401e+02	-2.658233e+01
2.619444e+02	-2.662987e+01
2.634574e+02	-2.668138e+01
2.649791e+02	-2.673217e+01
2.665096e+02	-2.678314e+01
2.680489e+02	-2.683450e+01
2.695972e+02	-2.688055e+01
2.711544e+02	-2.693441e+01
2.727205e+02	-2.698235e+01
2.742958e+02	-2.703227e+01
2.758801e+02	-2.708172e+01
2.774736e+02	-2.713153e+01
2.790762e+02	-2.718010e+01
2.806882e+02	-2.723076e+01
2.823094e+02	-2.728229e+01
2.839400e+02	-2.733325e+01
2.855800e+02	-2.738174e+01
2.872295e+02	-2.742805e+01
2.888886e+02	-2.748173e+01
2.905572e+02	-2.753376e+01
2.922354e+02	-2.757983e+01
2.939234e+02	-2.763415e+01
2.956211e+02	-2.768364e+01
2.973286e+02	-2.773386e+01
2.990459e+02	-2.778532e+01
3.007732e+02	-2.783579e+01
3.025104e+02	-2.788385e+01
3.042577e+02	-2.793040e+01
3.060151e+02	-2.798000e+01
3.077826e+02	-2.803112e+01
3.095604e+02	-2.808249e+01
3.113484e+02	-2.813200e+01
3.131467e+02	-2.818490e+01
3.149554e+02	-2.823469e+01
3.167746e+02	-2.828495e+01
3.186043e+02	-2.832659e+01
3.204445e+02	-2.838148e+01
3.222954e+02	-2.843023e+01
3.241570e+02	-2.848497e+01
3.260293e+02	-2.853091e+01
3.279124e+02	-2.858615e+01
3.298064e+02	-2.863685e+01
3.317114e+02	-2.868663e+01
3.336273e+02	-2.873870e+01
3.355544e+02	-2.878480e+01
3.374925e+02	-2.883254e+01
3.394418e+02	-2.888651e+01
3.414024e+02	-2.892924e+01
3.433744e+02	-2.898462e+01
3.453577e+02	-2.902885e+01
3.473525e+02	-2.908299e+01
3.493588e+02	-2.913042e+01
3.513766e+02	-2.918340e+01
3.534062e+02	-2.923369e+01
3.554474e+02	-2.928241e+01
3.575005e+02	-2.933464e+01
3.595654e+02	-2.938958e+01
3.616422e+02	-2.943508e+01
3.637311e+02	-2.947905e+01
3.658320e+02	-2.953681e+01
3.679450e+02	-2.958255e+01
3.700702e+02	-2.963366e+01
3.722077e+02	-2.968573e+01
3.743576e+02	-2.973296e+01
3.765199e+02	-2.978664e+01
3.786946e+02	-2.982773e+01
3.808820e+02	-2.988585e+01
3.830819e+02	-2.993549e+01
3.852946e+02	-2.998255e+01
3.875200e+02	-3.003777e+01
3.897583e+02	-3.008578e+01
3.920096e+02	-3.014170e+01
3.942738e+02	-3.018208e+01
3.965511e+02	-3.023591e+01
3.988416e+02	-3.028344e+01
4.011452e+02	-3.034097e+01
4.034622e+02	-3.038085e+01
4.057926e+02	-3.043921e+01
4.081365e+02	-3.048686e+01
4.104938e+02	-3.053552e+01
4.128648e+02	-3.058591e+01
4.152495e+02	-3.063604e+01
4.176480e+02	-3.068715e+01
4.200603e+02	-3.073613e+01
4.224866e+02	-3.078262e+01
4.249268e+02	-3.083806e+01
4.273812e+02	-3.088392e+01
4.298497e+02	-3.093911e+01
4.323325e+02	-3.098877e+01
4.348297e+02	-3.103554e+01
4.373412e+02	-3.108550e+01
4.398673e+02	-3.113535e+01
4.424079e+02	-3.118933e+01
4.449633e+02	-3.123796e+01
4.475334e+02	-3.128618e+01
4.501183e+02	-3.133818e+01
4.527182e+02	-3.139159e+01
4.553330e+02	-3.143994e+01
4.579630e+02	-3.149125e+01
4.606082e+02	-3.153513e+01
4.632687e+02	-3.159072e+01
4.659445e+02	-3.163858e+01
4.686358e+02	-3.168996e+01
4.713426e+02	-3.174202e+01
4.740650e+02	-3.178912e+01
4.768032e+02	-3.184515e+01
4.795572e+02	-3.188934e+01
4.823271e+02	-3.193679e+01
4.851130e+02	-3.198620e+01
4.879150e+02	-3.203502e+01
4.907332e+02	-3.208752e+01
4.935676e+02	-3.214797e+01
4.964185e+02	-3.218772e+01
4.992858e+02	-3.223541e+01
5.021696e+02	-3.229298e+01
5.050701e+02	-3.234016e+01
5.079874e+02	-3.239282e+01
5.109215e+02	-3.244144e+01
5.138726e+02	-3.249299e+01
5.168407e+02	-3.254453e+01
5.198259e+02	-3.258403e+01
5.228284e+02	-3.264161e+01
5.258482e+02	-3.269120e+01
5.288855e+02	-3.274186e+01
5.319403e+02	-3.279264e+01
5.350128e+02	-3.284649e+01
5.381030e+02	-3.289228e+01
5.412111e+02	-3.293607e+01
5.443371e+02	-3.299392e+01
5.474812e+02	-3.304308e+01
5.506434e+02	-3.309071e+01
5.538239e+02	-3.314277e+01
5.570228e+02	-3.319471e+01
5.602401e+02	-3.324266e+01
5.634760e+02	-3.329574e+01
5.667306e+02	-3.334692e+01
5.700040e+02	-3.340143e+01
5.732964e+02	-3.344055e+01
5.766077e+02	-3.350282e+01
5.799382e+02	-3.354586e+01
5.832879e+02	-3.359568e+01
5.866569e+02	-3.364964e+01
5.900454e+02	-3.369664e+01
5.934535e+02	-3.374200e+01
5.968813e+02	-3.380418e+01
6.003288e+02	-3.384130e+01
6.037963e+02	-3.390324e+01
6.072838e+02	-3.394802e+01
6.107914e+02	-3.399840e+01
6.143194e+02	-3.404596e+01
6.178676e+02	-3.410036e+01
6.214364e+02	-3.414549e+01
6.250258e+02	-3.419637e+01
6.286359e+02	-3.425856e+01
6.322669e+02	-3.430179e+01
6.359189e+02	-3.434250e+01
6.395919e+02	-3.439865e+01
6.432862e+02	-3.444639e+01
6.470017e+02	-3.450141e+01
6.507388e+02	-3.454922e+01
6.544974e+02	-3.460022e+01
6.582778e+02	-3.464955e+01
6.620800e+02	-3.469943e+01
6.659041e+02	-3.475892e+01
6.697504e+02	-3.480492e+01
6.736188e+02	-3.484711e+01
6.775096e+02	-3.489821e+01
6.814229e+02	-3.495136e+01
6.853587e+02	-3.500918e+01
6.893173e+02	-3.504957e+01
6.932988e+02	-3.510402e+01
6.973033e+02	-3.514987e+01
7.013309e+02	-3.520176e+01
