Frequency(Hz)	Magnitude(dB)
1.000000e+01	-1.473255e-05
1.005776e+01	-1.490323e-05
1.011585e+01	-1.507589e-05
1.017428e+01	-1.525054e-05
1.023305e+01	-1.542723e-05
1.029215e+01	-1.560595e-05
1.035160e+01	-1.578675e-05
1.041139e+01	-1.596965e-05
1.047153e+01	-1.615466e-05
1.053201e+01	-1.634182e-05
1.059284e+01	-1.653114e-05
1.065403e+01	-1.672266e-05
1.071556e+01	-1.691639e-05
1.077746e+01	-1.711237e-05
1.083971e+01	-1.731063e-05
1.090232e+01	-1.751117e-05
1.096529e+01	-1.771405e-05
1.102862e+01	-1.791927e-05
1.109232e+01	-1.812687e-05
1.115639e+01	-1.833687e-05
1.122083e+01	-1.854931e-05
1.128564e+01	-1.876421e-05
1.135083e+01	-1.898159e-05
1.141639e+01	-1.920150e-05
1.148233e+01	-1.942396e-05
1.154865e+01	-1.964899e-05
1.161536e+01	-1.987663e-05
1.168245e+01	-2.010690e-05
1.174992e+01	-2.033984e-05
1.181779e+01	-2.057549e-05
1.188605e+01	-2.081386e-05
1.195470e+01	-2.105499e-05
1.202375e+01	-2.129892e-05
1.209320e+01	-2.154567e-05
1.216305e+01	-2.179529e-05
1.223330e+01	-2.204779e-05
1.230396e+01	-2.230322e-05
1.237503e+01	-2.256161e-05
1.244651e+01	-2.282299e-05
1.251840e+01	-2.308740e-05
1.259070e+01	-2.335487e-05
1.266343e+01	-2.362544e-05
1.273657e+01	-2.389915e-05
1.281014e+01	-2.417603e-05
1.288413e+01	-2.445611e-05
1.295855e+01	-2.473944e-05
1.303339e+01	-2.502606e-05
1.310867e+01	-2.531599e-05
1.318439e+01	-2.560928e-05
1.326054e+01	-2.590597e-05
1.333713e+01	-2.620610e-05
1.341417e+01	-2.650970e-05
1.349165e+01	-2.681682e-05
1.356958e+01	-2.712750e-05
1.364795e+01	-2.744178e-05
1.372678e+01	-2.775970e-05
1.380607e+01	-2.808130e-05
1.388581e+01	-2.840663e-05
1.396602e+01	-2.873573e-05
1.404668e+01	-2.906864e-05
1.412782e+01	-2.940541e-05
1.420942e+01	-2.974608e-05
1.429149e+01	-3.009069e-05
1.437404e+01	-3.043930e-05
1.445706e+01	-3.079195e-05
1.454057e+01	-3.114868e-05
1.462455e+01	-3.150954e-05
1.470902e+01	-3.187459e-05
1.479398e+01	-3.224386e-05
1.487943e+01	-3.261742e-05
1.496537e+01	-3.299530e-05
1.505181e+01	-3.337756e-05
1.513875e+01	-3.376424e-05
1.522619e+01	-3.415541e-05
1.531414e+01	-3.455111e-05
1.540259e+01	-3.495139e-05
1.549156e+01	-3.535631e-05
1.558103e+01	-3.576592e-05
1.567103e+01	-3.618028e-05
1.576155e+01	-3.659943e-05
1.585258e+01	-3.702345e-05
1.594415e+01	-3.745237e-05
1.603624e+01	-3.788627e-05
1.612886e+01	-3.832519e-05
1.622202e+01	-3.876919e-05
1.631572e+01	-3.921834e-05
1.640996e+01	-3.967270e-05
1.650474e+01	-4.013231e-05
1.660008e+01	-4.059726e-05
1.669596e+01	-4.106758e-05
1.679239e+01	-4.154336e-05
1.688938e+01	-4.202465e-05
1.698694e+01	-4.251152e-05
1.708505e+01	-4.300402e-05
1.718373e+01	-4.350223e-05
1.728299e+01	-4.400622e-05
1.738281e+01	-4.451604e-05
1.748322e+01	-4.503177e-05
1.758420e+01	-4.555347e-05
1.768576e+01	-4.608122e-05
1.778792e+01	-4.661508e-05
1.789066e+01	-4.715512e-05
1.799399e+01	-4.770142e-05
1.809793e+01	-4.825406e-05
1.820246e+01	-4.881309e-05
1.830760e+01	-4.937860e-05
1.841334e+01	-4.995066e-05
1.851969e+01	-5.052935e-05
1.862666e+01	-5.111474e-05
1.873425e+01	-5.170692e-05
1.884246e+01	-5.230595e-05
1.895129e+01	-5.291193e-05
1.906075e+01	-5.352492e-05
1.917085e+01	-5.414502e-05
1.928158e+01	-5.477230e-05
1.939295e+01	-5.540685e-05
1.950496e+01	-5.604875e-05
1.961762e+01	-5.669809e-05
1.973093e+01	-5.735495e-05
1.984490e+01	-5.801942e-05
1.995952e+01	-5.869158e-05
2.007480e+01	-5.937154e-05
2.019076e+01	-6.005937e-05
2.030738e+01	-6.075517e-05
2.042467e+01	-6.145903e-05
2.054264e+01	-6.217104e-05
2.066130e+01	-6.289131e-05
2.078064e+01	-6.361991e-05
2.090066e+01	-6.435696e-05
2.102139e+01	-6.510255e-05
2.114280e+01	-6.585678e-05
2.126492e+01	-6.661974e-05
2.138775e+01	-6.739154e-05
2.151128e+01	-6.817229e-05
2.163553e+01	-6.896207e-05
2.176050e+01	-6.976101e-05
2.188619e+01	-7.056921e-05
2.201260e+01	-7.138676e-05
2.213974e+01	-7.221379e-05
2.226762e+01	-7.305040e-05
2.239624e+01	-7.389671e-05
2.252560e+01	-7.475281e-05
2.265571e+01	-7.561884e-05
2.278656e+01	-7.649489e-05
2.291818e+01	-7.738110e-05
2.305055e+01	-7.827757e-05
2.318369e+01	-7.918443e-05
2.331760e+01	-8.010180e-05
2.345228e+01	-8.102979e-05
2.358774e+01	-8.196854e-05
2.372398e+01	-8.291816e-05
2.386101e+01	-8.387878e-05
2.399883e+01	-8.485053e-05
2.413745e+01	-8.583353e-05
2.427686e+01	-8.682793e-05
2.441709e+01	-8.783384e-05
2.455812e+01	-8.885141e-05
2.469997e+01	-8.988077e-05
2.484263e+01	-9.092205e-05
2.498612e+01	-9.197540e-05
2.513044e+01	-9.304095e-05
2.527559e+01	-9.411884e-05
2.542158e+01	-9.520923e-05
2.556842e+01	-9.631224e-05
2.571610e+01	-9.742803e-05
2.586463e+01	-9.855675e-05
2.601403e+01	-9.969854e-05
2.616428e+01	-1.008536e-04
2.631541e+01	-1.020220e-04
2.646740e+01	-1.032039e-04
2.662028e+01	-1.043995e-04
2.677404e+01	-1.056090e-04
2.692868e+01	-1.068325e-04
2.708422e+01	-1.080702e-04
2.724066e+01	-1.093222e-04
2.739800e+01	-1.105887e-04
2.755625e+01	-1.118699e-04
2.771541e+01	-1.131659e-04
2.787550e+01	-1.144770e-04
2.803650e+01	-1.158032e-04
2.819844e+01	-1.171448e-04
2.836131e+01	-1.185019e-04
2.852513e+01	-1.198748e-04
2.868989e+01	-1.212635e-04
2.885560e+01	-1.226684e-04
2.902227e+01	-1.240895e-04
2.918990e+01	-1.255271e-04
2.935850e+01	-1.269814e-04
2.952807e+01	-1.284524e-04
2.969863e+01	-1.299406e-04
2.987016e+01	-1.314460e-04
3.004269e+01	-1.329688e-04
3.021622e+01	-1.345092e-04
3.039075e+01	-1.360675e-04
3.056628e+01	-1.376439e-04
3.074283e+01	-1.392385e-04
3.092040e+01	-1.408516e-04
3.109900e+01	-1.424834e-04
3.127862e+01	-1.441341e-04
3.145929e+01	-1.458039e-04
3.164099e+01	-1.474930e-04
3.182375e+01	-1.492017e-04
3.200756e+01	-1.509302e-04
3.219244e+01	-1.526788e-04
3.237838e+01	-1.544476e-04
3.256540e+01	-1.562369e-04
3.275349e+01	-1.580469e-04
3.294268e+01	-1.598779e-04
3.313295e+01	-1.617301e-04
3.332433e+01	-1.636037e-04
3.351681e+01	-1.654991e-04
3.371040e+01	-1.674164e-04
3.390511e+01	-1.693559e-04
3.410094e+01	-1.713179e-04
3.429791e+01	-1.733026e-04
3.449601e+01	-1.753104e-04
3.469526e+01	-1.773413e-04
3.489566e+01	-1.793958e-04
3.509721e+01	-1.814741e-04
3.529993e+01	-1.835765e-04
3.550382e+01	-1.857033e-04
3.570889e+01	-1.878546e-04
3.591515e+01	-1.900309e-04
3.612259e+01	-1.922325e-04
3.633123e+01	-1.944595e-04
3.654108e+01	-1.967123e-04
3.675214e+01	-1.989912e-04
3.696442e+01	-2.012965e-04
3.717792e+01	-2.036285e-04
3.739266e+01	-2.059876e-04
3.760864e+01	-2.083740e-04
3.782587e+01	-2.107880e-04
3.804435e+01	-2.132299e-04
3.826409e+01	-2.157002e-04
3.848510e+01	-2.181991e-04
3.870739e+01	-2.207269e-04
3.893096e+01	-2.232840e-04
3.915583e+01	-2.258708e-04
3.938199e+01	-2.284875e-04
3.960946e+01	-2.311345e-04
3.983824e+01	-2.338122e-04
4.006834e+01	-2.365209e-04
4.029978e+01	-2.392610e-04
4.053255e+01	-2.420328e-04
4.076666e+01	-2.448368e-04
4.100213e+01	-2.476732e-04
4.123896e+01	-2.505425e-04
4.147715e+01	-2.534450e-04
4.171672e+01	-2.563811e-04
4.195767e+01	-2.593513e-04
4.220002e+01	-2.623558e-04
4.244377e+01	-2.653952e-04
4.268892e+01	-2.684698e-04
4.293549e+01	-2.715800e-04
4.318348e+01	-2.747262e-04
4.343291e+01	-2.779089e-04
4.368377e+01	-2.811284e-04
4.393609e+01	-2.843853e-04
4.418986e+01	-2.876799e-04
4.444510e+01	-2.910126e-04
4.470182e+01	-2.943840e-04
4.496001e+01	-2.977944e-04
4.521970e+01	-3.012443e-04
4.548089e+01	-3.047341e-04
4.574358e+01	-3.082644e-04
4.600779e+01	-3.118357e-04
4.627353e+01	-3.154482e-04
4.654081e+01	-3.191026e-04
4.680963e+01	-3.227994e-04
4.708000e+01	-3.265390e-04
4.735193e+01	-3.303219e-04
4.762543e+01	-3.341486e-04
4.790051e+01	-3.380197e-04
4.817719e+01	-3.419356e-04
4.845545e+01	-3.458968e-04
4.873533e+01	-3.499040e-04
4.901682e+01	-3.539575e-04
4.929994e+01	-3.580581e-04
4.958470e+01	-3.622061e-04
4.987110e+01	-3.664022e-04
5.015915e+01	-3.706469e-04
5.044887e+01	-3.749407e-04
5.074026e+01	-3.792843e-04
5.103333e+01	-3.836782e-04
5.132810e+01	-3.881231e-04
5.162457e+01	-3.926194e-04
5.192275e+01	-3.971678e-04
5.222265e+01	-4.017689e-04
5.252429e+01	-4.064232e-04
5.282767e+01	-4.111315e-04
5.313280e+01	-4.158944e-04
5.343969e+01	-4.207124e-04
5.374836e+01	-4.255862e-04
5.405880e+01	-4.305165e-04
5.437105e+01	-4.355039e-04
5.468509e+01	-4.405491e-04
5.500095e+01	-4.456527e-04
5.531863e+01	-4.508155e-04
5.563815e+01	-4.560380e-04
5.595951e+01	-4.613211e-04
5.628273e+01	-4.666653e-04
5.660782e+01	-4.720715e-04
5.693479e+01	-4.775402e-04
5.726364e+01	-4.830724e-04
5.759439e+01	-4.886686e-04
5.792705e+01	-4.943296e-04
5.826164e+01	-5.000562e-04
5.859815e+01	-5.058492e-04
5.893662e+01	-5.117092e-04
5.927703e+01	-5.176372e-04
5.961941e+01	-5.236338e-04
5.996377e+01	-5.296999e-04
6.031012e+01	-5.358362e-04
6.065847e+01	-5.420436e-04
6.100883e+01	-5.483230e-04
6.136121e+01	-5.546750e-04
6.171563e+01	-5.611007e-04
6.207210e+01	-5.676008e-04
6.243063e+01	-5.741761e-04
6.279122e+01	-5.808277e-04
6.315390e+01	-5.875563e-04
6.351868e+01	-5.943628e-04
6.388556e+01	-6.012482e-04
6.425456e+01	-6.082133e-04
6.462569e+01	-6.152591e-04
6.499897e+01	-6.223866e-04
6.537440e+01	-6.295966e-04
6.575200e+01	-6.368901e-04
6.613178e+01	-6.442681e-04
6.651375e+01	-6.517316e-04
6.689793e+01	-6.592815e-04
6.728433e+01	-6.669188e-04
6.767297e+01	-6.746447e-04
6.806384e+01	-6.824600e-04
6.845698e+01	-6.903659e-04
6.885238e+01	-6.983633e-04
6.925007e+01	-7.064534e-04
6.965005e+01	-7.146372e-04
7.005235e+01	-7.229157e-04
7.045697e+01	-7.312902e-04
7.086393e+01	-7.397617e-04
7.127323e+01	-7.483313e-04
7.168490e+01	-7.570002e-04
7.209895e+01	-7.657694e-04
7.251539e+01	-7.746403e-04
7.293424e+01	-7.836139e-04
7.335551e+01	-7.926915e-04
7.377920e+01	-8.018742e-04
7.420535e+01	-8.111632e-04
7.463396e+01	-8.205599e-04
7.506504e+01	-8.300654e-04
7.549861e+01	-8.396810e-04
7.593469e+01	-8.494080e-04
7.637328e+01	-8.592476e-04
7.681441e+01	-8.692013e-04
7.725809e+01	-8.792702e-04
7.770433e+01	-8.894557e-04
7.815315e+01	-8.997592e-04
7.860456e+01	-9.101821e-04
7.905857e+01	-9.207257e-04
7.951521e+01	-9.313914e-04
7.997449e+01	-9.421807e-04
8.043642e+01	-9.530949e-04
8.090102e+01	-9.641355e-04
8.136830e+01	-9.753040e-04
8.183828e+01	-9.866019e-04
8.231097e+01	-9.980307e-04
8.278640e+01	-1.009592e-03
8.326457e+01	-1.021287e-03
8.374550e+01	-1.033117e-03
8.422921e+01	-1.045085e-03
8.471572e+01	-1.057191e-03
8.520503e+01	-1.069437e-03
8.569717e+01	-1.081825e-03
8.619215e+01	-1.094357e-03
8.669000e+01	-1.107034e-03
8.719071e+01	-1.119858e-03
8.769432e+01	-1.132830e-03
8.820084e+01	-1.145952e-03
8.871029e+01	-1.159226e-03
8.922267e+01	-1.172655e-03
8.973802e+01	-1.186238e-03
9.025634e+01	-1.199979e-03
9.077766e+01	-1.213879e-03
9.130199e+01	-1.227941e-03
9.182935e+01	-1.242165e-03
9.235975e+01	-1.256553e-03
9.289321e+01	-1.271109e-03
9.342976e+01	-1.285833e-03
9.396941e+01	-1.300727e-03
9.451217e+01	-1.315794e-03
9.505807e+01	-1.331036e-03
9.560712e+01	-1.346454e-03
9.615934e+01	-1.362050e-03
9.671476e+01	-1.377827e-03
9.727338e+01	-1.393787e-03
9.783522e+01	-1.409932e-03
9.840032e+01	-1.426264e-03
9.896867e+01	-1.442785e-03
9.954031e+01	-1.459497e-03
1.001153e+02	-1.476403e-03
1.006935e+02	-1.493504e-03
1.012751e+02	-1.510804e-03
1.018601e+02	-1.528304e-03
1.024484e+02	-1.546007e-03
1.030402e+02	-1.563914e-03
1.036353e+02	-1.582029e-03
1.042339e+02	-1.600354e-03
1.048360e+02	-1.618891e-03
1.054415e+02	-1.637643e-03
1.060505e+02	-1.656612e-03
1.066631e+02	-1.675801e-03
1.072791e+02	-1.695211e-03
1.078988e+02	-1.714847e-03
1.085220e+02	-1.734710e-03
1.091488e+02	-1.754803e-03
1.097793e+02	-1.775129e-03
1.104133e+02	-1.795690e-03
1.110511e+02	-1.816489e-03
1.116925e+02	-1.837529e-03
1.123376e+02	-1.858813e-03
1.129865e+02	-1.880343e-03
1.136391e+02	-1.902122e-03
1.142955e+02	-1.924154e-03
1.149556e+02	-1.946441e-03
1.156196e+02	-1.968986e-03
1.162874e+02	-1.991792e-03
1.169591e+02	-2.014862e-03
1.176347e+02	-2.038199e-03
1.183141e+02	-2.061807e-03
1.189975e+02	-2.085688e-03
1.196848e+02	-2.109845e-03
1.203761e+02	-2.134282e-03
1.210714e+02	-2.159002e-03
1.217707e+02	-2.184008e-03
1.224740e+02	-2.209304e-03
1.231814e+02	-2.234893e-03
1.238929e+02	-2.260778e-03
1.246085e+02	-2.286963e-03
1.253283e+02	-2.313451e-03
1.260522e+02	-2.340246e-03
1.267802e+02	-2.367351e-03
1.275125e+02	-2.394770e-03
1.282490e+02	-2.422506e-03
1.289898e+02	-2.450563e-03
1.297348e+02	-2.478946e-03
1.304842e+02	-2.507657e-03
1.312378e+02	-2.536700e-03
1.319959e+02	-2.566080e-03
1.327583e+02	-2.595799e-03
1.335251e+02	-2.625863e-03
1.342963e+02	-2.656275e-03
1.350720e+02	-2.687039e-03
1.358522e+02	-2.718160e-03
1.366368e+02	-2.749640e-03
1.374260e+02	-2.781485e-03
1.382198e+02	-2.813699e-03
1.390182e+02	-2.846286e-03
1.398211e+02	-2.879250e-03
1.406287e+02	-2.912596e-03
1.414410e+02	-2.946327e-03
1.422579e+02	-2.980450e-03
1.430796e+02	-3.014967e-03
1.439060e+02	-3.049884e-03
1.447372e+02	-3.085205e-03
1.455732e+02	-3.120935e-03
1.464141e+02	-3.157079e-03
1.472597e+02	-3.193641e-03
1.481103e+02	-3.230626e-03
1.489658e+02	-3.268040e-03
1.498262e+02	-3.305886e-03
1.506916e+02	-3.344171e-03
1.515620e+02	-3.382899e-03
1.524374e+02	-3.422076e-03
1.533179e+02	-3.461705e-03
1.542034e+02	-3.501794e-03
1.550941e+02	-3.542347e-03
1.559899e+02	-3.583369e-03
1.568909e+02	-3.624866e-03
1.577971e+02	-3.666843e-03
1.587085e+02	-3.709306e-03
1.596252e+02	-3.752261e-03
1.605472e+02	-3.795713e-03
1.614745e+02	-3.839667e-03
1.624072e+02	-3.884131e-03
1.633453e+02	-3.929109e-03
1.642887e+02	-3.974608e-03
1.652377e+02	-4.020634e-03
1.661921e+02	-4.067192e-03
1.671520e+02	-4.114289e-03
1.681175e+02	-4.161931e-03
1.690885e+02	-4.210125e-03
1.700651e+02	-4.258876e-03
1.710474e+02	-4.308192e-03
1.720354e+02	-4.358078e-03
1.730291e+02	-4.408542e-03
1.740285e+02	-4.459590e-03
1.750337e+02	-4.511229e-03
1.760446e+02	-4.563465e-03
1.770615e+02	-4.616306e-03
1.780842e+02	-4.669758e-03
1.791128e+02	-4.723829e-03
1.801473e+02	-4.778525e-03
1.811878e+02	-4.833855e-03
1.822344e+02	-4.889825e-03
1.832870e+02	-4.946442e-03
1.843456e+02	-5.003715e-03
1.854104e+02	-5.061651e-03
1.864813e+02	-5.120257e-03
1.875584e+02	-5.179541e-03
1.886418e+02	-5.239511e-03
1.897313e+02	-5.300175e-03
1.908272e+02	-5.361540e-03
1.919294e+02	-5.423616e-03
1.930380e+02	-5.486411e-03
1.941530e+02	-5.549931e-03
1.952744e+02	-5.614187e-03
1.964023e+02	-5.679186e-03
1.975367e+02	-5.744937e-03
1.986777e+02	-5.811449e-03
1.998252e+02	-5.878731e-03
2.009794e+02	-5.946791e-03
2.021403e+02	-6.015638e-03
2.033078e+02	-6.085282e-03
2.044821e+02	-6.155731e-03
2.056632e+02	-6.226996e-03
2.068511e+02	-6.299085e-03
2.080459e+02	-6.372007e-03
2.092475e+02	-6.445774e-03
2.104561e+02	-6.520394e-03
2.116717e+02	-6.595877e-03
2.128943e+02	-6.672233e-03
2.141240e+02	-6.749472e-03
2.153608e+02	-6.827605e-03
2.166047e+02	-6.906641e-03
2.178558e+02	-6.986592e-03
2.191141e+02	-7.067467e-03
2.203797e+02	-7.149278e-03
2.216526e+02	-7.232035e-03
2.229329e+02	-7.315749e-03
2.242205e+02	-7.400432e-03
2.255156e+02	-7.486094e-03
2.268182e+02	-7.572746e-03
2.281283e+02	-7.660401e-03
2.294459e+02	-7.749069e-03
2.307712e+02	-7.838763e-03
2.321041e+02	-7.929494e-03
2.334447e+02	-8.021274e-03
2.347931e+02	-8.114115e-03
2.361493e+02	-8.208030e-03
2.375133e+02	-8.303031e-03
2.388851e+02	-8.399130e-03
2.402649e+02	-8.496341e-03
2.416527e+02	-8.594676e-03
2.430484e+02	-8.694147e-03
2.444523e+02	-8.794769e-03
2.458642e+02	-8.896554e-03
2.472843e+02	-8.999516e-03
2.487126e+02	-9.103668e-03
2.501492e+02	-9.209024e-03
2.515940e+02	-9.315598e-03
2.530472e+02	-9.423404e-03
2.545088e+02	-9.532456e-03
2.559789e+02	-9.642769e-03
2.574574e+02	-9.754357e-03
2.589444e+02	-9.867235e-03
2.604401e+02	-9.981418e-03
2.619444e+02	-1.009692e-02
2.634574e+02	-1.021376e-02
2.649791e+02	-1.033195e-02
2.665096e+02	-1.045150e-02
2.680489e+02	-1.057243e-02
2.695972e+02	-1.069477e-02
2.711544e+02	-1.081851e-02
2.727205e+02	-1.094369e-02
2.742958e+02	-1.107031e-02
2.758801e+02	-1.119840e-02
2.774736e+02	-1.132797e-02
2.790762e+02	-1.145903e-02
2.806882e+02	-1.159161e-02
2.823094e+02	-1.172572e-02
2.839400e+02	-1.186138e-02
2.855800e+02	-1.199861e-02
2.872295e+02	-1.213742e-02
2.888886e+02	-1.227783e-02
2.905572e+02	-1.241987e-02
2.922354e+02	-1.256355e-02
2.939234e+02	-1.270889e-02
2.956211e+02	-1.285590e-02
2.973286e+02	-1.300462e-02
2.990459e+02	-1.315505e-02
3.007732e+02	-1.330722e-02
3.025104e+02	-1.346115e-02
3.042577e+02	-1.361686e-02
3.060151e+02	-1.377436e-02
3.077826e+02	-1.393368e-02
3.095604e+02	-1.409485e-02
3.113484e+02	-1.425787e-02
3.131467e+02	-1.442277e-02
3.149554e+02	-1.458958e-02
3.167746e+02	-1.475832e-02
3.186043e+02	-1.492900e-02
3.204445e+02	-1.510166e-02
3.222954e+02	-1.527631e-02
3.241570e+02	-1.545297e-02
3.260293e+02	-1.563167e-02
3.279124e+02	-1.581244e-02
3.298064e+02	-1.599529e-02
3.317114e+02	-1.618026e-02
3.336273e+02	-1.636735e-02
3.355544e+02	-1.655661e-02
3.374925e+02	-1.674805e-02
3.394418e+02	-1.694170e-02
3.414024e+02	-1.713759e-02
3.433744e+02	-1.733573e-02
3.453577e+02	-1.753617e-02
3.473525e+02	-1.773891e-02
3.493588e+02	-1.794399e-02
3.513766e+02	-1.815144e-02
3.534062e+02	-1.836129e-02
3.554474e+02	-1.857355e-02
3.575005e+02	-1.878826e-02
3.595654e+02	-1.900545e-02
3.616422e+02	-1.922515e-02
3.637311e+02	-1.944737e-02
3.658320e+02	-1.967217e-02
3.679450e+02	-1.989955e-02
3.700702e+02	-2.012955e-02
3.722077e+02	-2.036221e-02
3.743576e+02	-2.059755e-02
3.765199e+02	-2.083560e-02
3.786946e+02	-2.107640e-02
3.808820e+02	-2.131998e-02
3.830819e+02	-2.156636e-02
3.852946e+02	-2.181558e-02
3.875200e+02	-2.206768e-02
3.897583e+02	-2.232268e-02
3.920096e+02	-2.258062e-02
3.942738e+02	-2.284153e-02
3.965511e+02	-2.310545e-02
3.988416e+02	-2.337241e-02
4.011452e+02	-2.364244e-02
4.034622e+02	-2.391559e-02
4.057926e+02	-2.419188e-02
4.081365e+02	-2.447136e-02
4.104938e+02	-2.475406e-02
4.128648e+02	-2.504001e-02
4.152495e+02	-2.532926e-02
4.176480e+02	-2.562183e-02
4.200603e+02	-2.591778e-02
4.224866e+02	-2.621714e-02
4.249268e+02	-2.651994e-02
4.273812e+02	-2.682623e-02
4.298497e+02	-2.713604e-02
4.323325e+02	-2.744942e-02
4.348297e+02	-2.776641e-02
4.373412e+02	-2.808705e-02
4.398673e+02	-2.841138e-02
4.424079e+02	-2.873944e-02
4.449633e+02	-2.907127e-02
4.475334e+02	-2.940693e-02
4.501183e+02	-2.974644e-02
4.527182e+02	-3.008987e-02
4.553330e+02	-3.043724e-02
4.579630e+02	-3.078861e-02
4.606082e+02	-3.114402e-02
4.632687e+02	-3.150352e-02
4.659445e+02	-3.186715e-02
4.686358e+02	-3.223497e-02
4.713426e+02	-3.260701e-02
4.740650e+02	-3.298334e-02
4.768032e+02	-3.336398e-02
4.795572e+02	-3.374901e-02
4.823271e+02	-3.413846e-02
4.851130e+02	-3.453239e-02
4.879150e+02	-3.493084e-02
4.907332e+02	-3.533387e-02
4.935676e+02	-3.574153e-02
4.964185e+02	-3.615388e-02
4.992858e+02	-3.657096e-02
5.021696e+02	-3.699284e-02
5.050701e+02	-3.741956e-02
5.079874e+02	-3.785118e-02
5.109215e+02	-3.828776e-02
5.138726e+02	-3.872935e-02
5.168407e+02	-3.917601e-02
5.198259e+02	-3.962780e-02
5.228284e+02	-4.008477e-02
5.258482e+02	-4.054699e-02
5.288855e+02	-4.101452e-02
5.319403e+02	-4.148741e-02
5.350128e+02	-4.196572e-02
5.381030e+02	-4.244952e-02
5.412111e+02	-4.293888e-02
5.443371e+02	-4.343384e-02
5.474812e+02	-4.393448e-02
5.506434e+02	-4.444087e-02
5.538239e+02	-4.495305e-02
5.570228e+02	-4.547112e-02
5.602401e+02	-4.599512e-02
5.634760e+02	-4.652512e-02
5.667306e+02	-4.706120e-02
5.700040e+02	-4.760342e-02
5.732964e+02	-4.815186e-02
5.766077e+02	-4.870658e-02
5.799382e+02	-4.926765e-02
5.832879e+02	-4.983515e-02
5.866569e+02	-5.040914e-02
5.900454e+02	-5.098971e-02
5.934535e+02	-5.157693e-02
5.968813e+02	-5.217086e-02
6.003288e+02	-5.277160e-02
6.037963e+02	-5.337921e-02
6.072838e+02	-5.399377e-02
6.107914e+02	-5.461536e-02
6.143194e+02	-5.524407e-02
6.178676e+02	-5.587996e-02
6.214364e+02	-5.652313e-02
6.250258e+02	-5.717365e-02
6.286359e+02	-5.783160e-02
6.322669e+02	-5.849708e-02
6.359189e+02	-5.917016e-02
6.395919e+02	-5.985094e-02
6.432862e+02	-6.053949e-02
6.470017e+02	-6.123590e-02
6.507388e+02	-6.194027e-02
6.544974e+02	-6.265269e-02
6.582778e+02	-6.337324e-02
6.620800e+02	-6.410201e-02
6.659041e+02	-6.483910e-02
6.697504e+02	-6.558460e-02
6.736188e+02	-6.633861e-02
6.775096e+02	-6.710122e-02
6.814229e+02	-6.787253e-02
6.853587e+02	-6.865263e-02
6.893173e+02	-6.944163e-02
6.932988e+02	-7.023962e-02
6.973033e+02	-7.104671e-02
7.013309e+02	-7.186299e-02
