Frequency(Hz)	Magnitude(dB)
1.000000e+01	-1.977238e+00
1.005776e+01	-1.995447e+00
1.011585e+01	-2.014203e+00
1.017428e+01	-2.032652e+00
1.023305e+01	-2.051445e+00
1.029215e+01	-2.070443e+00
1.035160e+01	-2.089224e+00
1.041139e+01	-2.108475e+00
1.047153e+01	-2.127709e+00
1.053201e+01	-2.147203e+00
1.059284e+01	-2.166687e+00
1.065403e+01	-2.186732e+00
1.071556e+01	-2.206476e+00
1.077746e+01	-2.226234e+00
1.083971e+01	-2.246544e+00
1.090232e+01	-2.266886e+00
1.096529e+01	-2.286888e+00
1.102862e+01	-2.307852e+00
1.109232e+01	-2.328714e+00
1.115639e+01	-2.349283e+00
1.122083e+01	-2.370189e+00
1.128564e+01	-2.391541e+00
1.135083e+01	-2.412432e+00
1.141639e+01	-2.434039e+00
1.148233e+01	-2.455567e+00
1.154865e+01	-2.477149e+00
1.161536e+01	-2.499118e+00
1.168245e+01	-2.520928e+00
1.174992e+01	-2.543012e+00
1.181779e+01	-2.565425e+00
1.188605e+01	-2.587581e+00
1.195470e+01	-2.610428e+00
1.202375e+01	-2.633044e+00
1.209320e+01	-2.655606e+00
1.216305e+01	-2.678637e+00
1.223330e+01	-2.701751e+00
1.230396e+01	-2.724959e+00
1.237503e+01	-2.748540e+00
1.244651e+01	-2.771962e+00
1.251840e+01	-2.795723e+00
1.259070e+01	-2.819293e+00
1.266343e+01	-2.843389e+00
1.273657e+01	-2.867507e+00
1.281014e+01	-2.891611e+00
1.288413e+01	-2.916064e+00
1.295855e+01	-2.940698e+00
1.303339e+01	-2.965541e+00
1.310867e+01	-2.990147e+00
1.318439e+01	-3.015365e+00
1.326054e+01	-3.040386e+00
1.333713e+01	-3.065252e+00
1.341417e+01	-3.090939e+00
1.349165e+01	-3.116711e+00
1.356958e+01	-3.142215e+00
1.364795e+01	-3.167910e+00
1.372678e+01	-3.193813e+00
1.380607e+01	-3.220250e+00
1.388581e+01	-3.246367e+00
1.396602e+01	-3.272770e+00
1.404668e+01	-3.299304e+00
1.412782e+01	-3.325998e+00
1.420942e+01	-3.352673e+00
1.429149e+01	-3.379834e+00
1.437404e+01	-3.406851e+00
1.445706e+01	-3.434306e+00
1.454057e+01	-3.461648e+00
1.462455e+01	-3.489234e+00
1.470902e+01	-3.516788e+00
1.479398e+01	-3.544729e+00
1.487943e+01	-3.572740e+00
1.496537e+01	-3.600970e+00
1.505181e+01	-3.629292e+00
1.513875e+01	-3.657530e+00
1.522619e+01	-3.686067e+00
1.531414e+01	-3.714883e+00
1.540259e+01	-3.743634e+00
1.549156e+01	-3.772643e+00
1.558103e+01	-3.801850e+00
1.567103e+01	-3.831149e+00
1.576155e+01	-3.860496e+00
1.585258e+01	-3.889936e+00
1.594415e+01	-3.919546e+00
1.603624e+01	-3.949349e+00
1.612886e+01	-3.979370e+00
1.622202e+01	-4.009167e+00
1.631572e+01	-4.039626e+00
1.640996e+01	-4.069756e+00
1.650474e+01	-4.100429e+00
1.660008e+01	-4.131214e+00
1.669596e+01	-4.162056e+00
1.679239e+01	-4.192655e+00
1.688938e+01	-4.223521e+00
1.698694e+01	-4.254858e+00
1.708505e+01	-4.286141e+00
1.718373e+01	-4.317788e+00
1.728299e+01	-4.349231e+00
1.738281e+01	-4.380995e+00
1.748322e+01	-4.412809e+00
1.758420e+01	-4.444642e+00
1.768576e+01	-4.476754e+00
1.778792e+01	-4.509161e+00
1.789066e+01	-4.541329e+00
1.799399e+01	-4.573950e+00
1.809793e+01	-4.606626e+00
1.820246e+01	-4.639604e+00
1.830760e+01	-4.672650e+00
1.841334e+01	-4.705332e+00
1.851969e+01	-4.738550e+00
1.862666e+01	-4.771720e+00
1.873425e+01	-4.805317e+00
1.884246e+01	-4.838922e+00
1.895129e+01	-4.872566e+00
1.906075e+01	-4.906039e+00
1.917085e+01	-4.940200e+00
1.928158e+01	-4.974233e+00
1.939295e+01	-5.008199e+00
1.950496e+01	-5.042517e+00
1.961762e+01	-5.077271e+00
1.973093e+01	-5.111996e+00
1.984490e+01	-5.146293e+00
1.995952e+01	-5.181352e+00
2.007480e+01	-5.216035e+00
2.019076e+01	-5.250967e+00
2.030738e+01	-5.286328e+00
2.042467e+01	-5.321502e+00
2.054264e+01	-5.356765e+00
2.066130e+01	-5.392419e+00
2.078064e+01	-5.428334e+00
2.090066e+01	-5.464074e+00
2.102139e+01	-5.499511e+00
2.114280e+01	-5.535478e+00
2.126492e+01	-5.571796e+00
2.138775e+01	-5.608170e+00
2.151128e+01	-5.644287e+00
2.163553e+01	-5.680757e+00
2.176050e+01	-5.717612e+00
2.188619e+01	-5.754131e+00
2.201260e+01	-5.790697e+00
2.213974e+01	-5.827557e+00
2.226762e+01	-5.864864e+00
2.239624e+01	-5.901639e+00
2.252560e+01	-5.939079e+00
2.265571e+01	-5.976370e+00
2.278656e+01	-6.013752e+00
2.291818e+01	-6.051670e+00
2.305055e+01	-6.088893e+00
2.318369e+01	-6.126836e+00
2.331760e+01	-6.164666e+00
2.345228e+01	-6.202664e+00
2.358774e+01	-6.240762e+00
2.372398e+01	-6.278868e+00
2.386101e+01	-6.316956e+00
2.399883e+01	-6.355631e+00
2.413745e+01	-6.394105e+00
2.427686e+01	-6.432624e+00
2.441709e+01	-6.471220e+00
2.455812e+01	-6.510364e+00
2.469997e+01	-6.549036e+00
2.484263e+01	-6.588129e+00
2.498612e+01	-6.627179e+00
2.513044e+01	-6.666373e+00
2.527559e+01	-6.705358e+00
2.542158e+01	-6.744927e+00
2.556842e+01	-6.784613e+00
2.571610e+01	-6.824157e+00
2.586463e+01	-6.864033e+00
2.601403e+01	-6.903685e+00
2.616428e+01	-6.943296e+00
2.631541e+01	-6.983190e+00
2.646740e+01	-7.023599e+00
2.662028e+01	-7.063776e+00
2.677404e+01	-7.103916e+00
2.692868e+01	-7.144289e+00
2.708422e+01	-7.184718e+00
2.724066e+01	-7.225135e+00
2.739800e+01	-7.265227e+00
2.755625e+01	-7.306264e+00
2.771541e+01	-7.347650e+00
2.787550e+01	-7.388237e+00
2.803650e+01	-7.429088e+00
2.819844e+01	-7.470154e+00
2.836131e+01	-7.511001e+00
2.852513e+01	-7.551665e+00
2.868989e+01	-7.593410e+00
2.885560e+01	-7.635025e+00
2.902227e+01	-7.676465e+00
2.918990e+01	-7.717969e+00
2.935850e+01	-7.759602e+00
2.952807e+01	-7.800654e+00
2.969863e+01	-7.842905e+00
2.987016e+01	-7.884317e+00
3.004269e+01	-7.926678e+00
3.021622e+01	-7.969145e+00
3.039075e+01	-8.010609e+00
3.056628e+01	-8.052956e+00
3.074283e+01	-8.095183e+00
3.092040e+01	-8.137241e+00
3.109900e+01	-8.180009e+00
3.127862e+01	-8.222552e+00
3.145929e+01	-8.264900e+00
3.164099e+01	-8.307195e+00
3.182375e+01	-8.350215e+00
3.200756e+01	-8.392915e+00
3.219244e+01	-8.435781e+00
3.237838e+01	-8.478799e+00
3.256540e+01	-8.521391e+00
3.275349e+01	-8.564824e+00
3.294268e+01	-8.607584e+00
3.313295e+01	-8.650822e+00
3.332433e+01	-8.693797e+00
3.351681e+01	-8.737498e+00
3.371040e+01	-8.780679e+00
3.390511e+01	-8.824118e+00
3.410094e+01	-8.867369e+00
3.429791e+01	-8.911433e+00
3.449601e+01	-8.955137e+00
3.469526e+01	-8.998812e+00
3.489566e+01	-9.042457e+00
3.509721e+01	-9.085821e+00
3.529993e+01	-9.130074e+00
3.550382e+01	-9.174247e+00
3.570889e+01	-9.218004e+00
3.591515e+01	-9.261843e+00
3.612259e+01	-9.306116e+00
3.633123e+01	-9.350486e+00
3.654108e+01	-9.394482e+00
3.675214e+01	-9.438980e+00
3.696442e+01	-9.482938e+00
3.717792e+01	-9.527756e+00
3.739266e+01	-9.572368e+00
3.760864e+01	-9.616534e+00
3.782587e+01	-9.660792e+00
3.804435e+01	-9.705969e+00
3.826409e+01	-9.750563e+00
3.848510e+01	-9.795204e+00
3.870739e+01	-9.840546e+00
3.893096e+01	-9.885036e+00
3.915583e+01	-9.929752e+00
3.938199e+01	-9.975117e+00
3.960946e+01	-1.001974e+01
3.983824e+01	-1.006536e+01
4.006834e+01	-1.010999e+01
4.029978e+01	-1.015509e+01
4.053255e+01	-1.020052e+01
4.076666e+01	-1.024600e+01
4.100213e+01	-1.029099e+01
4.123896e+01	-1.033696e+01
4.147715e+01	-1.038231e+01
4.171672e+01	-1.042774e+01
4.195767e+01	-1.047305e+01
4.220002e+01	-1.051891e+01
4.244377e+01	-1.056434e+01
4.268892e+01	-1.060899e+01
4.293549e+01	-1.065526e+01
4.318348e+01	-1.070108e+01
4.343291e+01	-1.074740e+01
4.368377e+01	-1.079288e+01
4.393609e+01	-1.083884e+01
4.418986e+01	-1.088478e+01
4.444510e+01	-1.093094e+01
4.470182e+01	-1.097604e+01
4.496001e+01	-1.102284e+01
4.521970e+01	-1.106809e+01
4.548089e+01	-1.111545e+01
4.574358e+01	-1.116072e+01
4.600779e+01	-1.120683e+01
4.627353e+01	-1.125393e+01
4.654081e+01	-1.129929e+01
4.680963e+01	-1.134634e+01
4.708000e+01	-1.139245e+01
4.735193e+01	-1.143878e+01
4.762543e+01	-1.148561e+01
4.790051e+01	-1.153190e+01
4.817719e+01	-1.157862e+01
4.845545e+01	-1.162446e+01
4.873533e+01	-1.167213e+01
4.901682e+01	-1.171902e+01
4.929994e+01	-1.176472e+01
4.958470e+01	-1.181127e+01
4.987110e+01	-1.185880e+01
5.015915e+01	-1.190536e+01
5.044887e+01	-1.195161e+01
5.074026e+01	-1.199869e+01
5.103333e+01	-1.204611e+01
5.132810e+01	-1.209262e+01
5.162457e+01	-1.213942e+01
5.192275e+01	-1.218664e+01
5.222265e+01	-1.223279e+01
5.252429e+01	-1.228036e+01
5.282767e+01	-1.232737e+01
5.313280e+01	-1.237509e+01
5.343969e+01	-1.242217e+01
5.374836e+01	-1.246911e+01
5.405880e+01	-1.251670e+01
5.437105e+01	-1.256432e+01
5.468509e+01	-1.261050e+01
5.500095e+01	-1.265787e+01
5.531863e+01	-1.270568e+01
5.563815e+01	-1.275247e+01
5.595951e+01	-1.279939e+01
5.628273e+01	-1.284753e+01
5.660782e+01	-1.289528e+01
5.693479e+01	-1.294263e+01
5.726364e+01	-1.299044e+01
5.759439e+01	-1.303776e+01
5.792705e+01	-1.308467e+01
5.826164e+01	-1.313227e+01
5.859815e+01	-1.318055e+01
5.893662e+01	-1.322905e+01
5.927703e+01	-1.327584e+01
5.961941e+01	-1.332326e+01
5.996377e+01	-1.337070e+01
6.031012e+01	-1.341963e+01
6.065847e+01	-1.346668e+01
6.100883e+01	-1.351493e+01
6.136121e+01	-1.356254e+01
6.171563e+01	-1.361002e+01
6.207210e+01	-1.365712e+01
6.243063e+01	-1.370650e+01
6.279122e+01	-1.375444e+01
6.315390e+01	-1.380149e+01
6.351868e+01	-1.384948e+01
6.388556e+01	-1.389747e+01
6.425456e+01	-1.394541e+01
6.462569e+01	-1.399379e+01
6.499897e+01	-1.404182e+01
6.537440e+01	-1.408999e+01
6.575200e+01	-1.413798e+01
6.613178e+01	-1.418573e+01
6.651375e+01	-1.423404e+01
6.689793e+01	-1.428230e+01
6.728433e+01	-1.433020e+01
6.767297e+01	-1.437856e+01
6.806384e+01	-1.442699e+01
6.845698e+01	-1.447469e+01
6.885238e+01	-1.452308e+01
6.925007e+01	-1.457098e+01
6.965005e+01	-1.461924e+01
7.005235e+01	-1.466867e+01
7.045697e+01	-1.471693e+01
7.086393e+01	-1.476437e+01
7.127323e+01	-1.481288e+01
7.168490e+01	-1.486259e+01
7.209895e+01	-1.490989e+01
7.251539e+01	-1.495853e+01
7.293424e+01	-1.500575e+01
7.335551e+01	-1.505544e+01
7.377920e+01	-1.510365e+01
7.420535e+01	-1.515284e+01
7.463396e+01	-1.520069e+01
7.506504e+01	-1.524927e+01
7.549861e+01	-1.529723e+01
7.593469e+01	-1.534534e+01
7.637328e+01	-1.539452e+01
7.681441e+01	-1.544240e+01
7.725809e+01	-1.549241e+01
7.770433e+01	-1.554154e+01
7.815315e+01	-1.559002e+01
7.860456e+01	-1.563814e+01
7.905857e+01	-1.568641e+01
7.951521e+01	-1.573501e+01
7.997449e+01	-1.578401e+01
8.043642e+01	-1.583327e+01
8.090102e+01	-1.588108e+01
8.136830e+01	-1.592990e+01
8.183828e+01	-1.597854e+01
8.231097e+01	-1.602831e+01
8.278640e+01	-1.607637e+01
8.326457e+01	-1.612547e+01
8.374550e+01	-1.617375e+01
8.422921e+01	-1.622320e+01
8.471572e+01	-1.627109e+01
8.520503e+01	-1.632088e+01
8.569717e+01	-1.636868e+01
8.619215e+01	-1.641852e+01
8.669000e+01	-1.646766e+01
8.719071e+01	-1.651705e+01
8.769432e+01	-1.656566e+01
8.820084e+01	-1.661424e+01
8.871029e+01	-1.666302e+01
8.922267e+01	-1.671225e+01
8.973802e+01	-1.676041e+01
9.025634e+01	-1.681017e+01
9.077766e+01	-1.685910e+01
9.130199e+01	-1.690803e+01
9.182935e+01	-1.695631e+01
9.235975e+01	-1.700632e+01
9.289321e+01	-1.705435e+01
9.342976e+01	-1.710448e+01
9.396941e+01	-1.715250e+01
9.451217e+01	-1.720260e+01
9.505807e+01	-1.725185e+01
9.560712e+01	-1.729983e+01
9.615934e+01	-1.735146e+01
9.671476e+01	-1.739871e+01
9.727338e+01	-1.744753e+01
9.783522e+01	-1.749612e+01
9.840032e+01	-1.754616e+01
9.896867e+01	-1.759507e+01
9.954031e+01	-1.764474e+01
1.001153e+02	-1.769453e+01
1.006935e+02	-1.774226e+01
1.012751e+02	-1.779159e+01
1.018601e+02	-1.784254e+01
1.024484e+02	-1.789014e+01
1.030402e+02	-1.793870e+01
1.036353e+02	-1.798851e+01
1.042339e+02	-1.803823e+01
1.048360e+02	-1.808781e+01
1.054415e+02	-1.813642e+01
1.060505e+02	-1.818628e+01
1.066631e+02	-1.823468e+01
1.072791e+02	-1.828519e+01
1.078988e+02	-1.833303e+01
1.085220e+02	-1.838171e+01
1.091488e+02	-1.843421e+01
1.097793e+02	-1.848078e+01
1.104133e+02	-1.853196e+01
1.110511e+02	-1.858012e+01
1.116925e+02	-1.862891e+01
1.123376e+02	-1.867909e+01
1.129865e+02	-1.872830e+01
1.136391e+02	-1.877757e+01
1.142955e+02	-1.882555e+01
1.149556e+02	-1.887721e+01
1.156196e+02	-1.892513e+01
1.162874e+02	-1.897459e+01
1.169591e+02	-1.902456e+01
1.176347e+02	-1.907488e+01
1.183141e+02	-1.912313e+01
1.189975e+02	-1.917293e+01
1.196848e+02	-1.922225e+01
1.203761e+02	-1.927093e+01
1.210714e+02	-1.932239e+01
1.217707e+02	-1.936864e+01
1.224740e+02	-1.942049e+01
1.231814e+02	-1.946955e+01
1.238929e+02	-1.951917e+01
1.246085e+02	-1.956835e+01
1.253283e+02	-1.961881e+01
1.260522e+02	-1.966770e+01
1.267802e+02	-1.971849e+01
1.275125e+02	-1.976622e+01
1.282490e+02	-1.981791e+01
1.289898e+02	-1.986487e+01
1.297348e+02	-1.991563e+01
1.304842e+02	-1.996460e+01
1.312378e+02	-2.001458e+01
1.319959e+02	-2.006415e+01
1.327583e+02	-2.011351e+01
1.335251e+02	-2.016234e+01
1.342963e+02	-2.021264e+01
1.350720e+02	-2.026267e+01
1.358522e+02	-2.031138e+01
1.366368e+02	-2.036077e+01
1.374260e+02	-2.040939e+01
1.382198e+02	-2.046075e+01
1.390182e+02	-2.050938e+01
1.398211e+02	-2.055964e+01
1.406287e+02	-2.060975e+01
1.414410e+02	-2.065991e+01
1.422579e+02	-2.070917e+01
1.430796e+02	-2.075937e+01
1.439060e+02	-2.080744e+01
1.447372e+02	-2.085808e+01
1.455732e+02	-2.090632e+01
1.464141e+02	-2.095826e+01
1.472597e+02	-2.100611e+01
1.481103e+02	-2.105516e+01
1.489658e+02	-2.110450e+01
1.498262e+02	-2.115527e+01
1.506916e+02	-2.120530e+01
1.515620e+02	-2.125469e+01
1.524374e+02	-2.130545e+01
1.533179e+02	-2.135107e+01
1.542034e+02	-2.140350e+01
1.550941e+02	-2.145416e+01
1.559899e+02	-2.150234e+01
1.568909e+02	-2.155326e+01
1.577971e+02	-2.160274e+01
1.587085e+02	-2.165080e+01
1.596252e+02	-2.169975e+01
1.605472e+02	-2.175058e+01
1.614745e+02	-2.180161e+01
1.624072e+02	-2.185062e+01
1.633453e+02	-2.190085e+01
1.642887e+02	-2.194780e+01
1.652377e+02	-2.199982e+01
1.661921e+02	-2.205082e+01
1.671520e+02	-2.210101e+01
1.681175e+02	-2.214956e+01
1.690885e+02	-2.219762e+01
1.700651e+02	-2.224775e+01
1.710474e+02	-2.229710e+01
1.720354e+02	-2.234844e+01
1.730291e+02	-2.239887e+01
1.740285e+02	-2.244723e+01
1.750337e+02	-2.249795e+01
1.760446e+02	-2.254684e+01
1.770615e+02	-2.259735e+01
1.780842e+02	-2.264655e+01
1.791128e+02	-2.269662e+01
1.801473e+02	-2.274635e+01
1.811878e+02	-2.279482e+01
1.822344e+02	-2.284598e+01
1.832870e+02	-2.289525e+01
1.843456e+02	-2.294746e+01
1.854104e+02	-2.299446e+01
1.864813e+02	-2.304662e+01
1.875584e+02	-2.309272e+01
1.886418e+02	-2.314417e+01
1.897313e+02	-2.319378e+01
1.908272e+02	-2.324525e+01
1.919294e+02	-2.329377e+01
1.930380e+02	-2.334212e+01
1.941530e+02	-2.339351e+01
1.952744e+02	-2.344385e+01
1.964023e+02	-2.349153e+01
1.975367e+02	-2.354415e+01
1.986777e+02	-2.359278e+01
1.998252e+02	-2.364072e+01
2.009794e+02	-2.369042e+01
2.021403e+02	-2.374212e+01
2.033078e+02	-2.379244e+01
2.044821e+02	-2.384232e+01
2.056632e+02	-2.389131e+01
2.068511e+02	-2.394113e+01
2.080459e+02	-2.399262e+01
2.092475e+02	-2.404303e+01
2.104561e+02	-2.409241e+01
2.116717e+02	-2.414040e+01
2.128943e+02	-2.419197e+01
2.141240e+02	-2.423917e+01
2.153608e+02	-2.429055e+01
2.166047e+02	-2.434249e+01
2.178558e+02	-2.438967e+01
2.191141e+02	-2.444077e+01
2.203797e+02	-2.449224e+01
2.216526e+02	-2.453639e+01
2.229329e+02	-2.458960e+01
2.242205e+02	-2.463772e+01
2.255156e+02	-2.469035e+01
2.268182e+02	-2.473767e+01
2.281283e+02	-2.478856e+01
2.294459e+02	-2.483721e+01
2.307712e+02	-2.488812e+01
2.321041e+02	-2.493776e+01
2.334447e+02	-2.499162e+01
2.347931e+02	-2.503550e+01
2.361493e+02	-2.508407e+01
2.375133e+02	-2.513824e+01
2.388851e+02	-2.518931e+01
2.402649e+02	-2.523856e+01
2.416527e+02	-2.528923e+01
2.430484e+02	-2.533825e+01
2.444523e+02	-2.538829e+01
2.458642e+02	-2.543963e+01
2.472843e+02	-2.548961e+01
2.487126e+02	-2.553942e+01
2.501492e+02	-2.558900e+01
2.515940e+02	-2.563848e+01
2.530472e+02	-2.568803e+01
2.545088e+02	-2.573925e+01
2.559789e+02	-2.578616e+01
2.574574e+02	-2.583931e+01
2.589444e+02	-2.588935e+01
2.604401e+02	-2.593658e+01
2.619444e+02	-2.598709e+01
2.634574e+02	-2.603846e+01
2.649791e+02	-2.608915e+01
2.665096e+02	-2.613662e+01
2.680489e+02	-2.618695e+01
2.695972e+02	-2.623764e+01
2.711544e+02	-2.628435e+01
2.727205e+02	-2.633878e+01
2.742958e+02	-2.639063e+01
2.758801e+02	-2.643554e+01
2.774736e+02	-2.648699e+01
2.790762e+02	-2.653528e+01
2.806882e+02	-2.658724e+01
2.823094e+02	-2.663714e+01
2.839400e+02	-2.668829e+01
2.855800e+02	-2.673703e+01
2.872295e+02	-2.678515e+01
2.888886e+02	-2.683641e+01
2.905572e+02	-2.688743e+01
2.922354e+02	-2.693903e+01
2.939234e+02	-2.698543e+01
2.956211e+02	-2.703789e+01
2.973286e+02	-2.708717e+01
2.990459e+02	-2.713674e+01
3.007732e+02	-2.718359e+01
3.025104e+02	-2.723451e+01
3.042577e+02	-2.728617e+01
3.060151e+02	-2.733595e+01
3.077826e+02	-2.738548e+01
3.095604e+02	-2.743908e+01
3.113484e+02	-2.749092e+01
3.131467e+02	-2.753813e+01
3.149554e+02	-2.759012e+01
3.167746e+02	-2.763528e+01
3.186043e+02	-2.768558e+01
3.204445e+02	-2.773593e+01
3.222954e+02	-2.778877e+01
3.241570e+02	-2.784084e+01
3.260293e+02	-2.788254e+01
3.279124e+02	-2.793702e+01
3.298064e+02	-2.798869e+01
3.317114e+02	-2.803785e+01
3.336273e+02	-2.809062e+01
3.355544e+02	-2.813500e+01
3.374925e+02	-2.818861e+01
3.394418e+02	-2.823849e+01
3.414024e+02	-2.828981e+01
3.433744e+02	-2.833789e+01
3.453577e+02	-2.838898e+01
3.473525e+02	-2.843708e+01
3.493588e+02	-2.848505e+01
3.513766e+02	-2.853560e+01
3.534062e+02	-2.858829e+01
3.554474e+02	-2.863565e+01
3.575005e+02	-2.868735e+01
3.595654e+02	-2.874060e+01
3.616422e+02	-2.878991e+01
3.637311e+02	-2.884039e+01
3.658320e+02	-2.888760e+01
3.679450e+02	-2.893695e+01
3.700702e+02	-2.898791e+01
3.722077e+02	-2.904219e+01
3.743576e+02	-2.909360e+01
3.765199e+02	-2.913619e+01
3.786946e+02	-2.918579e+01
3.808820e+02	-2.923768e+01
3.830819e+02	-2.929373e+01
3.852946e+02	-2.933309e+01
3.875200e+02	-2.938911e+01
3.897583e+02	-2.943739e+01
3.920096e+02	-2.948791e+01
3.942738e+02	-2.953947e+01
3.965511e+02	-2.958736e+01
3.988416e+02	-2.963751e+01
4.011452e+02	-2.969127e+01
4.034622e+02	-2.973998e+01
4.057926e+02	-2.978749e+01
4.081365e+02	-2.983400e+01
4.104938e+02	-2.989061e+01
4.128648e+02	-2.993642e+01
4.152495e+02	-2.998793e+01
4.176480e+02	-3.004078e+01
4.200603e+02	-3.008926e+01
4.224866e+02	-3.014102e+01
4.249268e+02	-3.018874e+01
4.273812e+02	-3.023569e+01
4.298497e+02	-3.028662e+01
4.323325e+02	-3.034306e+01
4.348297e+02	-3.039047e+01
4.373412e+02	-3.044153e+01
4.398673e+02	-3.049456e+01
4.424079e+02	-3.054220e+01
4.449633e+02	-3.058462e+01
4.475334e+02	-3.064193e+01
4.501183e+02	-3.069332e+01
4.527182e+02	-3.074292e+01
4.553330e+02	-3.079145e+01
4.579630e+02	-3.084058e+01
4.606082e+02	-3.089086e+01
4.632687e+02	-3.094331e+01
4.659445e+02	-3.099003e+01
4.686358e+02	-3.104843e+01
4.713426e+02	-3.108872e+01
4.740650e+02	-3.114198e+01
4.768032e+02	-3.119001e+01
4.795572e+02	-3.124057e+01
4.823271e+02	-3.129133e+01
4.851130e+02	-3.134281e+01
4.879150e+02	-3.139464e+01
4.907332e+02	-3.143933e+01
4.935676e+02	-3.149918e+01
4.964185e+02	-3.155146e+01
4.992858e+02	-3.159516e+01
5.021696e+02	-3.164402e+01
5.050701e+02	-3.169626e+01
5.079874e+02	-3.174693e+01
5.109215e+02	-3.179730e+01
5.138726e+02	-3.183930e+01
5.168407e+02	-3.189373e+01
5.198259e+02	-3.194204e+01
5.228284e+02	-3.199202e+01
5.258482e+02	-3.204910e+01
5.288855e+02	-3.209630e+01
5.319403e+02	-3.214312e+01
5.350128e+02	-3.219321e+01
5.381030e+02	-3.224354e+01
5.412111e+02	-3.229973e+01
5.443371e+02	-3.234594e+01
5.474812e+02	-3.239662e+01
5.506434e+02	-3.244868e+01
5.538239e+02	-3.249618e+01
5.570228e+02	-3.254234e+01
5.602401e+02	-3.259395e+01
5.634760e+02	-3.265351e+01
5.667306e+02	-3.269525e+01
5.700040e+02	-3.274946e+01
5.732964e+02	-3.279602e+01
5.766077e+02	-3.284687e+01
5.799382e+02	-3.289888e+01
5.832879e+02	-3.295396e+01
5.866569e+02	-3.299789e+01
5.900454e+02	-3.304712e+01
5.934535e+02	-3.309840e+01
5.968813e+02	-3.314550e+01
6.003288e+02	-3.320499e+01
6.037963e+02	-3.324948e+01
6.072838e+02	-3.329381e+01
6.107914e+02	-3.334364e+01
6.143194e+02	-3.340105e+01
6.178676e+02	-3.344816e+01
6.214364e+02	-3.350426e+01
6.250258e+02	-3.355751e+01
6.286359e+02	-3.360545e+01
6.322669e+02	-3.365705e+01
6.359189e+02	-3.370006e+01
6.395919e+02	-3.375098e+01
6.432862e+02	-3.380285e+01
6.470017e+02	-3.385287e+01
6.507388e+02	-3.390947e+01
6.544974e+02	-3.395123e+01
6.582778e+02	-3.400854e+01
6.620800e+02	-3.405242e+01
6.659041e+02	-3.410437e+01
6.697504e+02	-3.414728e+01
6.736188e+02	-3.420139e+01
6.775096e+02	-3.425713e+01
6.814229e+02	-3.430393e+01
6.853587e+02	-3.436138e+01
6.893173e+02	-3.440509e+01
6.932988e+02	-3.445422e+01
6.973033e+02	-3.451131e+01
7.013309e+02	-3.456074e+01
