Frequency(Hz)	Magnitude(dB)
1.000000e+01	-2.189185e+00
1.005776e+01	-2.209170e+00
1.011585e+01	-2.229103e+00
1.017428e+01	-2.249125e+00
1.023305e+01	-2.269640e+00
1.029215e+01	-2.289824e+00
1.035160e+01	-2.310538e+00
1.041139e+01	-2.331282e+00
1.047153e+01	-2.352073e+00
1.053201e+01	-2.373002e+00
1.059284e+01	-2.394178e+00
1.065403e+01	-2.415287e+00
1.071556e+01	-2.436760e+00
1.077746e+01	-2.458659e+00
1.083971e+01	-2.480378e+00
1.090232e+01	-2.501920e+00
1.096529e+01	-2.524088e+00
1.102862e+01	-2.546000e+00
1.109232e+01	-2.568354e+00
1.115639e+01	-2.590604e+00
1.122083e+01	-2.613122e+00
1.128564e+01	-2.635978e+00
1.135083e+01	-2.658821e+00
1.141639e+01	-2.681796e+00
1.148233e+01	-2.704908e+00
1.154865e+01	-2.727821e+00
1.161536e+01	-2.751467e+00
1.168245e+01	-2.775234e+00
1.174992e+01	-2.798833e+00
1.181779e+01	-2.822705e+00
1.188605e+01	-2.846696e+00
1.195470e+01	-2.870769e+00
1.202375e+01	-2.894847e+00
1.209320e+01	-2.919529e+00
1.216305e+01	-2.943965e+00
1.223330e+01	-2.968818e+00
1.230396e+01	-2.993385e+00
1.237503e+01	-3.018622e+00
1.244651e+01	-3.043775e+00
1.251840e+01	-3.068795e+00
1.259070e+01	-3.094380e+00
1.266343e+01	-3.119800e+00
1.273657e+01	-3.145600e+00
1.281014e+01	-3.171509e+00
1.288413e+01	-3.197601e+00
1.295855e+01	-3.223617e+00
1.303339e+01	-3.249615e+00
1.310867e+01	-3.276312e+00
1.318439e+01	-3.302720e+00
1.326054e+01	-3.329900e+00
1.333713e+01	-3.356513e+00
1.341417e+01	-3.383244e+00
1.349165e+01	-3.410504e+00
1.356958e+01	-3.437913e+00
1.364795e+01	-3.465395e+00
1.372678e+01	-3.492930e+00
1.380607e+01	-3.520723e+00
1.388581e+01	-3.548382e+00
1.396602e+01	-3.576595e+00
1.404668e+01	-3.604677e+00
1.412782e+01	-3.632789e+00
1.420942e+01	-3.661509e+00
1.429149e+01	-3.689962e+00
1.437404e+01	-3.718465e+00
1.445706e+01	-3.747228e+00
1.454057e+01	-3.776352e+00
1.462455e+01	-3.805568e+00
1.470902e+01	-3.834900e+00
1.479398e+01	-3.864146e+00
1.487943e+01	-3.893781e+00
1.496537e+01	-3.923436e+00
1.505181e+01	-3.953313e+00
1.513875e+01	-3.983374e+00
1.522619e+01	-4.013135e+00
1.531414e+01	-4.043400e+00
1.540259e+01	-4.073943e+00
1.549156e+01	-4.104369e+00
1.558103e+01	-4.135012e+00
1.567103e+01	-4.165849e+00
1.576155e+01	-4.196654e+00
1.585258e+01	-4.227754e+00
1.594415e+01	-4.258855e+00
1.603624e+01	-4.290317e+00
1.612886e+01	-4.321861e+00
1.622202e+01	-4.353477e+00
1.631572e+01	-4.385132e+00
1.640996e+01	-4.417104e+00
1.650474e+01	-4.449189e+00
1.660008e+01	-4.481091e+00
1.669596e+01	-4.513348e+00
1.679239e+01	-4.545754e+00
1.688938e+01	-4.578489e+00
1.698694e+01	-4.611075e+00
1.708505e+01	-4.643773e+00
1.718373e+01	-4.676837e+00
1.728299e+01	-4.709624e+00
1.738281e+01	-4.742774e+00
1.748322e+01	-4.776509e+00
1.758420e+01	-4.809658e+00
1.768576e+01	-4.843398e+00
1.778792e+01	-4.876822e+00
1.789066e+01	-4.910603e+00
1.799399e+01	-4.944809e+00
1.809793e+01	-4.978614e+00
1.820246e+01	-5.013018e+00
1.830760e+01	-5.047498e+00
1.841334e+01	-5.082358e+00
1.851969e+01	-5.116165e+00
1.862666e+01	-5.151027e+00
1.873425e+01	-5.186073e+00
1.884246e+01	-5.220473e+00
1.895129e+01	-5.255891e+00
1.906075e+01	-5.291076e+00
1.917085e+01	-5.326134e+00
1.928158e+01	-5.361427e+00
1.939295e+01	-5.397045e+00
1.950496e+01	-5.432767e+00
1.961762e+01	-5.468633e+00
1.973093e+01	-5.504355e+00
1.984490e+01	-5.540231e+00
1.995952e+01	-5.576783e+00
2.007480e+01	-5.612955e+00
2.019076e+01	-5.649127e+00
2.030738e+01	-5.685481e+00
2.042467e+01	-5.722151e+00
2.054264e+01	-5.758806e+00
2.066130e+01	-5.795937e+00
2.078064e+01	-5.832512e+00
2.090066e+01	-5.869650e+00
2.102139e+01	-5.906525e+00
2.114280e+01	-5.943941e+00
2.126492e+01	-5.981582e+00
2.138775e+01	-6.018677e+00
2.151128e+01	-6.056080e+00
2.163553e+01	-6.094132e+00
2.176050e+01	-6.131735e+00
2.188619e+01	-6.169978e+00
2.201260e+01	-6.207856e+00
2.213974e+01	-6.246193e+00
2.226762e+01	-6.284165e+00
2.239624e+01	-6.322147e+00
2.252560e+01	-6.360906e+00
2.265571e+01	-6.399255e+00
2.278656e+01	-6.437770e+00
2.291818e+01	-6.476794e+00
2.305055e+01	-6.515331e+00
2.318369e+01	-6.554479e+00
2.331760e+01	-6.593235e+00
2.345228e+01	-6.632189e+00
2.358774e+01	-6.671515e+00
2.372398e+01	-6.710896e+00
2.386101e+01	-6.750245e+00
2.399883e+01	-6.789904e+00
2.413745e+01	-6.829548e+00
2.427686e+01	-6.869218e+00
2.441709e+01	-6.909084e+00
2.455812e+01	-6.948882e+00
2.469997e+01	-6.988821e+00
2.484263e+01	-7.028901e+00
2.498612e+01	-7.069180e+00
2.513044e+01	-7.109183e+00
2.527559e+01	-7.149566e+00
2.542158e+01	-7.189676e+00
2.556842e+01	-7.230459e+00
2.571610e+01	-7.270856e+00
2.586463e+01	-7.311867e+00
2.601403e+01	-7.352713e+00
2.616428e+01	-7.393392e+00
2.631541e+01	-7.434199e+00
2.646740e+01	-7.475314e+00
2.662028e+01	-7.516592e+00
2.677404e+01	-7.557782e+00
2.692868e+01	-7.599369e+00
2.708422e+01	-7.640240e+00
2.724066e+01	-7.681792e+00
2.739800e+01	-7.723119e+00
2.755625e+01	-7.765123e+00
2.771541e+01	-7.806801e+00
2.787550e+01	-7.848147e+00
2.803650e+01	-7.890379e+00
2.819844e+01	-7.932458e+00
2.836131e+01	-7.974155e+00
2.852513e+01	-8.016436e+00
2.868989e+01	-8.059366e+00
2.885560e+01	-8.100822e+00
2.902227e+01	-8.143254e+00
2.918990e+01	-8.185248e+00
2.935850e+01	-8.228094e+00
2.952807e+01	-8.270487e+00
2.969863e+01	-8.313043e+00
2.987016e+01	-8.355628e+00
3.004269e+01	-8.398437e+00
3.021622e+01	-8.441343e+00
3.039075e+01	-8.484514e+00
3.056628e+01	-8.527229e+00
3.074283e+01	-8.570080e+00
3.092040e+01	-8.613459e+00
3.109900e+01	-8.656583e+00
3.127862e+01	-8.700446e+00
3.145929e+01	-8.743288e+00
3.164099e+01	-8.786653e+00
3.182375e+01	-8.829762e+00
3.200756e+01	-8.873543e+00
3.219244e+01	-8.917222e+00
3.237838e+01	-8.960505e+00
3.256540e+01	-9.004520e+00
3.275349e+01	-9.047875e+00
3.294268e+01	-9.091794e+00
3.313295e+01	-9.135952e+00
3.332433e+01	-9.179694e+00
3.351681e+01	-9.223813e+00
3.371040e+01	-9.268015e+00
3.390511e+01	-9.312010e+00
3.410094e+01	-9.356266e+00
3.429791e+01	-9.400555e+00
3.449601e+01	-9.444364e+00
3.469526e+01	-9.488910e+00
3.489566e+01	-9.533466e+00
3.509721e+01	-9.577879e+00
3.529993e+01	-9.622346e+00
3.550382e+01	-9.666837e+00
3.570889e+01	-9.712134e+00
3.591515e+01	-9.756036e+00
3.612259e+01	-9.801521e+00
3.633123e+01	-9.846292e+00
3.654108e+01	-9.891242e+00
3.675214e+01	-9.935636e+00
3.696442e+01	-9.980809e+00
3.717792e+01	-1.002635e+01
3.739266e+01	-1.007079e+01
3.760864e+01	-1.011549e+01
3.782587e+01	-1.016099e+01
3.804435e+01	-1.020655e+01
3.826409e+01	-1.025144e+01
3.848510e+01	-1.029731e+01
3.870739e+01	-1.034267e+01
3.893096e+01	-1.038798e+01
3.915583e+01	-1.043358e+01
3.938199e+01	-1.047876e+01
3.960946e+01	-1.052462e+01
3.983824e+01	-1.057022e+01
4.006834e+01	-1.061603e+01
4.029978e+01	-1.066145e+01
4.053255e+01	-1.070707e+01
4.076666e+01	-1.075291e+01
4.100213e+01	-1.079873e+01
4.123896e+01	-1.084457e+01
4.147715e+01	-1.089105e+01
4.171672e+01	-1.093651e+01
4.195767e+01	-1.098280e+01
4.220002e+01	-1.102885e+01
4.244377e+01	-1.107462e+01
4.268892e+01	-1.112125e+01
4.293549e+01	-1.116741e+01
4.318348e+01	-1.121364e+01
4.343291e+01	-1.125988e+01
4.368377e+01	-1.130604e+01
4.393609e+01	-1.135253e+01
4.418986e+01	-1.139894e+01
4.444510e+01	-1.144494e+01
4.470182e+01	-1.149167e+01
4.496001e+01	-1.153838e+01
4.521970e+01	-1.158503e+01
4.548089e+01	-1.163121e+01
4.574358e+01	-1.167721e+01
4.600779e+01	-1.172461e+01
4.627353e+01	-1.177130e+01
4.654081e+01	-1.181777e+01
4.680963e+01	-1.186374e+01
4.708000e+01	-1.191110e+01
4.735193e+01	-1.195857e+01
4.762543e+01	-1.200515e+01
4.790051e+01	-1.205218e+01
4.817719e+01	-1.209902e+01
4.845545e+01	-1.214537e+01
4.873533e+01	-1.219342e+01
4.901682e+01	-1.223939e+01
4.929994e+01	-1.228598e+01
4.958470e+01	-1.233377e+01
4.987110e+01	-1.238108e+01
5.015915e+01	-1.242864e+01
5.044887e+01	-1.247598e+01
5.074026e+01	-1.252260e+01
5.103333e+01	-1.256969e+01
5.132810e+01	-1.261686e+01
5.162457e+01	-1.266442e+01
5.192275e+01	-1.271095e+01
5.222265e+01	-1.275915e+01
5.252429e+01	-1.280629e+01
5.282767e+01	-1.285386e+01
5.313280e+01	-1.290163e+01
5.343969e+01	-1.294923e+01
5.374836e+01	-1.299654e+01
5.405880e+01	-1.304360e+01
5.437105e+01	-1.309166e+01
5.468509e+01	-1.313871e+01
5.500095e+01	-1.318680e+01
5.531863e+01	-1.323420e+01
5.563815e+01	-1.328249e+01
5.595951e+01	-1.332944e+01
5.628273e+01	-1.337688e+01
5.660782e+01	-1.342464e+01
5.693479e+01	-1.347274e+01
5.726364e+01	-1.352028e+01
5.759439e+01	-1.356772e+01
5.792705e+01	-1.361613e+01
5.826164e+01	-1.366402e+01
5.859815e+01	-1.371189e+01
5.893662e+01	-1.375984e+01
5.927703e+01	-1.380863e+01
5.961941e+01	-1.385656e+01
5.996377e+01	-1.390378e+01
6.031012e+01	-1.395227e+01
6.065847e+01	-1.399926e+01
6.100883e+01	-1.404804e+01
6.136121e+01	-1.409592e+01
6.171563e+01	-1.414455e+01
6.207210e+01	-1.419278e+01
6.243063e+01	-1.424061e+01
6.279122e+01	-1.428882e+01
6.315390e+01	-1.433658e+01
6.351868e+01	-1.438518e+01
6.388556e+01	-1.443255e+01
6.425456e+01	-1.448064e+01
6.462569e+01	-1.452954e+01
6.499897e+01	-1.457755e+01
6.537440e+01	-1.462659e+01
6.575200e+01	-1.467437e+01
6.613178e+01	-1.472364e+01
6.651375e+01	-1.477143e+01
6.689793e+01	-1.481937e+01
6.728433e+01	-1.486736e+01
6.767297e+01	-1.491629e+01
6.806384e+01	-1.496419e+01
6.845698e+01	-1.501312e+01
6.885238e+01	-1.506127e+01
6.925007e+01	-1.511045e+01
6.965005e+01	-1.515900e+01
7.005235e+01	-1.520723e+01
7.045697e+01	-1.525574e+01
7.086393e+01	-1.530480e+01
7.127323e+01	-1.535326e+01
7.168490e+01	-1.540118e+01
7.209895e+01	-1.545042e+01
7.251539e+01	-1.549866e+01
7.293424e+01	-1.554773e+01
7.335551e+01	-1.559577e+01
7.377920e+01	-1.564510e+01
7.420535e+01	-1.569363e+01
7.463396e+01	-1.574237e+01
7.506504e+01	-1.579026e+01
7.549861e+01	-1.583899e+01
7.593469e+01	-1.588860e+01
7.637328e+01	-1.593648e+01
7.681441e+01	-1.598526e+01
7.725809e+01	-1.603410e+01
7.770433e+01	-1.608338e+01
7.815315e+01	-1.613293e+01
7.860456e+01	-1.618018e+01
7.905857e+01	-1.622935e+01
7.951521e+01	-1.627795e+01
7.997449e+01	-1.632723e+01
8.043642e+01	-1.637625e+01
8.090102e+01	-1.642420e+01
8.136830e+01	-1.647333e+01
8.183828e+01	-1.652295e+01
8.231097e+01	-1.657072e+01
8.278640e+01	-1.661985e+01
8.326457e+01	-1.666981e+01
8.374550e+01	-1.671731e+01
8.422921e+01	-1.676873e+01
8.471572e+01	-1.681638e+01
8.520503e+01	-1.686467e+01
8.569717e+01	-1.691418e+01
8.619215e+01	-1.696369e+01
8.669000e+01	-1.701318e+01
8.719071e+01	-1.706180e+01
8.769432e+01	-1.711067e+01
8.820084e+01	-1.716087e+01
8.871029e+01	-1.720828e+01
8.922267e+01	-1.725757e+01
8.973802e+01	-1.730741e+01
9.025634e+01	-1.735601e+01
9.077766e+01	-1.740495e+01
9.130199e+01	-1.745351e+01
9.182935e+01	-1.750424e+01
9.235975e+01	-1.755172e+01
9.289321e+01	-1.760224e+01
9.342976e+01	-1.765116e+01
9.396941e+01	-1.770138e+01
9.451217e+01	-1.774837e+01
9.505807e+01	-1.779915e+01
9.560712e+01	-1.784922e+01
9.615934e+01	-1.789703e+01
9.671476e+01	-1.794652e+01
9.727338e+01	-1.799501e+01
9.783522e+01	-1.804487e+01
9.840032e+01	-1.809395e+01
9.896867e+01	-1.814390e+01
9.954031e+01	-1.819256e+01
1.001153e+02	-1.824146e+01
1.006935e+02	-1.828986e+01
1.012751e+02	-1.834126e+01
1.018601e+02	-1.839030e+01
1.024484e+02	-1.843815e+01
1.030402e+02	-1.848784e+01
1.036353e+02	-1.853780e+01
1.042339e+02	-1.858729e+01
1.048360e+02	-1.863603e+01
1.054415e+02	-1.868586e+01
1.060505e+02	-1.873453e+01
1.066631e+02	-1.878440e+01
1.072791e+02	-1.883322e+01
1.078988e+02	-1.888369e+01
1.085220e+02	-1.893384e+01
1.091488e+02	-1.898239e+01
1.097793e+02	-1.903205e+01
1.104133e+02	-1.908065e+01
1.110511e+02	-1.913070e+01
1.116925e+02	-1.918114e+01
1.123376e+02	-1.922915e+01
1.129865e+02	-1.927809e+01
1.136391e+02	-1.932856e+01
1.142955e+02	-1.937754e+01
1.149556e+02	-1.942857e+01
1.156196e+02	-1.947718e+01
1.162874e+02	-1.952518e+01
1.169591e+02	-1.957531e+01
1.176347e+02	-1.962326e+01
1.183141e+02	-1.967350e+01
1.189975e+02	-1.972355e+01
1.196848e+02	-1.977340e+01
1.203761e+02	-1.982349e+01
1.210714e+02	-1.987269e+01
1.217707e+02	-1.992201e+01
1.224740e+02	-1.997107e+01
1.231814e+02	-2.001980e+01
1.238929e+02	-2.006954e+01
1.246085e+02	-2.011984e+01
1.253283e+02	-2.016916e+01
1.260522e+02	-2.021905e+01
1.267802e+02	-2.026971e+01
1.275125e+02	-2.031820e+01
1.282490e+02	-2.036758e+01
1.289898e+02	-2.041812e+01
1.297348e+02	-2.046711e+01
1.304842e+02	-2.051534e+01
1.312378e+02	-2.056665e+01
1.319959e+02	-2.061688e+01
1.327583e+02	-2.066597e+01
1.335251e+02	-2.071455e+01
1.342963e+02	-2.076459e+01
1.350720e+02	-2.081488e+01
1.358522e+02	-2.086537e+01
1.366368e+02	-2.091241e+01
1.374260e+02	-2.096499e+01
1.382198e+02	-2.101370e+01
1.390182e+02	-2.106301e+01
1.398211e+02	-2.111219e+01
1.406287e+02	-2.116279e+01
1.414410e+02	-2.121082e+01
1.422579e+02	-2.126134e+01
1.430796e+02	-2.131012e+01
1.439060e+02	-2.136125e+01
1.447372e+02	-2.140924e+01
1.455732e+02	-2.146057e+01
1.464141e+02	-2.150904e+01
1.472597e+02	-2.155836e+01
1.481103e+02	-2.160715e+01
1.489658e+02	-2.165756e+01
1.498262e+02	-2.170966e+01
1.506916e+02	-2.175766e+01
1.515620e+02	-2.180853e+01
1.524374e+02	-2.185837e+01
1.533179e+02	-2.190656e+01
1.542034e+02	-2.195524e+01
1.550941e+02	-2.200514e+01
1.559899e+02	-2.205519e+01
1.568909e+02	-2.210609e+01
1.577971e+02	-2.215783e+01
1.587085e+02	-2.220478e+01
1.596252e+02	-2.225488e+01
1.605472e+02	-2.230564e+01
1.614745e+02	-2.235439e+01
1.624072e+02	-2.240543e+01
1.633453e+02	-2.245549e+01
1.642887e+02	-2.250311e+01
1.652377e+02	-2.255389e+01
1.661921e+02	-2.260570e+01
1.671520e+02	-2.265571e+01
1.681175e+02	-2.270147e+01
1.690885e+02	-2.275340e+01
1.700651e+02	-2.280234e+01
1.710474e+02	-2.285142e+01
1.720354e+02	-2.290221e+01
1.730291e+02	-2.294990e+01
1.740285e+02	-2.300328e+01
1.750337e+02	-2.305136e+01
1.760446e+02	-2.310098e+01
1.770615e+02	-2.315103e+01
1.780842e+02	-2.320261e+01
1.791128e+02	-2.325069e+01
1.801473e+02	-2.330348e+01
1.811878e+02	-2.334956e+01
1.822344e+02	-2.340059e+01
1.832870e+02	-2.345087e+01
1.843456e+02	-2.349939e+01
1.854104e+02	-2.354934e+01
1.864813e+02	-2.359746e+01
1.875584e+02	-2.364947e+01
1.886418e+02	-2.369905e+01
1.897313e+02	-2.375162e+01
1.908272e+02	-2.380117e+01
1.919294e+02	-2.384836e+01
1.930380e+02	-2.389760e+01
1.941530e+02	-2.394596e+01
1.952744e+02	-2.399985e+01
1.964023e+02	-2.405029e+01
1.975367e+02	-2.410120e+01
1.986777e+02	-2.414742e+01
1.998252e+02	-2.419973e+01
2.009794e+02	-2.424930e+01
2.021403e+02	-2.429717e+01
2.033078e+02	-2.434589e+01
2.044821e+02	-2.439705e+01
2.056632e+02	-2.444812e+01
2.068511e+02	-2.449917e+01
2.080459e+02	-2.454962e+01
2.092475e+02	-2.459887e+01
2.104561e+02	-2.464646e+01
2.116717e+02	-2.469672e+01
2.128943e+02	-2.474817e+01
2.141240e+02	-2.479752e+01
2.153608e+02	-2.484714e+01
2.166047e+02	-2.489416e+01
2.178558e+02	-2.494301e+01
2.191141e+02	-2.499640e+01
2.203797e+02	-2.504417e+01
2.216526e+02	-2.509656e+01
2.229329e+02	-2.514735e+01
2.242205e+02	-2.519750e+01
2.255156e+02	-2.524739e+01
2.268182e+02	-2.529604e+01
2.281283e+02	-2.534718e+01
2.294459e+02	-2.539600e+01
2.307712e+02	-2.544574e+01
2.321041e+02	-2.549589e+01
2.334447e+02	-2.554708e+01
2.347931e+02	-2.559646e+01
2.361493e+02	-2.564493e+01
2.375133e+02	-2.569602e+01
2.388851e+02	-2.574436e+01
2.402649e+02	-2.579808e+01
2.416527e+02	-2.584490e+01
2.430484e+02	-2.589344e+01
2.444523e+02	-2.594337e+01
2.458642e+02	-2.599602e+01
2.472843e+02	-2.604649e+01
2.487126e+02	-2.609644e+01
2.501492e+02	-2.614353e+01
2.515940e+02	-2.619419e+01
2.530472e+02	-2.624477e+01
2.545088e+02	-2.629694e+01
2.559789e+02	-2.634608e+01
2.574574e+02	-2.639451e+01
2.589444e+02	-2.644406e+01
2.604401e+02	-2.649602e+01
2.619444e+02	-2.654724e+01
2.634574e+02	-2.659402e+01
2.649791e+02	-2.664730e+01
2.665096e+02	-2.669429e+01
2.680489e+02	-2.674319e+01
2.695972e+02	-2.679534e+01
2.711544e+02	-2.684469e+01
2.727205e+02	-2.689103e+01
2.742958e+02	-2.694433e+01
2.758801e+02	-2.699627e+01
2.774736e+02	-2.704344e+01
2.790762e+02	-2.709331e+01
2.806882e+02	-2.714056e+01
2.823094e+02	-2.719295e+01
2.839400e+02	-2.724275e+01
2.855800e+02	-2.729656e+01
2.872295e+02	-2.734505e+01
2.888886e+02	-2.739599e+01
2.905572e+02	-2.744451e+01
2.922354e+02	-2.749717e+01
2.939234e+02	-2.754357e+01
2.956211e+02	-2.759309e+01
2.973286e+02	-2.764664e+01
2.990459e+02	-2.769492e+01
3.007732e+02	-2.774642e+01
3.025104e+02	-2.779776e+01
3.042577e+02	-2.784398e+01
3.060151e+02	-2.789348e+01
3.077826e+02	-2.794218e+01
3.095604e+02	-2.799257e+01
3.113484e+02	-2.804625e+01
3.131467e+02	-2.809216e+01
3.149554e+02	-2.814033e+01
3.167746e+02	-2.819876e+01
3.186043e+02	-2.824432e+01
3.204445e+02	-2.829531e+01
3.222954e+02	-2.834911e+01
3.241570e+02	-2.839552e+01
3.260293e+02	-2.844431e+01
3.279124e+02	-2.849299e+01
3.298064e+02	-2.854839e+01
3.317114e+02	-2.859557e+01
3.336273e+02	-2.864726e+01
3.355544e+02	-2.869722e+01
3.374925e+02	-2.874857e+01
3.394418e+02	-2.879575e+01
3.414024e+02	-2.884602e+01
3.433744e+02	-2.889696e+01
3.453577e+02	-2.894744e+01
3.473525e+02	-2.899213e+01
3.493588e+02	-2.904999e+01
3.513766e+02	-2.909165e+01
3.534062e+02	-2.914588e+01
3.554474e+02	-2.919434e+01
3.575005e+02	-2.925136e+01
3.595654e+02	-2.929606e+01
3.616422e+02	-2.934269e+01
3.637311e+02	-2.939624e+01
3.658320e+02	-2.944344e+01
3.679450e+02	-2.949585e+01
3.700702e+02	-2.955103e+01
3.722077e+02	-2.959620e+01
3.743576e+02	-2.964464e+01
3.765199e+02	-2.969536e+01
3.786946e+02	-2.974481e+01
3.808820e+02	-2.979328e+01
3.830819e+02	-2.984825e+01
3.852946e+02	-2.989515e+01
3.875200e+02	-2.995110e+01
3.897583e+02	-2.999634e+01
3.920096e+02	-3.004912e+01
3.942738e+02	-3.010095e+01
3.965511e+02	-3.014794e+01
3.988416e+02	-3.019755e+01
4.011452e+02	-3.024484e+01
4.034622e+02	-3.029517e+01
4.057926e+02	-3.034649e+01
4.081365e+02	-3.039795e+01
4.104938e+02	-3.044859e+01
4.128648e+02	-3.049614e+01
4.152495e+02	-3.054827e+01
4.176480e+02	-3.060156e+01
4.200603e+02	-3.065245e+01
4.224866e+02	-3.070027e+01
4.249268e+02	-3.074579e+01
4.273812e+02	-3.079644e+01
4.298497e+02	-3.085247e+01
4.323325e+02	-3.090056e+01
4.348297e+02	-3.095408e+01
4.373412e+02	-3.099911e+01
4.398673e+02	-3.104884e+01
4.424079e+02	-3.109515e+01
4.449633e+02	-3.115020e+01
4.475334e+02	-3.120034e+01
4.501183e+02	-3.124727e+01
4.527182e+02	-3.130488e+01
4.553330e+02	-3.134971e+01
4.579630e+02	-3.140088e+01
4.606082e+02	-3.145140e+01
4.632687e+02	-3.150074e+01
4.659445e+02	-3.155189e+01
4.686358e+02	-3.159988e+01
4.713426e+02	-3.165236e+01
4.740650e+02	-3.170125e+01
4.768032e+02	-3.175348e+01
4.795572e+02	-3.180606e+01
4.823271e+02	-3.185769e+01
4.851130e+02	-3.190645e+01
4.879150e+02	-3.195378e+01
4.907332e+02	-3.201025e+01
4.935676e+02	-3.205351e+01
4.964185e+02	-3.210106e+01
4.992858e+02	-3.215853e+01
5.021696e+02	-3.220807e+01
5.050701e+02	-3.225472e+01
5.079874e+02	-3.230498e+01
5.109215e+02	-3.235959e+01
5.138726e+02	-3.240889e+01
5.168407e+02	-3.245598e+01
5.198259e+02	-3.250722e+01
5.228284e+02	-3.255834e+01
5.258482e+02	-3.260258e+01
5.288855e+02	-3.265922e+01
5.319403e+02	-3.270113e+01
5.350128e+02	-3.275587e+01
5.381030e+02	-3.280835e+01
5.412111e+02	-3.285846e+01
5.443371e+02	-3.291015e+01
5.474812e+02	-3.295714e+01
5.506434e+02	-3.300679e+01
5.538239e+02	-3.305832e+01
5.570228e+02	-3.310852e+01
5.602401e+02	-3.315770e+01
5.634760e+02	-3.321361e+01
5.667306e+02	-3.326381e+01
5.700040e+02	-3.331450e+01
5.732964e+02	-3.335276e+01
5.766077e+02	-3.341163e+01
5.799382e+02	-3.346288e+01
5.832879e+02	-3.350716e+01
5.866569e+02	-3.356345e+01
5.900454e+02	-3.360790e+01
5.934535e+02	-3.367150e+01
5.968813e+02	-3.371793e+01
6.003288e+02	-3.375871e+01
6.037963e+02	-3.382013e+01
6.072838e+02	-3.387242e+01
6.107914e+02	-3.391338e+01
6.143194e+02	-3.396417e+01
6.178676e+02	-3.401747e+01
6.214364e+02	-3.406099e+01
6.250258e+02	-3.411634e+01
6.286359e+02	-3.416619e+01
6.322669e+02	-3.422097e+01
6.359189e+02	-3.426751e+01
6.395919e+02	-3.432270e+01
6.432862e+02	-3.436845e+01
6.470017e+02	-3.442178e+01
6.507388e+02	-3.446708e+01
6.544974e+02	-3.452416e+01
6.582778e+02	-3.456670e+01
6.620800e+02	-3.462346e+01
6.659041e+02	-3.467771e+01
6.697504e+02	-3.471605e+01
6.736188e+02	-3.476861e+01
6.775096e+02	-3.481642e+01
6.814229e+02	-3.486682e+01
6.853587e+02	-3.492224e+01
6.893173e+02	-3.497223e+01
6.932988e+02	-3.502960e+01
6.973033e+02	-3.506842e+01
7.013309e+02	-3.512739e+01
