Frequency(Hz)	Magnitude(dB)
1.000000e+01	-2.053980e+00
1.005776e+01	-2.072965e+00
1.011585e+01	-2.091888e+00
1.017428e+01	-2.111146e+00
1.023305e+01	-2.130515e+00
1.029215e+01	-2.149954e+00
1.035160e+01	-2.169474e+00
1.041139e+01	-2.189400e+00
1.047153e+01	-2.209313e+00
1.053201e+01	-2.229403e+00
1.059284e+01	-2.249493e+00
1.065403e+01	-2.269915e+00
1.071556e+01	-2.290266e+00
1.077746e+01	-2.310923e+00
1.083971e+01	-2.331418e+00
1.090232e+01	-2.352257e+00
1.096529e+01	-2.373217e+00
1.102862e+01	-2.394518e+00
1.109232e+01	-2.415789e+00
1.115639e+01	-2.437168e+00
1.122083e+01	-2.458492e+00
1.128564e+01	-2.480403e+00
1.135083e+01	-2.502416e+00
1.141639e+01	-2.524186e+00
1.148233e+01	-2.546485e+00
1.154865e+01	-2.568524e+00
1.161536e+01	-2.591082e+00
1.168245e+01	-2.613776e+00
1.174992e+01	-2.636114e+00
1.181779e+01	-2.658987e+00
1.188605e+01	-2.682051e+00
1.195470e+01	-2.705242e+00
1.202375e+01	-2.728626e+00
1.209320e+01	-2.751899e+00
1.216305e+01	-2.775460e+00
1.223330e+01	-2.799293e+00
1.230396e+01	-2.822784e+00
1.237503e+01	-2.846507e+00
1.244651e+01	-2.870765e+00
1.251840e+01	-2.895324e+00
1.259070e+01	-2.919698e+00
1.266343e+01	-2.944367e+00
1.273657e+01	-2.968989e+00
1.281014e+01	-2.993982e+00
1.288413e+01	-3.018644e+00
1.295855e+01	-3.043982e+00
1.303339e+01	-3.069303e+00
1.310867e+01	-3.094451e+00
1.318439e+01	-3.120120e+00
1.326054e+01	-3.146105e+00
1.333713e+01	-3.171801e+00
1.341417e+01	-3.197730e+00
1.349165e+01	-3.223744e+00
1.356958e+01	-3.250163e+00
1.364795e+01	-3.276550e+00
1.372678e+01	-3.303422e+00
1.380607e+01	-3.329659e+00
1.388581e+01	-3.356659e+00
1.396602e+01	-3.383685e+00
1.404668e+01	-3.410989e+00
1.412782e+01	-3.438338e+00
1.420942e+01	-3.465625e+00
1.429149e+01	-3.493253e+00
1.437404e+01	-3.520874e+00
1.445706e+01	-3.548945e+00
1.454057e+01	-3.576702e+00
1.462455e+01	-3.605260e+00
1.470902e+01	-3.633158e+00
1.479398e+01	-3.661650e+00
1.487943e+01	-3.690384e+00
1.496537e+01	-3.718580e+00
1.505181e+01	-3.747533e+00
1.513875e+01	-3.776795e+00
1.522619e+01	-3.805851e+00
1.531414e+01	-3.835218e+00
1.540259e+01	-3.864350e+00
1.549156e+01	-3.894072e+00
1.558103e+01	-3.923973e+00
1.567103e+01	-3.953628e+00
1.576155e+01	-3.983612e+00
1.585258e+01	-4.013547e+00
1.594415e+01	-4.043915e+00
1.603624e+01	-4.074212e+00
1.612886e+01	-4.104798e+00
1.622202e+01	-4.135385e+00
1.631572e+01	-4.166313e+00
1.640996e+01	-4.197189e+00
1.650474e+01	-4.228301e+00
1.660008e+01	-4.259224e+00
1.669596e+01	-4.290597e+00
1.679239e+01	-4.322573e+00
1.688938e+01	-4.353809e+00
1.698694e+01	-4.385649e+00
1.708505e+01	-4.417505e+00
1.718373e+01	-4.449702e+00
1.728299e+01	-4.481844e+00
1.738281e+01	-4.513920e+00
1.748322e+01	-4.546451e+00
1.758420e+01	-4.578770e+00
1.768576e+01	-4.611544e+00
1.778792e+01	-4.643977e+00
1.789066e+01	-4.677074e+00
1.799399e+01	-4.710027e+00
1.809793e+01	-4.743393e+00
1.820246e+01	-4.776671e+00
1.830760e+01	-4.810491e+00
1.841334e+01	-4.843857e+00
1.851969e+01	-4.877556e+00
1.862666e+01	-4.911183e+00
1.873425e+01	-4.945249e+00
1.884246e+01	-4.979155e+00
1.895129e+01	-5.013407e+00
1.906075e+01	-5.047715e+00
1.917085e+01	-5.082202e+00
1.928158e+01	-5.116496e+00
1.939295e+01	-5.151218e+00
1.950496e+01	-5.186052e+00
1.961762e+01	-5.220856e+00
1.973093e+01	-5.256332e+00
1.984490e+01	-5.291473e+00
1.995952e+01	-5.326530e+00
2.007480e+01	-5.362098e+00
2.019076e+01	-5.397865e+00
2.030738e+01	-5.433270e+00
2.042467e+01	-5.468820e+00
2.054264e+01	-5.505093e+00
2.066130e+01	-5.540691e+00
2.078064e+01	-5.577003e+00
2.090066e+01	-5.613591e+00
2.102139e+01	-5.649615e+00
2.114280e+01	-5.685967e+00
2.126492e+01	-5.722837e+00
2.138775e+01	-5.759230e+00
2.151128e+01	-5.796315e+00
2.163553e+01	-5.832976e+00
2.176050e+01	-5.870301e+00
2.188619e+01	-5.907302e+00
2.201260e+01	-5.944443e+00
2.213974e+01	-5.981685e+00
2.226762e+01	-6.019271e+00
2.239624e+01	-6.056914e+00
2.252560e+01	-6.094270e+00
2.265571e+01	-6.132646e+00
2.278656e+01	-6.170133e+00
2.291818e+01	-6.208507e+00
2.305055e+01	-6.246232e+00
2.318369e+01	-6.284053e+00
2.331760e+01	-6.322653e+00
2.345228e+01	-6.361027e+00
2.358774e+01	-6.399744e+00
2.372398e+01	-6.438357e+00
2.386101e+01	-6.476858e+00
2.399883e+01	-6.516022e+00
2.413745e+01	-6.554881e+00
2.427686e+01	-6.593827e+00
2.441709e+01	-6.632799e+00
2.455812e+01	-6.671911e+00
2.469997e+01	-6.711442e+00
2.484263e+01	-6.750766e+00
2.498612e+01	-6.790423e+00
2.513044e+01	-6.829885e+00
2.527559e+01	-6.869481e+00
2.542158e+01	-6.909217e+00
2.556842e+01	-6.949439e+00
2.571610e+01	-6.989231e+00
2.586463e+01	-7.029262e+00
2.601403e+01	-7.069506e+00
2.616428e+01	-7.109750e+00
2.631541e+01	-7.150458e+00
2.646740e+01	-7.190240e+00
2.662028e+01	-7.231104e+00
2.677404e+01	-7.271986e+00
2.692868e+01	-7.312154e+00
2.708422e+01	-7.353104e+00
2.724066e+01	-7.393765e+00
2.739800e+01	-7.435154e+00
2.755625e+01	-7.476404e+00
2.771541e+01	-7.517074e+00
2.787550e+01	-7.558303e+00
2.803650e+01	-7.599522e+00
2.819844e+01	-7.640743e+00
2.836131e+01	-7.682153e+00
2.852513e+01	-7.723975e+00
2.868989e+01	-7.765923e+00
2.885560e+01	-7.807017e+00
2.902227e+01	-7.849015e+00
2.918990e+01	-7.891040e+00
2.935850e+01	-7.932781e+00
2.952807e+01	-7.975030e+00
2.969863e+01	-8.016853e+00
2.987016e+01	-8.059282e+00
3.004269e+01	-8.101174e+00
3.021622e+01	-8.143408e+00
3.039075e+01	-8.185937e+00
3.056628e+01	-8.228658e+00
3.074283e+01	-8.270895e+00
3.092040e+01	-8.313373e+00
3.109900e+01	-8.355948e+00
3.127862e+01	-8.399412e+00
3.145929e+01	-8.441849e+00
3.164099e+01	-8.485014e+00
3.182375e+01	-8.528362e+00
3.200756e+01	-8.570248e+00
3.219244e+01	-8.613934e+00
3.237838e+01	-8.657247e+00
3.256540e+01	-8.700123e+00
3.275349e+01	-8.743960e+00
3.294268e+01	-8.787227e+00
3.313295e+01	-8.830679e+00
3.332433e+01	-8.873779e+00
3.351681e+01	-8.917953e+00
3.371040e+01	-8.961626e+00
3.390511e+01	-9.004636e+00
3.410094e+01	-9.048534e+00
3.429791e+01	-9.092900e+00
3.449601e+01	-9.136330e+00
3.469526e+01	-9.180928e+00
3.489566e+01	-9.224538e+00
3.509721e+01	-9.268169e+00
3.529993e+01	-9.312894e+00
3.550382e+01	-9.356878e+00
3.570889e+01	-9.401256e+00
3.591515e+01	-9.445667e+00
3.612259e+01	-9.490127e+00
3.633123e+01	-9.534241e+00
3.654108e+01	-9.579315e+00
3.675214e+01	-9.623289e+00
3.696442e+01	-9.668135e+00
3.717792e+01	-9.712657e+00
3.739266e+01	-9.757298e+00
3.760864e+01	-9.801774e+00
3.782587e+01	-9.846660e+00
3.804435e+01	-9.891569e+00
3.826409e+01	-9.936331e+00
3.848510e+01	-9.981021e+00
3.870739e+01	-1.002643e+01
3.893096e+01	-1.007163e+01
3.915583e+01	-1.011690e+01
3.938199e+01	-1.016202e+01
3.960946e+01	-1.020719e+01
3.983824e+01	-1.025247e+01
4.006834e+01	-1.029772e+01
4.029978e+01	-1.034286e+01
4.053255e+01	-1.038871e+01
4.076666e+01	-1.043422e+01
4.100213e+01	-1.047949e+01
4.123896e+01	-1.052477e+01
4.147715e+01	-1.057010e+01
4.171672e+01	-1.061615e+01
4.195767e+01	-1.066205e+01
4.220002e+01	-1.070761e+01
4.244377e+01	-1.075323e+01
4.268892e+01	-1.079966e+01
4.293549e+01	-1.084562e+01
4.318348e+01	-1.089133e+01
4.343291e+01	-1.093748e+01
4.368377e+01	-1.098328e+01
4.393609e+01	-1.102940e+01
4.418986e+01	-1.107556e+01
4.444510e+01	-1.112172e+01
4.470182e+01	-1.116808e+01
4.496001e+01	-1.121366e+01
4.521970e+01	-1.126026e+01
4.548089e+01	-1.130722e+01
4.574358e+01	-1.135279e+01
4.600779e+01	-1.139914e+01
4.627353e+01	-1.144552e+01
4.654081e+01	-1.149225e+01
4.680963e+01	-1.153854e+01
4.708000e+01	-1.158554e+01
4.735193e+01	-1.163159e+01
4.762543e+01	-1.167760e+01
4.790051e+01	-1.172478e+01
4.817719e+01	-1.177174e+01
4.845545e+01	-1.181874e+01
4.873533e+01	-1.186548e+01
4.901682e+01	-1.191190e+01
4.929994e+01	-1.195898e+01
4.958470e+01	-1.200624e+01
4.987110e+01	-1.205231e+01
5.015915e+01	-1.209949e+01
5.044887e+01	-1.214665e+01
5.074026e+01	-1.219380e+01
5.103333e+01	-1.224088e+01
5.132810e+01	-1.228685e+01
5.162457e+01	-1.233497e+01
5.192275e+01	-1.238227e+01
5.222265e+01	-1.242921e+01
5.252429e+01	-1.247584e+01
5.282767e+01	-1.252338e+01
5.313280e+01	-1.257010e+01
5.343969e+01	-1.261773e+01
5.374836e+01	-1.266447e+01
5.405880e+01	-1.271200e+01
5.437105e+01	-1.276026e+01
5.468509e+01	-1.280728e+01
5.500095e+01	-1.285430e+01
5.531863e+01	-1.290236e+01
5.563815e+01	-1.295020e+01
5.595951e+01	-1.299750e+01
5.628273e+01	-1.304437e+01
5.660782e+01	-1.309183e+01
5.693479e+01	-1.314017e+01
5.726364e+01	-1.318721e+01
5.759439e+01	-1.323534e+01
5.792705e+01	-1.328247e+01
5.826164e+01	-1.332943e+01
5.859815e+01	-1.337803e+01
5.893662e+01	-1.342563e+01
5.927703e+01	-1.347314e+01
5.961941e+01	-1.352190e+01
5.996377e+01	-1.356944e+01
6.031012e+01	-1.361709e+01
6.065847e+01	-1.366534e+01
6.100883e+01	-1.371338e+01
6.136121e+01	-1.376121e+01
6.171563e+01	-1.380796e+01
6.207210e+01	-1.385700e+01
6.243063e+01	-1.390459e+01
6.279122e+01	-1.395275e+01
6.315390e+01	-1.400148e+01
6.351868e+01	-1.404809e+01
6.388556e+01	-1.409672e+01
6.425456e+01	-1.414565e+01
6.462569e+01	-1.419328e+01
6.499897e+01	-1.424106e+01
6.537440e+01	-1.428918e+01
6.575200e+01	-1.433688e+01
6.613178e+01	-1.438489e+01
6.651375e+01	-1.443505e+01
6.689793e+01	-1.448152e+01
6.728433e+01	-1.452915e+01
6.767297e+01	-1.457805e+01
6.806384e+01	-1.462597e+01
6.845698e+01	-1.467509e+01
6.885238e+01	-1.472400e+01
6.925007e+01	-1.477249e+01
6.965005e+01	-1.481946e+01
7.005235e+01	-1.486835e+01
7.045697e+01	-1.491831e+01
7.086393e+01	-1.496535e+01
7.127323e+01	-1.501401e+01
7.168490e+01	-1.506182e+01
7.209895e+01	-1.510986e+01
7.251539e+01	-1.515943e+01
7.293424e+01	-1.520795e+01
7.335551e+01	-1.525647e+01
7.377920e+01	-1.530467e+01
7.420535e+01	-1.535330e+01
7.463396e+01	-1.540262e+01
7.506504e+01	-1.545006e+01
7.549861e+01	-1.549903e+01
7.593469e+01	-1.554816e+01
7.637328e+01	-1.559685e+01
7.681441e+01	-1.564613e+01
7.725809e+01	-1.569399e+01
7.770433e+01	-1.574289e+01
7.815315e+01	-1.579099e+01
7.860456e+01	-1.584042e+01
7.905857e+01	-1.588824e+01
7.951521e+01	-1.593771e+01
7.997449e+01	-1.598634e+01
8.043642e+01	-1.603619e+01
8.090102e+01	-1.608408e+01
8.136830e+01	-1.613219e+01
8.183828e+01	-1.618145e+01
8.231097e+01	-1.622994e+01
8.278640e+01	-1.627885e+01
8.326457e+01	-1.632812e+01
8.374550e+01	-1.637547e+01
8.422921e+01	-1.642507e+01
8.471572e+01	-1.647404e+01
8.520503e+01	-1.652410e+01
8.569717e+01	-1.657214e+01
8.619215e+01	-1.662021e+01
8.669000e+01	-1.667087e+01
8.719071e+01	-1.671890e+01
8.769432e+01	-1.676831e+01
8.820084e+01	-1.681716e+01
8.871029e+01	-1.686632e+01
8.922267e+01	-1.691510e+01
8.973802e+01	-1.696353e+01
9.025634e+01	-1.701376e+01
9.077766e+01	-1.706120e+01
9.130199e+01	-1.711264e+01
9.182935e+01	-1.716096e+01
9.235975e+01	-1.720863e+01
9.289321e+01	-1.725751e+01
9.342976e+01	-1.730813e+01
9.396941e+01	-1.735797e+01
9.451217e+01	-1.740542e+01
9.505807e+01	-1.745575e+01
9.560712e+01	-1.750449e+01
9.615934e+01	-1.755371e+01
9.671476e+01	-1.760091e+01
9.727338e+01	-1.765251e+01
9.783522e+01	-1.770101e+01
9.840032e+01	-1.774967e+01
9.896867e+01	-1.779840e+01
9.954031e+01	-1.784818e+01
1.001153e+02	-1.789813e+01
1.006935e+02	-1.794743e+01
1.012751e+02	-1.799627e+01
1.018601e+02	-1.804561e+01
1.024484e+02	-1.809568e+01
1.030402e+02	-1.814379e+01
1.036353e+02	-1.819448e+01
1.042339e+02	-1.824238e+01
1.048360e+02	-1.829182e+01
1.054415e+02	-1.834021e+01
1.060505e+02	-1.838980e+01
1.066631e+02	-1.843935e+01
1.072791e+02	-1.848965e+01
1.078988e+02	-1.853862e+01
1.085220e+02	-1.858767e+01
1.091488e+02	-1.863639e+01
1.097793e+02	-1.868754e+01
1.104133e+02	-1.873589e+01
1.110511e+02	-1.878498e+01
1.116925e+02	-1.883381e+01
1.123376e+02	-1.888282e+01
1.129865e+02	-1.893389e+01
1.136391e+02	-1.898157e+01
1.142955e+02	-1.903188e+01
1.149556e+02	-1.908285e+01
1.156196e+02	-1.912909e+01
1.162874e+02	-1.918046e+01
1.169591e+02	-1.922933e+01
1.176347e+02	-1.928050e+01
1.183141e+02	-1.932840e+01
1.189975e+02	-1.937755e+01
1.196848e+02	-1.942692e+01
1.203761e+02	-1.947757e+01
1.210714e+02	-1.952723e+01
1.217707e+02	-1.957587e+01
1.224740e+02	-1.962522e+01
1.231814e+02	-1.967501e+01
1.238929e+02	-1.972401e+01
1.246085e+02	-1.977334e+01
1.253283e+02	-1.982310e+01
1.260522e+02	-1.987201e+01
1.267802e+02	-1.992161e+01
1.275125e+02	-1.997334e+01
1.282490e+02	-2.002231e+01
1.289898e+02	-2.007126e+01
1.297348e+02	-2.012197e+01
1.304842e+02	-2.016985e+01
1.312378e+02	-2.021859e+01
1.319959e+02	-2.026864e+01
1.327583e+02	-2.031832e+01
1.335251e+02	-2.036747e+01
1.342963e+02	-2.041661e+01
1.350720e+02	-2.046873e+01
1.358522e+02	-2.051667e+01
1.366368e+02	-2.056841e+01
1.374260e+02	-2.061687e+01
1.382198e+02	-2.066581e+01
1.390182e+02	-2.071566e+01
1.398211e+02	-2.076519e+01
1.406287e+02	-2.081515e+01
1.414410e+02	-2.086388e+01
1.422579e+02	-2.091356e+01
1.430796e+02	-2.096251e+01
1.439060e+02	-2.101091e+01
1.447372e+02	-2.106340e+01
1.455732e+02	-2.111577e+01
1.464141e+02	-2.116293e+01
1.472597e+02	-2.121112e+01
1.481103e+02	-2.126146e+01
1.489658e+02	-2.131288e+01
1.498262e+02	-2.135998e+01
1.506916e+02	-2.141289e+01
1.515620e+02	-2.146176e+01
1.524374e+02	-2.151025e+01
1.533179e+02	-2.156051e+01
1.542034e+02	-2.160908e+01
1.550941e+02	-2.165814e+01
1.559899e+02	-2.170953e+01
1.568909e+02	-2.175701e+01
1.577971e+02	-2.180760e+01
1.587085e+02	-2.185550e+01
1.596252e+02	-2.190668e+01
1.605472e+02	-2.195966e+01
1.614745e+02	-2.200648e+01
1.624072e+02	-2.205584e+01
1.633453e+02	-2.210631e+01
1.642887e+02	-2.215720e+01
1.652377e+02	-2.220603e+01
1.661921e+02	-2.225489e+01
1.671520e+02	-2.230411e+01
1.681175e+02	-2.235706e+01
1.690885e+02	-2.240402e+01
1.700651e+02	-2.245654e+01
1.710474e+02	-2.250384e+01
1.720354e+02	-2.255571e+01
1.730291e+02	-2.260611e+01
1.740285e+02	-2.265280e+01
1.750337e+02	-2.270327e+01
1.760446e+02	-2.275618e+01
1.770615e+02	-2.280405e+01
1.780842e+02	-2.285377e+01
1.791128e+02	-2.290206e+01
1.801473e+02	-2.295505e+01
1.811878e+02	-2.300139e+01
1.822344e+02	-2.305287e+01
1.832870e+02	-2.310272e+01
1.843456e+02	-2.315344e+01
1.854104e+02	-2.320245e+01
1.864813e+02	-2.325305e+01
1.875584e+02	-2.330324e+01
1.886418e+02	-2.335086e+01
1.897313e+02	-2.340091e+01
1.908272e+02	-2.344919e+01
1.919294e+02	-2.350052e+01
1.930380e+02	-2.355030e+01
1.941530e+02	-2.359936e+01
1.952744e+02	-2.364952e+01
1.964023e+02	-2.370006e+01
1.975367e+02	-2.375067e+01
1.986777e+02	-2.380042e+01
1.998252e+02	-2.385152e+01
2.009794e+02	-2.390165e+01
2.021403e+02	-2.394894e+01
2.033078e+02	-2.399930e+01
2.044821e+02	-2.404910e+01
2.056632e+02	-2.410022e+01
2.068511e+02	-2.414841e+01
2.080459e+02	-2.419967e+01
2.092475e+02	-2.424725e+01
2.104561e+02	-2.429880e+01
2.116717e+02	-2.434857e+01
2.128943e+02	-2.439829e+01
2.141240e+02	-2.444882e+01
2.153608e+02	-2.449915e+01
2.166047e+02	-2.454758e+01
2.178558e+02	-2.459818e+01
2.191141e+02	-2.464784e+01
2.203797e+02	-2.469711e+01
2.216526e+02	-2.474679e+01
2.229329e+02	-2.479461e+01
2.242205e+02	-2.484546e+01
2.255156e+02	-2.489615e+01
2.268182e+02	-2.494597e+01
2.281283e+02	-2.500023e+01
2.294459e+02	-2.504655e+01
2.307712e+02	-2.510060e+01
2.321041e+02	-2.514665e+01
2.334447e+02	-2.519317e+01
2.347931e+02	-2.524531e+01
2.361493e+02	-2.529812e+01
2.375133e+02	-2.534606e+01
2.388851e+02	-2.539722e+01
2.402649e+02	-2.544752e+01
2.416527e+02	-2.549641e+01
2.430484e+02	-2.554599e+01
2.444523e+02	-2.559620e+01
2.458642e+02	-2.564837e+01
2.472843e+02	-2.569454e+01
2.487126e+02	-2.574682e+01
2.501492e+02	-2.579500e+01
2.515940e+02	-2.584588e+01
2.530472e+02	-2.589678e+01
2.545088e+02	-2.594582e+01
2.559789e+02	-2.599492e+01
2.574574e+02	-2.604645e+01
2.589444e+02	-2.609467e+01
2.604401e+02	-2.614738e+01
2.619444e+02	-2.619196e+01
2.634574e+02	-2.624543e+01
2.649791e+02	-2.629638e+01
2.665096e+02	-2.634602e+01
2.680489e+02	-2.639709e+01
2.695972e+02	-2.644603e+01
2.711544e+02	-2.649511e+01
2.727205e+02	-2.654574e+01
2.742958e+02	-2.659721e+01
2.758801e+02	-2.664705e+01
2.774736e+02	-2.669608e+01
2.790762e+02	-2.674531e+01
2.806882e+02	-2.679280e+01
2.823094e+02	-2.684618e+01
2.839400e+02	-2.689887e+01
2.855800e+02	-2.694329e+01
2.872295e+02	-2.699877e+01
2.888886e+02	-2.704496e+01
2.905572e+02	-2.709648e+01
2.922354e+02	-2.714849e+01
2.939234e+02	-2.719755e+01
2.956211e+02	-2.724523e+01
2.973286e+02	-2.729256e+01
2.990459e+02	-2.734409e+01
3.007732e+02	-2.739403e+01
3.025104e+02	-2.744591e+01
3.042577e+02	-2.749695e+01
3.060151e+02	-2.754566e+01
3.077826e+02	-2.759814e+01
3.095604e+02	-2.764619e+01
3.113484e+02	-2.769588e+01
3.131467e+02	-2.774071e+01
3.149554e+02	-2.779713e+01
3.167746e+02	-2.784275e+01
3.186043e+02	-2.789952e+01
3.204445e+02	-2.794693e+01
3.222954e+02	-2.799503e+01
3.241570e+02	-2.804513e+01
3.260293e+02	-2.809583e+01
3.279124e+02	-2.814512e+01
3.298064e+02	-2.819179e+01
3.317114e+02	-2.824639e+01
3.336273e+02	-2.829125e+01
3.355544e+02	-2.834518e+01
3.374925e+02	-2.839566e+01
3.394418e+02	-2.844527e+01
3.414024e+02	-2.850025e+01
3.433744e+02	-2.854748e+01
3.453577e+02	-2.859342e+01
3.473525e+02	-2.864843e+01
3.493588e+02	-2.869706e+01
3.513766e+02	-2.874632e+01
3.534062e+02	-2.879648e+01
3.554474e+02	-2.884486e+01
3.575005e+02	-2.889690e+01
3.595654e+02	-2.894289e+01
3.616422e+02	-2.899532e+01
3.637311e+02	-2.904773e+01
3.658320e+02	-2.909487e+01
3.679450e+02	-2.914539e+01
3.700702e+02	-2.919486e+01
3.722077e+02	-2.924526e+01
3.743576e+02	-2.929345e+01
3.765199e+02	-2.934668e+01
3.786946e+02	-2.939486e+01
3.808820e+02	-2.944643e+01
3.830819e+02	-2.949501e+01
3.852946e+02	-2.954833e+01
3.875200e+02	-2.959742e+01
3.897583e+02	-2.964677e+01
3.920096e+02	-2.969445e+01
3.942738e+02	-2.974525e+01
3.965511e+02	-2.979904e+01
3.988416e+02	-2.985043e+01
4.011452e+02	-2.989827e+01
4.034622e+02	-2.994124e+01
4.057926e+02	-2.999556e+01
4.081365e+02	-3.004787e+01
4.104938e+02	-3.010416e+01
4.128648e+02	-3.014158e+01
4.152495e+02	-3.020126e+01
4.176480e+02	-3.024692e+01
4.200603e+02	-3.029548e+01
4.224866e+02	-3.034901e+01
4.249268e+02	-3.039616e+01
4.273812e+02	-3.045233e+01
4.298497e+02	-3.050150e+01
4.323325e+02	-3.055138e+01
4.348297e+02	-3.060242e+01
4.373412e+02	-3.065011e+01
4.398673e+02	-3.069878e+01
4.424079e+02	-3.075445e+01
4.449633e+02	-3.079649e+01
4.475334e+02	-3.085466e+01
4.501183e+02	-3.090185e+01
4.527182e+02	-3.095004e+01
4.553330e+02	-3.099993e+01
4.579630e+02	-3.104884e+01
4.606082e+02	-3.109923e+01
4.632687e+02	-3.114973e+01
4.659445e+02	-3.120238e+01
4.686358e+02	-3.125292e+01
4.713426e+02	-3.130315e+01
4.740650e+02	-3.134945e+01
4.768032e+02	-3.140025e+01
4.795572e+02	-3.145863e+01
4.823271e+02	-3.150413e+01
4.851130e+02	-3.155045e+01
4.879150e+02	-3.160501e+01
4.907332e+02	-3.165362e+01
4.935676e+02	-3.170202e+01
4.964185e+02	-3.174929e+01
4.992858e+02	-3.180458e+01
5.021696e+02	-3.185838e+01
5.050701e+02	-3.190077e+01
5.079874e+02	-3.195328e+01
5.109215e+02	-3.200260e+01
5.138726e+02	-3.205927e+01
5.168407e+02	-3.210043e+01
5.198259e+02	-3.215744e+01
5.228284e+02	-3.221159e+01
5.258482e+02	-3.224991e+01
5.288855e+02	-3.231000e+01
5.319403e+02	-3.235575e+01
5.350128e+02	-3.240274e+01
5.381030e+02	-3.245269e+01
5.412111e+02	-3.250601e+01
5.443371e+02	-3.255208e+01
5.474812e+02	-3.260534e+01
5.506434e+02	-3.265733e+01
5.538239e+02	-3.270794e+01
5.570228e+02	-3.276014e+01
5.602401e+02	-3.280460e+01
5.634760e+02	-3.286431e+01
5.667306e+02	-3.290704e+01
5.700040e+02	-3.295786e+01
5.732964e+02	-3.301212e+01
5.766077e+02	-3.306051e+01
5.799382e+02	-3.311458e+01
5.832879e+02	-3.316087e+01
5.866569e+02	-3.320693e+01
5.900454e+02	-3.325752e+01
5.934535e+02	-3.331073e+01
5.968813e+02	-3.335624e+01
6.003288e+02	-3.340928e+01
6.037963e+02	-3.346149e+01
6.072838e+02	-3.350673e+01
6.107914e+02	-3.357131e+01
6.143194e+02	-3.361007e+01
6.178676e+02	-3.366189e+01
6.214364e+02	-3.371627e+01
6.250258e+02	-3.375412e+01
6.286359e+02	-3.381600e+01
6.322669e+02	-3.386743e+01
6.359189e+02	-3.391460e+01
6.395919e+02	-3.396447e+01
6.432862e+02	-3.401805e+01
6.470017e+02	-3.407294e+01
6.507388e+02	-3.412073e+01
6.544974e+02	-3.417092e+01
6.582778e+02	-3.422383e+01
6.620800e+02	-3.427264e+01
6.659041e+02	-3.431925e+01
6.697504e+02	-3.435865e+01
6.736188e+02	-3.440813e+01
6.775096e+02	-3.446769e+01
6.814229e+02	-3.452074e+01
6.853587e+02	-3.457203e+01
6.893173e+02	-3.463016e+01
6.932988e+02	-3.467253e+01
6.973033e+02	-3.471028e+01
7.013309e+02	-3.477865e+01
