Frequency(Hz)	Magnitude(dB)
1.000000e+01	-1.565411e-05
1.005776e+01	-1.583547e-05
1.011585e+01	-1.601892e-05
1.017428e+01	-1.620451e-05
1.023305e+01	-1.639224e-05
1.029215e+01	-1.658215e-05
1.035160e+01	-1.677426e-05
1.041139e+01	-1.696859e-05
1.047153e+01	-1.716518e-05
1.053201e+01	-1.736404e-05
1.059284e+01	-1.756521e-05
1.065403e+01	-1.776870e-05
1.071556e+01	-1.797456e-05
1.077746e+01	-1.818280e-05
1.083971e+01	-1.839345e-05
1.090232e+01	-1.860655e-05
1.096529e+01	-1.882211e-05
1.102862e+01	-1.904017e-05
1.109232e+01	-1.926075e-05
1.115639e+01	-1.948389e-05
1.122083e+01	-1.970962e-05
1.128564e+01	-1.993796e-05
1.135083e+01	-2.016894e-05
1.141639e+01	-2.040261e-05
1.148233e+01	-2.063898e-05
1.154865e+01	-2.087808e-05
1.161536e+01	-2.111996e-05
1.168245e+01	-2.136464e-05
1.174992e+01	-2.161216e-05
1.181779e+01	-2.186254e-05
1.188605e+01	-2.211582e-05
1.195470e+01	-2.237204e-05
1.202375e+01	-2.263122e-05
1.209320e+01	-2.289341e-05
1.216305e+01	-2.315864e-05
1.223330e+01	-2.342694e-05
1.230396e+01	-2.369834e-05
1.237503e+01	-2.397290e-05
1.244651e+01	-2.425063e-05
1.251840e+01	-2.453158e-05
1.259070e+01	-2.481578e-05
1.266343e+01	-2.510328e-05
1.273657e+01	-2.539411e-05
1.281014e+01	-2.568830e-05
1.288413e+01	-2.598591e-05
1.295855e+01	-2.628696e-05
1.303339e+01	-2.659150e-05
1.310867e+01	-2.689957e-05
1.318439e+01	-2.721121e-05
1.326054e+01	-2.752646e-05
1.333713e+01	-2.784536e-05
1.341417e+01	-2.816795e-05
1.349165e+01	-2.849429e-05
1.356958e+01	-2.882440e-05
1.364795e+01	-2.915834e-05
1.372678e+01	-2.949614e-05
1.380607e+01	-2.983786e-05
1.388581e+01	-3.018354e-05
1.396602e+01	-3.053323e-05
1.404668e+01	-3.088696e-05
1.412782e+01	-3.124479e-05
1.420942e+01	-3.160677e-05
1.429149e+01	-3.197294e-05
1.437404e+01	-3.234336e-05
1.445706e+01	-3.271806e-05
1.454057e+01	-3.309711e-05
1.462455e+01	-3.348055e-05
1.470902e+01	-3.386843e-05
1.479398e+01	-3.426080e-05
1.487943e+01	-3.465772e-05
1.496537e+01	-3.505924e-05
1.505181e+01	-3.546541e-05
1.513875e+01	-3.587628e-05
1.522619e+01	-3.629192e-05
1.531414e+01	-3.671237e-05
1.540259e+01	-3.713769e-05
1.549156e+01	-3.756794e-05
1.558103e+01	-3.800317e-05
1.567103e+01	-3.844345e-05
1.576155e+01	-3.888882e-05
1.585258e+01	-3.933936e-05
1.594415e+01	-3.979511e-05
1.603624e+01	-4.025615e-05
1.612886e+01	-4.072253e-05
1.622202e+01	-4.119431e-05
1.631572e+01	-4.167155e-05
1.640996e+01	-4.215433e-05
1.650474e+01	-4.264269e-05
1.660008e+01	-4.313672e-05
1.669596e+01	-4.363647e-05
1.679239e+01	-4.414200e-05
1.688938e+01	-4.465340e-05
1.698694e+01	-4.517072e-05
1.708505e+01	-4.569403e-05
1.718373e+01	-4.622341e-05
1.728299e+01	-4.675891e-05
1.738281e+01	-4.730063e-05
1.748322e+01	-4.784861e-05
1.758420e+01	-4.840295e-05
1.768576e+01	-4.896371e-05
1.778792e+01	-4.953096e-05
1.789066e+01	-5.010479e-05
1.799399e+01	-5.068527e-05
1.809793e+01	-5.127247e-05
1.820246e+01	-5.186647e-05
1.830760e+01	-5.246735e-05
1.841334e+01	-5.307520e-05
1.851969e+01	-5.369008e-05
1.862666e+01	-5.431210e-05
1.873425e+01	-5.494131e-05
1.884246e+01	-5.557782e-05
1.895129e+01	-5.622170e-05
1.906075e+01	-5.687304e-05
1.917085e+01	-5.753192e-05
1.928158e+01	-5.819844e-05
1.939295e+01	-5.887268e-05
1.950496e+01	-5.955474e-05
1.961762e+01	-6.024469e-05
1.973093e+01	-6.094264e-05
1.984490e+01	-6.164867e-05
1.995952e+01	-6.236288e-05
2.007480e+01	-6.308537e-05
2.019076e+01	-6.381622e-05
2.030738e+01	-6.455555e-05
2.042467e+01	-6.530343e-05
2.054264e+01	-6.605999e-05
2.066130e+01	-6.682531e-05
2.078064e+01	-6.759949e-05
2.090066e+01	-6.838264e-05
2.102139e+01	-6.917487e-05
2.114280e+01	-6.997627e-05
2.126492e+01	-7.078696e-05
2.138775e+01	-7.160704e-05
2.151128e+01	-7.243662e-05
2.163553e+01	-7.327581e-05
2.176050e+01	-7.412472e-05
2.188619e+01	-7.498347e-05
2.201260e+01	-7.585217e-05
2.213974e+01	-7.673093e-05
2.226762e+01	-7.761987e-05
2.239624e+01	-7.851911e-05
2.252560e+01	-7.942877e-05
2.265571e+01	-8.034897e-05
2.278656e+01	-8.127982e-05
2.291818e+01	-8.222146e-05
2.305055e+01	-8.317401e-05
2.318369e+01	-8.413760e-05
2.331760e+01	-8.511235e-05
2.345228e+01	-8.609839e-05
2.358774e+01	-8.709585e-05
2.372398e+01	-8.810487e-05
2.386101e+01	-8.912558e-05
2.399883e+01	-9.015811e-05
2.413745e+01	-9.120261e-05
2.427686e+01	-9.225920e-05
2.441709e+01	-9.332804e-05
2.455812e+01	-9.440926e-05
2.469997e+01	-9.550301e-05
2.484263e+01	-9.660942e-05
2.498612e+01	-9.772866e-05
2.513044e+01	-9.886086e-05
2.527559e+01	-1.000062e-04
2.542158e+01	-1.011648e-04
2.556842e+01	-1.023368e-04
2.571610e+01	-1.035224e-04
2.586463e+01	-1.047217e-04
2.601403e+01	-1.059349e-04
2.616428e+01	-1.071622e-04
2.631541e+01	-1.084037e-04
2.646740e+01	-1.096595e-04
2.662028e+01	-1.109299e-04
2.677404e+01	-1.122151e-04
2.692868e+01	-1.135151e-04
2.708422e+01	-1.148302e-04
2.724066e+01	-1.161605e-04
2.739800e+01	-1.175062e-04
2.755625e+01	-1.188676e-04
2.771541e+01	-1.202447e-04
2.787550e+01	-1.216377e-04
2.803650e+01	-1.230469e-04
2.819844e+01	-1.244724e-04
2.836131e+01	-1.259144e-04
2.852513e+01	-1.273732e-04
2.868989e+01	-1.288488e-04
2.885560e+01	-1.303415e-04
2.902227e+01	-1.318516e-04
2.918990e+01	-1.333791e-04
2.935850e+01	-1.349243e-04
2.952807e+01	-1.364874e-04
2.969863e+01	-1.380686e-04
2.987016e+01	-1.396681e-04
3.004269e+01	-1.412862e-04
3.021622e+01	-1.429230e-04
3.039075e+01	-1.445788e-04
3.056628e+01	-1.462538e-04
3.074283e+01	-1.479481e-04
3.092040e+01	-1.496621e-04
3.109900e+01	-1.513960e-04
3.127862e+01	-1.531499e-04
3.145929e+01	-1.549241e-04
3.164099e+01	-1.567190e-04
3.182375e+01	-1.585346e-04
3.200756e+01	-1.603712e-04
3.219244e+01	-1.622291e-04
3.237838e+01	-1.641085e-04
3.256540e+01	-1.660097e-04
3.275349e+01	-1.679330e-04
3.294268e+01	-1.698785e-04
3.313295e+01	-1.718465e-04
3.332433e+01	-1.738374e-04
3.351681e+01	-1.758513e-04
3.371040e+01	-1.778885e-04
3.390511e+01	-1.799494e-04
3.410094e+01	-1.820341e-04
3.429791e+01	-1.841430e-04
3.449601e+01	-1.862763e-04
3.469526e+01	-1.884343e-04
3.489566e+01	-1.906173e-04
3.509721e+01	-1.928256e-04
3.529993e+01	-1.950595e-04
3.550382e+01	-1.973193e-04
3.570889e+01	-1.996052e-04
3.591515e+01	-2.019176e-04
3.612259e+01	-2.042569e-04
3.633123e+01	-2.066232e-04
3.654108e+01	-2.090169e-04
3.675214e+01	-2.114384e-04
3.696442e+01	-2.138879e-04
3.717792e+01	-2.163658e-04
3.739266e+01	-2.188724e-04
3.760864e+01	-2.214080e-04
3.782587e+01	-2.239730e-04
3.804435e+01	-2.265677e-04
3.826409e+01	-2.291925e-04
3.848510e+01	-2.318477e-04
3.870739e+01	-2.345336e-04
3.893096e+01	-2.372507e-04
3.915583e+01	-2.399992e-04
3.938199e+01	-2.427796e-04
3.960946e+01	-2.455922e-04
3.983824e+01	-2.484374e-04
4.006834e+01	-2.513155e-04
4.029978e+01	-2.542270e-04
4.053255e+01	-2.571722e-04
4.076666e+01	-2.601515e-04
4.100213e+01	-2.631654e-04
4.123896e+01	-2.662141e-04
4.147715e+01	-2.692982e-04
4.171672e+01	-2.724180e-04
4.195767e+01	-2.755739e-04
4.220002e+01	-2.787664e-04
4.244377e+01	-2.819959e-04
4.268892e+01	-2.852628e-04
4.293549e+01	-2.885675e-04
4.318348e+01	-2.919105e-04
4.343291e+01	-2.952923e-04
4.368377e+01	-2.987132e-04
4.393609e+01	-3.021738e-04
4.418986e+01	-3.056744e-04
4.444510e+01	-3.092156e-04
4.470182e+01	-3.127978e-04
4.496001e+01	-3.164216e-04
4.521970e+01	-3.200873e-04
4.548089e+01	-3.237954e-04
4.574358e+01	-3.275465e-04
4.600779e+01	-3.313411e-04
4.627353e+01	-3.351796e-04
4.654081e+01	-3.390626e-04
4.680963e+01	-3.429906e-04
4.708000e+01	-3.469641e-04
4.735193e+01	-3.509836e-04
4.762543e+01	-3.550497e-04
4.790051e+01	-3.591629e-04
4.817719e+01	-3.633237e-04
4.845545e+01	-3.675327e-04
4.873533e+01	-3.717905e-04
4.901682e+01	-3.760976e-04
4.929994e+01	-3.804546e-04
4.958470e+01	-3.848621e-04
4.987110e+01	-3.893206e-04
5.015915e+01	-3.938308e-04
5.044887e+01	-3.983932e-04
5.074026e+01	-4.030085e-04
5.103333e+01	-4.076773e-04
5.132810e+01	-4.124001e-04
5.162457e+01	-4.171776e-04
5.192275e+01	-4.220105e-04
5.222265e+01	-4.268994e-04
5.252429e+01	-4.318449e-04
5.282767e+01	-4.368477e-04
5.313280e+01	-4.419084e-04
5.343969e+01	-4.470278e-04
5.374836e+01	-4.522065e-04
5.405880e+01	-4.574451e-04
5.437105e+01	-4.627445e-04
5.468509e+01	-4.681052e-04
5.500095e+01	-4.735280e-04
5.531863e+01	-4.790137e-04
5.563815e+01	-4.845629e-04
5.595951e+01	-4.901764e-04
5.628273e+01	-4.958549e-04
5.660782e+01	-5.015991e-04
5.693479e+01	-5.074100e-04
5.726364e+01	-5.132881e-04
5.759439e+01	-5.192343e-04
5.792705e+01	-5.252495e-04
5.826164e+01	-5.313342e-04
5.859815e+01	-5.374895e-04
5.893662e+01	-5.437161e-04
5.927703e+01	-5.500148e-04
5.961941e+01	-5.563865e-04
5.996377e+01	-5.628319e-04
6.031012e+01	-5.693521e-04
6.065847e+01	-5.759477e-04
6.100883e+01	-5.826198e-04
6.136121e+01	-5.893691e-04
6.171563e+01	-5.961967e-04
6.207210e+01	-6.031033e-04
6.243063e+01	-6.100899e-04
6.279122e+01	-6.171575e-04
6.315390e+01	-6.243069e-04
6.351868e+01	-6.315391e-04
6.388556e+01	-6.388552e-04
6.425456e+01	-6.462559e-04
6.462569e+01	-6.537424e-04
6.499897e+01	-6.613156e-04
6.537440e+01	-6.689766e-04
6.575200e+01	-6.767262e-04
6.613178e+01	-6.845657e-04
6.651375e+01	-6.924959e-04
6.689793e+01	-7.005180e-04
6.728433e+01	-7.086331e-04
6.767297e+01	-7.168421e-04
6.806384e+01	-7.251462e-04
6.845698e+01	-7.335465e-04
6.885238e+01	-7.420441e-04
6.925007e+01	-7.506402e-04
6.965005e+01	-7.593358e-04
7.005235e+01	-7.681321e-04
7.045697e+01	-7.770303e-04
7.086393e+01	-7.860316e-04
7.127323e+01	-7.951372e-04
7.168490e+01	-8.043482e-04
7.209895e+01	-8.136659e-04
7.251539e+01	-8.230916e-04
7.293424e+01	-8.326264e-04
7.335551e+01	-8.422717e-04
7.377920e+01	-8.520287e-04
7.420535e+01	-8.618987e-04
7.463396e+01	-8.718830e-04
7.506504e+01	-8.819830e-04
7.549861e+01	-8.922000e-04
7.593469e+01	-9.025353e-04
7.637328e+01	-9.129903e-04
7.681441e+01	-9.235664e-04
7.725809e+01	-9.342650e-04
7.770433e+01	-9.450876e-04
7.815315e+01	-9.560354e-04
7.860456e+01	-9.671101e-04
7.905857e+01	-9.783131e-04
7.951521e+01	-9.896458e-04
7.997449e+01	-1.001110e-03
8.043642e+01	-1.012707e-03
8.090102e+01	-1.024438e-03
8.136830e+01	-1.036305e-03
8.183828e+01	-1.048309e-03
8.231097e+01	-1.060453e-03
8.278640e+01	-1.072737e-03
8.326457e+01	-1.085163e-03
8.374550e+01	-1.097733e-03
8.422921e+01	-1.110449e-03
8.471572e+01	-1.123313e-03
8.520503e+01	-1.136325e-03
8.569717e+01	-1.149488e-03
8.619215e+01	-1.162803e-03
8.669000e+01	-1.176272e-03
8.719071e+01	-1.189898e-03
8.769432e+01	-1.203681e-03
8.820084e+01	-1.217624e-03
8.871029e+01	-1.231729e-03
8.922267e+01	-1.245997e-03
8.973802e+01	-1.260430e-03
9.025634e+01	-1.275030e-03
9.077766e+01	-1.289800e-03
9.130199e+01	-1.304740e-03
9.182935e+01	-1.319853e-03
9.235975e+01	-1.335142e-03
9.289321e+01	-1.350608e-03
9.342976e+01	-1.366252e-03
9.396941e+01	-1.382078e-03
9.451217e+01	-1.398087e-03
9.505807e+01	-1.414282e-03
9.560712e+01	-1.430664e-03
9.615934e+01	-1.447236e-03
9.671476e+01	-1.464000e-03
9.727338e+01	-1.480958e-03
9.783522e+01	-1.498112e-03
9.840032e+01	-1.515465e-03
9.896867e+01	-1.533019e-03
9.954031e+01	-1.550776e-03
1.001153e+02	-1.568739e-03
1.006935e+02	-1.586910e-03
1.012751e+02	-1.605291e-03
1.018601e+02	-1.623886e-03
1.024484e+02	-1.642695e-03
1.030402e+02	-1.661723e-03
1.036353e+02	-1.680970e-03
1.042339e+02	-1.700441e-03
1.048360e+02	-1.720137e-03
1.054415e+02	-1.740062e-03
1.060505e+02	-1.760217e-03
1.066631e+02	-1.780605e-03
1.072791e+02	-1.801229e-03
1.078988e+02	-1.822093e-03
1.085220e+02	-1.843198e-03
1.091488e+02	-1.864547e-03
1.097793e+02	-1.886144e-03
1.104133e+02	-1.907990e-03
1.110511e+02	-1.930090e-03
1.116925e+02	-1.952446e-03
1.123376e+02	-1.975060e-03
1.129865e+02	-1.997936e-03
1.136391e+02	-2.021078e-03
1.142955e+02	-2.044487e-03
1.149556e+02	-2.068167e-03
1.156196e+02	-2.092122e-03
1.162874e+02	-2.116353e-03
1.169591e+02	-2.140866e-03
1.176347e+02	-2.165662e-03
1.183141e+02	-2.190746e-03
1.189975e+02	-2.216119e-03
1.196848e+02	-2.241787e-03
1.203761e+02	-2.267752e-03
1.210714e+02	-2.294018e-03
1.217707e+02	-2.320587e-03
1.224740e+02	-2.347465e-03
1.231814e+02	-2.374653e-03
1.238929e+02	-2.402157e-03
1.246085e+02	-2.429978e-03
1.253283e+02	-2.458122e-03
1.260522e+02	-2.486592e-03
1.267802e+02	-2.515392e-03
1.275125e+02	-2.544525e-03
1.282490e+02	-2.573995e-03
1.289898e+02	-2.603806e-03
1.297348e+02	-2.633963e-03
1.304842e+02	-2.664469e-03
1.312378e+02	-2.695328e-03
1.319959e+02	-2.726544e-03
1.327583e+02	-2.758122e-03
1.335251e+02	-2.790065e-03
1.342963e+02	-2.822378e-03
1.350720e+02	-2.855065e-03
1.358522e+02	-2.888131e-03
1.366368e+02	-2.921579e-03
1.374260e+02	-2.955415e-03
1.382198e+02	-2.989643e-03
1.390182e+02	-3.024266e-03
1.398211e+02	-3.059291e-03
1.406287e+02	-3.094721e-03
1.414410e+02	-3.130561e-03
1.422579e+02	-3.166816e-03
1.430796e+02	-3.203491e-03
1.439060e+02	-3.240591e-03
1.447372e+02	-3.278119e-03
1.455732e+02	-3.316083e-03
1.464141e+02	-3.354486e-03
1.472597e+02	-3.393333e-03
1.481103e+02	-3.432630e-03
1.489658e+02	-3.472382e-03
1.498262e+02	-3.512594e-03
1.506916e+02	-3.553272e-03
1.515620e+02	-3.594420e-03
1.524374e+02	-3.636045e-03
1.533179e+02	-3.678152e-03
1.542034e+02	-3.720746e-03
1.550941e+02	-3.763833e-03
1.559899e+02	-3.807419e-03
1.568909e+02	-3.851509e-03
1.577971e+02	-3.896110e-03
1.587085e+02	-3.941227e-03
1.596252e+02	-3.986866e-03
1.605472e+02	-4.033033e-03
1.614745e+02	-4.079735e-03
1.624072e+02	-4.126977e-03
1.633453e+02	-4.174766e-03
1.642887e+02	-4.223109e-03
1.652377e+02	-4.272010e-03
1.661921e+02	-4.321478e-03
1.671520e+02	-4.371518e-03
1.681175e+02	-4.422137e-03
1.690885e+02	-4.473343e-03
1.700651e+02	-4.525140e-03
1.710474e+02	-4.577538e-03
1.720354e+02	-4.630541e-03
1.730291e+02	-4.684158e-03
1.740285e+02	-4.738396e-03
1.750337e+02	-4.793261e-03
1.760446e+02	-4.848761e-03
1.770615e+02	-4.904903e-03
1.780842e+02	-4.961695e-03
1.791128e+02	-5.019144e-03
1.801473e+02	-5.077258e-03
1.811878e+02	-5.136045e-03
1.822344e+02	-5.195512e-03
1.832870e+02	-5.255666e-03
1.843456e+02	-5.316517e-03
1.854104e+02	-5.378072e-03
1.864813e+02	-5.440340e-03
1.875584e+02	-5.503327e-03
1.886418e+02	-5.567044e-03
1.897313e+02	-5.631497e-03
1.908272e+02	-5.696697e-03
1.919294e+02	-5.762651e-03
1.930380e+02	-5.829367e-03
1.941530e+02	-5.896856e-03
1.952744e+02	-5.965126e-03
1.964023e+02	-6.034185e-03
1.975367e+02	-6.104043e-03
1.986777e+02	-6.174710e-03
1.998252e+02	-6.246194e-03
2.009794e+02	-6.318505e-03
2.021403e+02	-6.391652e-03
2.033078e+02	-6.465646e-03
2.044821e+02	-6.540496e-03
2.056632e+02	-6.616211e-03
2.068511e+02	-6.692802e-03
2.080459e+02	-6.770279e-03
2.092475e+02	-6.848653e-03
2.104561e+02	-6.927933e-03
2.116717e+02	-7.008130e-03
2.128943e+02	-7.089254e-03
2.141240e+02	-7.171317e-03
2.153608e+02	-7.254329e-03
2.166047e+02	-7.338301e-03
2.178558e+02	-7.423244e-03
2.191141e+02	-7.509170e-03
2.203797e+02	-7.596089e-03
2.216526e+02	-7.684013e-03
2.229329e+02	-7.772955e-03
2.242205e+02	-7.862925e-03
2.255156e+02	-7.953935e-03
2.268182e+02	-8.045998e-03
2.281283e+02	-8.139125e-03
2.294459e+02	-8.233329e-03
2.307712e+02	-8.328622e-03
2.321041e+02	-8.425018e-03
2.334447e+02	-8.522528e-03
2.347931e+02	-8.621165e-03
2.361493e+02	-8.720943e-03
2.375133e+02	-8.821874e-03
2.388851e+02	-8.923972e-03
2.402649e+02	-9.027251e-03
2.416527e+02	-9.131724e-03
2.430484e+02	-9.237404e-03
2.444523e+02	-9.344306e-03
2.458642e+02	-9.452444e-03
2.472843e+02	-9.561832e-03
2.487126e+02	-9.672485e-03
2.501492e+02	-9.784416e-03
2.515940e+02	-9.897641e-03
2.530472e+02	-1.001218e-02
2.545088e+02	-1.012803e-02
2.559789e+02	-1.024523e-02
2.574574e+02	-1.036378e-02
2.589444e+02	-1.048370e-02
2.604401e+02	-1.060501e-02
2.619444e+02	-1.072772e-02
2.634574e+02	-1.085185e-02
2.649791e+02	-1.097741e-02
2.665096e+02	-1.110442e-02
2.680489e+02	-1.123290e-02
2.695972e+02	-1.136287e-02
2.711544e+02	-1.149433e-02
2.727205e+02	-1.162732e-02
2.742958e+02	-1.176184e-02
2.758801e+02	-1.189792e-02
2.774736e+02	-1.203557e-02
2.790762e+02	-1.217481e-02
2.806882e+02	-1.231565e-02
2.823094e+02	-1.245813e-02
2.839400e+02	-1.260225e-02
2.855800e+02	-1.274803e-02
2.872295e+02	-1.289550e-02
2.888886e+02	-1.304468e-02
2.905572e+02	-1.319557e-02
2.922354e+02	-1.334821e-02
2.939234e+02	-1.350261e-02
2.956211e+02	-1.365880e-02
2.973286e+02	-1.381678e-02
2.990459e+02	-1.397660e-02
3.007732e+02	-1.413825e-02
3.025104e+02	-1.430178e-02
3.042577e+02	-1.446719e-02
3.060151e+02	-1.463451e-02
3.077826e+02	-1.480377e-02
3.095604e+02	-1.497498e-02
3.113484e+02	-1.514816e-02
3.131467e+02	-1.532335e-02
3.149554e+02	-1.550055e-02
3.167746e+02	-1.567981e-02
3.186043e+02	-1.586113e-02
3.204445e+02	-1.604454e-02
3.222954e+02	-1.623007e-02
3.241570e+02	-1.641775e-02
3.260293e+02	-1.660758e-02
3.279124e+02	-1.679961e-02
3.298064e+02	-1.699386e-02
3.317114e+02	-1.719035e-02
3.336273e+02	-1.738910e-02
3.355544e+02	-1.759015e-02
3.374925e+02	-1.779351e-02
3.394418e+02	-1.799923e-02
3.414024e+02	-1.820732e-02
3.433744e+02	-1.841780e-02
3.453577e+02	-1.863072e-02
3.473525e+02	-1.884609e-02
3.493588e+02	-1.906394e-02
3.513766e+02	-1.928431e-02
3.534062e+02	-1.950722e-02
3.554474e+02	-1.973270e-02
3.575005e+02	-1.996078e-02
3.595654e+02	-2.019150e-02
3.616422e+02	-2.042487e-02
3.637311e+02	-2.066093e-02
3.658320e+02	-2.089971e-02
3.679450e+02	-2.114125e-02
3.700702e+02	-2.138557e-02
3.722077e+02	-2.163271e-02
3.743576e+02	-2.188270e-02
3.765199e+02	-2.213556e-02
3.786946e+02	-2.239135e-02
3.808820e+02	-2.265008e-02
3.830819e+02	-2.291179e-02
3.852946e+02	-2.317652e-02
3.875200e+02	-2.344430e-02
3.897583e+02	-2.371516e-02
3.920096e+02	-2.398914e-02
3.942738e+02	-2.426629e-02
3.965511e+02	-2.454662e-02
3.988416e+02	-2.483018e-02
4.011452e+02	-2.511701e-02
4.034622e+02	-2.540714e-02
4.057926e+02	-2.570062e-02
4.081365e+02	-2.599747e-02
4.104938e+02	-2.629774e-02
4.128648e+02	-2.660147e-02
4.152495e+02	-2.690870e-02
4.176480e+02	-2.721946e-02
4.200603e+02	-2.753380e-02
4.224866e+02	-2.785176e-02
4.249268e+02	-2.817338e-02
4.273812e+02	-2.849870e-02
4.298497e+02	-2.882777e-02
4.323325e+02	-2.916062e-02
4.348297e+02	-2.949730e-02
4.373412e+02	-2.983786e-02
4.398673e+02	-3.018233e-02
4.424079e+02	-3.053077e-02
4.449633e+02	-3.088321e-02
4.475334e+02	-3.123971e-02
4.501183e+02	-3.160031e-02
4.527182e+02	-3.196506e-02
4.553330e+02	-3.233400e-02
4.579630e+02	-3.270718e-02
4.606082e+02	-3.308465e-02
4.632687e+02	-3.346647e-02
4.659445e+02	-3.385267e-02
4.686358e+02	-3.424331e-02
4.713426e+02	-3.463844e-02
4.740650e+02	-3.503811e-02
4.768032e+02	-3.544237e-02
4.795572e+02	-3.585128e-02
4.823271e+02	-3.626489e-02
4.851130e+02	-3.668325e-02
4.879150e+02	-3.710641e-02
4.907332e+02	-3.753443e-02
4.935676e+02	-3.796737e-02
4.964185e+02	-3.840529e-02
4.992858e+02	-3.884822e-02
5.021696e+02	-3.929625e-02
5.050701e+02	-3.974942e-02
5.079874e+02	-4.020779e-02
5.109215e+02	-4.067142e-02
5.138726e+02	-4.114037e-02
5.168407e+02	-4.161470e-02
5.198259e+02	-4.209447e-02
5.228284e+02	-4.257975e-02
5.258482e+02	-4.307059e-02
5.288855e+02	-4.356707e-02
5.319403e+02	-4.406924e-02
5.350128e+02	-4.457716e-02
5.381030e+02	-4.509091e-02
5.412111e+02	-4.561055e-02
5.443371e+02	-4.613615e-02
5.474812e+02	-4.666777e-02
5.506434e+02	-4.720548e-02
5.538239e+02	-4.774936e-02
5.570228e+02	-4.829946e-02
5.602401e+02	-4.885587e-02
5.634760e+02	-4.941865e-02
5.667306e+02	-4.998787e-02
5.700040e+02	-5.056362e-02
5.732964e+02	-5.114595e-02
5.766077e+02	-5.173496e-02
5.799382e+02	-5.233070e-02
5.832879e+02	-5.293326e-02
5.866569e+02	-5.354272e-02
5.900454e+02	-5.415915e-02
5.934535e+02	-5.478263e-02
5.968813e+02	-5.541325e-02
6.003288e+02	-5.605107e-02
6.037963e+02	-5.669619e-02
6.072838e+02	-5.734869e-02
6.107914e+02	-5.800864e-02
6.143194e+02	-5.867614e-02
6.178676e+02	-5.935127e-02
6.214364e+02	-6.003411e-02
6.250258e+02	-6.072475e-02
6.286359e+02	-6.142328e-02
6.322669e+02	-6.212979e-02
6.359189e+02	-6.284436e-02
6.395919e+02	-6.356709e-02
6.432862e+02	-6.429808e-02
6.470017e+02	-6.503740e-02
6.507388e+02	-6.578516e-02
6.544974e+02	-6.654146e-02
6.582778e+02	-6.730638e-02
6.620800e+02	-6.808002e-02
6.659041e+02	-6.886249e-02
6.697504e+02	-6.965387e-02
6.736188e+02	-7.045428e-02
6.775096e+02	-7.126381e-02
6.814229e+02	-7.208256e-02
6.853587e+02	-7.291064e-02
6.893173e+02	-7.374816e-02
6.932988e+02	-7.459521e-02
6.973033e+02	-7.545190e-02
7.013309e+02	-7.631835e-02
