Frequency(Hz)	Magnitude(dB)
1.000000e+01	-2.260397e+00
1.005776e+01	-2.281013e+00
1.011585e+01	-2.301528e+00
1.017428e+01	-2.322258e+00
1.023305e+01	-2.342859e+00
1.029215e+01	-2.363663e+00
1.035160e+01	-2.384714e+00
1.041139e+01	-2.406319e+00
1.047153e+01	-2.427698e+00
1.053201e+01	-2.448981e+00
1.059284e+01	-2.470527e+00
1.065403e+01	-2.492242e+00
1.071556e+01	-2.514153e+00
1.077746e+01	-2.536427e+00
1.083971e+01	-2.558601e+00
1.090232e+01	-2.580819e+00
1.096529e+01	-2.603351e+00
1.102862e+01	-2.625959e+00
1.109232e+01	-2.648613e+00
1.115639e+01	-2.671597e+00
1.122083e+01	-2.694503e+00
1.128564e+01	-2.717849e+00
1.135083e+01	-2.741209e+00
1.141639e+01	-2.764669e+00
1.148233e+01	-2.788483e+00
1.154865e+01	-2.811932e+00
1.161536e+01	-2.836108e+00
1.168245e+01	-2.859989e+00
1.174992e+01	-2.884401e+00
1.181779e+01	-2.908676e+00
1.188605e+01	-2.933113e+00
1.195470e+01	-2.957586e+00
1.202375e+01	-2.982375e+00
1.209320e+01	-3.007379e+00
1.216305e+01	-3.032555e+00
1.223330e+01	-3.057751e+00
1.230396e+01	-3.083005e+00
1.237503e+01	-3.108727e+00
1.244651e+01	-3.134272e+00
1.251840e+01	-3.160179e+00
1.259070e+01	-3.185936e+00
1.266343e+01	-3.211953e+00
1.273657e+01	-3.238028e+00
1.281014e+01	-3.264781e+00
1.288413e+01	-3.291213e+00
1.295855e+01	-3.317933e+00
1.303339e+01	-3.344671e+00
1.310867e+01	-3.371514e+00
1.318439e+01	-3.398865e+00
1.326054e+01	-3.425779e+00
1.333713e+01	-3.453130e+00
1.341417e+01	-3.480742e+00
1.349165e+01	-3.508309e+00
1.356958e+01	-3.536064e+00
1.364795e+01	-3.564242e+00
1.372678e+01	-3.592320e+00
1.380607e+01	-3.620525e+00
1.388581e+01	-3.648523e+00
1.396602e+01	-3.677283e+00
1.404668e+01	-3.705766e+00
1.412782e+01	-3.734563e+00
1.420942e+01	-3.763671e+00
1.429149e+01	-3.792618e+00
1.437404e+01	-3.821716e+00
1.445706e+01	-3.851391e+00
1.454057e+01	-3.881024e+00
1.462455e+01	-3.910675e+00
1.470902e+01	-3.940336e+00
1.479398e+01	-3.970151e+00
1.487943e+01	-4.000098e+00
1.496537e+01	-4.030167e+00
1.505181e+01	-4.060707e+00
1.513875e+01	-4.090902e+00
1.522619e+01	-4.121556e+00
1.531414e+01	-4.152371e+00
1.540259e+01	-4.183066e+00
1.549156e+01	-4.214185e+00
1.558103e+01	-4.245590e+00
1.567103e+01	-4.276492e+00
1.576155e+01	-4.307737e+00
1.585258e+01	-4.339534e+00
1.594415e+01	-4.371319e+00
1.603624e+01	-4.403243e+00
1.612886e+01	-4.434805e+00
1.622202e+01	-4.466794e+00
1.631572e+01	-4.498967e+00
1.640996e+01	-4.531555e+00
1.650474e+01	-4.564111e+00
1.660008e+01	-4.596831e+00
1.669596e+01	-4.629618e+00
1.679239e+01	-4.662357e+00
1.688938e+01	-4.695103e+00
1.698694e+01	-4.728441e+00
1.708505e+01	-4.761643e+00
1.718373e+01	-4.795032e+00
1.728299e+01	-4.828492e+00
1.738281e+01	-4.861979e+00
1.748322e+01	-4.895759e+00
1.758420e+01	-4.929610e+00
1.768576e+01	-4.963815e+00
1.778792e+01	-4.998039e+00
1.789066e+01	-5.032085e+00
1.799399e+01	-5.066650e+00
1.809793e+01	-5.101256e+00
1.820246e+01	-5.135854e+00
1.830760e+01	-5.170107e+00
1.841334e+01	-5.205434e+00
1.851969e+01	-5.240339e+00
1.862666e+01	-5.275148e+00
1.873425e+01	-5.310940e+00
1.884246e+01	-5.345932e+00
1.895129e+01	-5.381281e+00
1.906075e+01	-5.417056e+00
1.917085e+01	-5.453059e+00
1.928158e+01	-5.488829e+00
1.939295e+01	-5.524865e+00
1.950496e+01	-5.560512e+00
1.961762e+01	-5.597149e+00
1.973093e+01	-5.632967e+00
1.984490e+01	-5.669551e+00
1.995952e+01	-5.706134e+00
2.007480e+01	-5.742444e+00
2.019076e+01	-5.779290e+00
2.030738e+01	-5.816324e+00
2.042467e+01	-5.853178e+00
2.054264e+01	-5.890485e+00
2.066130e+01	-5.927245e+00
2.078064e+01	-5.965007e+00
2.090066e+01	-6.002212e+00
2.102139e+01	-6.039841e+00
2.114280e+01	-6.077541e+00
2.126492e+01	-6.115399e+00
2.138775e+01	-6.152736e+00
2.151128e+01	-6.190586e+00
2.163553e+01	-6.228617e+00
2.176050e+01	-6.266971e+00
2.188619e+01	-6.305371e+00
2.201260e+01	-6.343482e+00
2.213974e+01	-6.382077e+00
2.226762e+01	-6.420568e+00
2.239624e+01	-6.459494e+00
2.252560e+01	-6.498283e+00
2.265571e+01	-6.537051e+00
2.278656e+01	-6.576150e+00
2.291818e+01	-6.615315e+00
2.305055e+01	-6.654522e+00
2.318369e+01	-6.693485e+00
2.331760e+01	-6.733065e+00
2.345228e+01	-6.772283e+00
2.358774e+01	-6.811690e+00
2.372398e+01	-6.851508e+00
2.386101e+01	-6.891212e+00
2.399883e+01	-6.931571e+00
2.413745e+01	-6.971036e+00
2.427686e+01	-7.011269e+00
2.441709e+01	-7.051315e+00
2.455812e+01	-7.091438e+00
2.469997e+01	-7.131650e+00
2.484263e+01	-7.171968e+00
2.498612e+01	-7.212584e+00
2.513044e+01	-7.253129e+00
2.527559e+01	-7.293543e+00
2.542158e+01	-7.334841e+00
2.556842e+01	-7.375037e+00
2.571610e+01	-7.416202e+00
2.586463e+01	-7.457007e+00
2.601403e+01	-7.498455e+00
2.616428e+01	-7.539571e+00
2.631541e+01	-7.580923e+00
2.646740e+01	-7.622363e+00
2.662028e+01	-7.663537e+00
2.677404e+01	-7.705253e+00
2.692868e+01	-7.746486e+00
2.708422e+01	-7.788032e+00
2.724066e+01	-7.830148e+00
2.739800e+01	-7.871837e+00
2.755625e+01	-7.913558e+00
2.771541e+01	-7.955970e+00
2.787550e+01	-7.997900e+00
2.803650e+01	-8.039809e+00
2.819844e+01	-8.081921e+00
2.836131e+01	-8.124751e+00
2.852513e+01	-8.167091e+00
2.868989e+01	-8.209538e+00
2.885560e+01	-8.251758e+00
2.902227e+01	-8.293912e+00
2.918990e+01	-8.337219e+00
2.935850e+01	-8.379867e+00
2.952807e+01	-8.422867e+00
2.969863e+01	-8.465404e+00
2.987016e+01	-8.508591e+00
3.004269e+01	-8.552126e+00
3.021622e+01	-8.594333e+00
3.039075e+01	-8.637307e+00
3.056628e+01	-8.680967e+00
3.074283e+01	-8.723918e+00
3.092040e+01	-8.767231e+00
3.109900e+01	-8.810668e+00
3.127862e+01	-8.854657e+00
3.145929e+01	-8.897807e+00
3.164099e+01	-8.941469e+00
3.182375e+01	-8.985065e+00
3.200756e+01	-9.029122e+00
3.219244e+01	-9.072679e+00
3.237838e+01	-9.116737e+00
3.256540e+01	-9.160325e+00
3.275349e+01	-9.204571e+00
3.294268e+01	-9.248459e+00
3.313295e+01	-9.292698e+00
3.332433e+01	-9.336912e+00
3.351681e+01	-9.380741e+00
3.371040e+01	-9.425434e+00
3.390511e+01	-9.469057e+00
3.410094e+01	-9.513997e+00
3.429791e+01	-9.558039e+00
3.449601e+01	-9.602988e+00
3.469526e+01	-9.647870e+00
3.489566e+01	-9.692446e+00
3.509721e+01	-9.736354e+00
3.529993e+01	-9.781579e+00
3.550382e+01	-9.825923e+00
3.570889e+01	-9.871082e+00
3.591515e+01	-9.916052e+00
3.612259e+01	-9.961038e+00
3.633123e+01	-1.000565e+01
3.654108e+01	-1.005165e+01
3.675214e+01	-1.009567e+01
3.696442e+01	-1.014134e+01
3.717792e+01	-1.018684e+01
3.739266e+01	-1.023197e+01
3.760864e+01	-1.027711e+01
3.782587e+01	-1.032299e+01
3.804435e+01	-1.036798e+01
3.826409e+01	-1.041382e+01
3.848510e+01	-1.045902e+01
3.870739e+01	-1.050502e+01
3.893096e+01	-1.055002e+01
3.915583e+01	-1.059565e+01
3.938199e+01	-1.064156e+01
3.960946e+01	-1.068725e+01
3.983824e+01	-1.073288e+01
4.006834e+01	-1.077861e+01
4.029978e+01	-1.082495e+01
4.053255e+01	-1.087022e+01
4.076666e+01	-1.091624e+01
4.100213e+01	-1.096299e+01
4.123896e+01	-1.100801e+01
4.147715e+01	-1.105423e+01
4.171672e+01	-1.110074e+01
4.195767e+01	-1.114703e+01
4.220002e+01	-1.119317e+01
4.244377e+01	-1.123942e+01
4.268892e+01	-1.128538e+01
4.293549e+01	-1.133266e+01
4.318348e+01	-1.137763e+01
4.343291e+01	-1.142517e+01
4.368377e+01	-1.147107e+01
4.393609e+01	-1.151830e+01
4.418986e+01	-1.156459e+01
4.444510e+01	-1.161155e+01
4.470182e+01	-1.165693e+01
4.496001e+01	-1.170398e+01
4.521970e+01	-1.175039e+01
4.548089e+01	-1.179742e+01
4.574358e+01	-1.184484e+01
4.600779e+01	-1.189119e+01
4.627353e+01	-1.193702e+01
4.654081e+01	-1.198467e+01
4.680963e+01	-1.203140e+01
4.708000e+01	-1.207834e+01
4.735193e+01	-1.212554e+01
4.762543e+01	-1.217166e+01
4.790051e+01	-1.221920e+01
4.817719e+01	-1.226628e+01
4.845545e+01	-1.231320e+01
4.873533e+01	-1.236012e+01
4.901682e+01	-1.240760e+01
4.929994e+01	-1.245530e+01
4.958470e+01	-1.250166e+01
4.987110e+01	-1.254977e+01
5.015915e+01	-1.259628e+01
5.044887e+01	-1.264338e+01
5.074026e+01	-1.269159e+01
5.103333e+01	-1.273824e+01
5.132810e+01	-1.278586e+01
5.162457e+01	-1.283281e+01
5.192275e+01	-1.288031e+01
5.222265e+01	-1.292810e+01
5.252429e+01	-1.297529e+01
5.282767e+01	-1.302386e+01
5.313280e+01	-1.307087e+01
5.343969e+01	-1.311805e+01
5.374836e+01	-1.316585e+01
5.405880e+01	-1.321439e+01
5.437105e+01	-1.326148e+01
5.468509e+01	-1.330760e+01
5.500095e+01	-1.335721e+01
5.531863e+01	-1.340456e+01
5.563815e+01	-1.345263e+01
5.595951e+01	-1.349990e+01
5.628273e+01	-1.354736e+01
5.660782e+01	-1.359514e+01
5.693479e+01	-1.364293e+01
5.726364e+01	-1.369115e+01
5.759439e+01	-1.373923e+01
5.792705e+01	-1.378661e+01
5.826164e+01	-1.383541e+01
5.859815e+01	-1.388297e+01
5.893662e+01	-1.392945e+01
5.927703e+01	-1.397868e+01
5.961941e+01	-1.402717e+01
5.996377e+01	-1.407421e+01
6.031012e+01	-1.412333e+01
6.065847e+01	-1.417109e+01
6.100883e+01	-1.422011e+01
6.136121e+01	-1.426761e+01
6.171563e+01	-1.431532e+01
6.207210e+01	-1.436304e+01
6.243063e+01	-1.441144e+01
6.279122e+01	-1.446004e+01
6.315390e+01	-1.450805e+01
6.351868e+01	-1.455745e+01
6.388556e+01	-1.460481e+01
6.425456e+01	-1.465343e+01
6.462569e+01	-1.470055e+01
6.499897e+01	-1.474938e+01
6.537440e+01	-1.479778e+01
6.575200e+01	-1.484701e+01
6.613178e+01	-1.489533e+01
6.651375e+01	-1.494269e+01
6.689793e+01	-1.499165e+01
6.728433e+01	-1.504027e+01
6.767297e+01	-1.508842e+01
6.806384e+01	-1.513662e+01
6.845698e+01	-1.518600e+01
6.885238e+01	-1.523446e+01
6.925007e+01	-1.528190e+01
6.965005e+01	-1.533214e+01
7.005235e+01	-1.537970e+01
7.045697e+01	-1.542800e+01
7.086393e+01	-1.547841e+01
7.127323e+01	-1.552627e+01
7.168490e+01	-1.557393e+01
7.209895e+01	-1.562365e+01
7.251539e+01	-1.567078e+01
7.293424e+01	-1.572032e+01
7.335551e+01	-1.576997e+01
7.377920e+01	-1.581845e+01
7.420535e+01	-1.586654e+01
7.463396e+01	-1.591552e+01
7.506504e+01	-1.596317e+01
7.549861e+01	-1.601292e+01
7.593469e+01	-1.606202e+01
7.637328e+01	-1.611015e+01
7.681441e+01	-1.615802e+01
7.725809e+01	-1.620774e+01
7.770433e+01	-1.625678e+01
7.815315e+01	-1.630616e+01
7.860456e+01	-1.635489e+01
7.905857e+01	-1.640310e+01
7.951521e+01	-1.645317e+01
7.997449e+01	-1.650182e+01
8.043642e+01	-1.655030e+01
8.090102e+01	-1.659797e+01
8.136830e+01	-1.664800e+01
8.183828e+01	-1.669711e+01
8.231097e+01	-1.674543e+01
8.278640e+01	-1.679385e+01
8.326457e+01	-1.684485e+01
8.374550e+01	-1.689236e+01
8.422921e+01	-1.694257e+01
8.471572e+01	-1.699123e+01
8.520503e+01	-1.703981e+01
8.569717e+01	-1.708922e+01
8.619215e+01	-1.713868e+01
8.669000e+01	-1.718692e+01
8.719071e+01	-1.723619e+01
8.769432e+01	-1.728546e+01
8.820084e+01	-1.733570e+01
8.871029e+01	-1.738213e+01
8.922267e+01	-1.743290e+01
8.973802e+01	-1.748222e+01
9.025634e+01	-1.753053e+01
9.077766e+01	-1.757960e+01
9.130199e+01	-1.762807e+01
9.182935e+01	-1.767870e+01
9.235975e+01	-1.772692e+01
9.289321e+01	-1.777640e+01
9.342976e+01	-1.782601e+01
9.396941e+01	-1.787627e+01
9.451217e+01	-1.792533e+01
9.505807e+01	-1.797483e+01
9.560712e+01	-1.802301e+01
9.615934e+01	-1.807187e+01
9.671476e+01	-1.812131e+01
9.727338e+01	-1.816984e+01
9.783522e+01	-1.822000e+01
9.840032e+01	-1.827132e+01
9.896867e+01	-1.831891e+01
9.954031e+01	-1.836791e+01
1.001153e+02	-1.841761e+01
1.006935e+02	-1.846615e+01
1.012751e+02	-1.851559e+01
1.018601e+02	-1.856756e+01
1.024484e+02	-1.861455e+01
1.030402e+02	-1.866321e+01
1.036353e+02	-1.871297e+01
1.042339e+02	-1.876195e+01
1.048360e+02	-1.881312e+01
1.054415e+02	-1.886261e+01
1.060505e+02	-1.891137e+01
1.066631e+02	-1.896073e+01
1.072791e+02	-1.900900e+01
1.078988e+02	-1.906041e+01
1.085220e+02	-1.910898e+01
1.091488e+02	-1.915775e+01
1.097793e+02	-1.920887e+01
1.104133e+02	-1.925612e+01
1.110511e+02	-1.930598e+01
1.116925e+02	-1.935540e+01
1.123376e+02	-1.940368e+01
1.129865e+02	-1.945462e+01
1.136391e+02	-1.950432e+01
1.142955e+02	-1.955145e+01
1.149556e+02	-1.960249e+01
1.156196e+02	-1.965322e+01
1.162874e+02	-1.970195e+01
1.169591e+02	-1.975221e+01
1.176347e+02	-1.980119e+01
1.183141e+02	-1.984919e+01
1.189975e+02	-1.989892e+01
1.196848e+02	-1.995008e+01
1.203761e+02	-1.999831e+01
1.210714e+02	-2.004956e+01
1.217707e+02	-2.009952e+01
1.224740e+02	-2.014750e+01
1.231814e+02	-2.019785e+01
1.238929e+02	-2.024630e+01
1.246085e+02	-2.029629e+01
1.253283e+02	-2.034514e+01
1.260522e+02	-2.039623e+01
1.267802e+02	-2.044496e+01
1.275125e+02	-2.049427e+01
1.282490e+02	-2.054536e+01
1.289898e+02	-2.059458e+01
1.297348e+02	-2.064342e+01
1.304842e+02	-2.069515e+01
1.312378e+02	-2.074289e+01
1.319959e+02	-2.079244e+01
1.327583e+02	-2.084066e+01
1.335251e+02	-2.089255e+01
1.342963e+02	-2.094212e+01
1.350720e+02	-2.098898e+01
1.358522e+02	-2.104066e+01
1.366368e+02	-2.109001e+01
1.374260e+02	-2.113846e+01
1.382198e+02	-2.118856e+01
1.390182e+02	-2.124025e+01
1.398211e+02	-2.128757e+01
1.406287e+02	-2.133871e+01
1.414410e+02	-2.138888e+01
1.422579e+02	-2.143654e+01
1.430796e+02	-2.148808e+01
1.439060e+02	-2.153753e+01
1.447372e+02	-2.158634e+01
1.455732e+02	-2.163422e+01
1.464141e+02	-2.168520e+01
1.472597e+02	-2.173468e+01
1.481103e+02	-2.178604e+01
1.489658e+02	-2.183421e+01
1.498262e+02	-2.188587e+01
1.506916e+02	-2.193492e+01
1.515620e+02	-2.198300e+01
1.524374e+02	-2.203657e+01
1.533179e+02	-2.208351e+01
1.542034e+02	-2.213432e+01
1.550941e+02	-2.218373e+01
1.559899e+02	-2.223368e+01
1.568909e+02	-2.228248e+01
1.577971e+02	-2.233288e+01
1.587085e+02	-2.238197e+01
1.596252e+02	-2.243166e+01
1.605472e+02	-2.248089e+01
1.614745e+02	-2.253192e+01
1.624072e+02	-2.257993e+01
1.633453e+02	-2.263222e+01
1.642887e+02	-2.268079e+01
1.652377e+02	-2.273134e+01
1.661921e+02	-2.278156e+01
1.671520e+02	-2.283021e+01
1.681175e+02	-2.288054e+01
1.690885e+02	-2.293039e+01
1.700651e+02	-2.297873e+01
1.710474e+02	-2.302789e+01
1.720354e+02	-2.307984e+01
1.730291e+02	-2.312750e+01
1.740285e+02	-2.318061e+01
1.750337e+02	-2.323001e+01
1.760446e+02	-2.327764e+01
1.770615e+02	-2.332944e+01
1.780842e+02	-2.337461e+01
1.791128e+02	-2.342685e+01
1.801473e+02	-2.347606e+01
1.811878e+02	-2.352822e+01
1.822344e+02	-2.357636e+01
1.832870e+02	-2.363011e+01
1.843456e+02	-2.367540e+01
1.854104e+02	-2.372627e+01
1.864813e+02	-2.377712e+01
1.875584e+02	-2.382606e+01
1.886418e+02	-2.387589e+01
1.897313e+02	-2.392637e+01
1.908272e+02	-2.397492e+01
1.919294e+02	-2.402553e+01
1.930380e+02	-2.407391e+01
1.941530e+02	-2.412692e+01
1.952744e+02	-2.417770e+01
1.964023e+02	-2.422571e+01
1.975367e+02	-2.427485e+01
1.986777e+02	-2.432538e+01
1.998252e+02	-2.437529e+01
2.009794e+02	-2.442528e+01
2.021403e+02	-2.447535e+01
2.033078e+02	-2.452563e+01
2.044821e+02	-2.457594e+01
2.056632e+02	-2.462554e+01
2.068511e+02	-2.467395e+01
2.080459e+02	-2.472618e+01
2.092475e+02	-2.477095e+01
2.104561e+02	-2.482244e+01
2.116717e+02	-2.487502e+01
2.128943e+02	-2.492384e+01
2.141240e+02	-2.497358e+01
2.153608e+02	-2.502478e+01
2.166047e+02	-2.507472e+01
2.178558e+02	-2.512096e+01
2.191141e+02	-2.517758e+01
2.203797e+02	-2.522476e+01
2.216526e+02	-2.527385e+01
2.229329e+02	-2.532215e+01
2.242205e+02	-2.537466e+01
2.255156e+02	-2.542125e+01
2.268182e+02	-2.547273e+01
2.281283e+02	-2.552500e+01
2.294459e+02	-2.557234e+01
2.307712e+02	-2.562141e+01
2.321041e+02	-2.567355e+01
2.334447e+02	-2.572447e+01
2.347931e+02	-2.577612e+01
2.361493e+02	-2.582078e+01
2.375133e+02	-2.587059e+01
2.388851e+02	-2.592201e+01
2.402649e+02	-2.597165e+01
2.416527e+02	-2.602560e+01
2.430484e+02	-2.607209e+01
2.444523e+02	-2.612185e+01
2.458642e+02	-2.617411e+01
2.472843e+02	-2.622313e+01
2.487126e+02	-2.627262e+01
2.501492e+02	-2.632210e+01
2.515940e+02	-2.636886e+01
2.530472e+02	-2.642088e+01
2.545088e+02	-2.646998e+01
2.559789e+02	-2.651832e+01
2.574574e+02	-2.657120e+01
2.589444e+02	-2.662114e+01
2.604401e+02	-2.667249e+01
2.619444e+02	-2.672142e+01
2.634574e+02	-2.677375e+01
2.649791e+02	-2.681622e+01
2.665096e+02	-2.687403e+01
2.680489e+02	-2.692075e+01
2.695972e+02	-2.697297e+01
2.711544e+02	-2.702073e+01
2.727205e+02	-2.707303e+01
2.742958e+02	-2.711848e+01
2.758801e+02	-2.717283e+01
2.774736e+02	-2.722255e+01
2.790762e+02	-2.726819e+01
2.806882e+02	-2.731986e+01
2.823094e+02	-2.737167e+01
2.839400e+02	-2.741862e+01
2.855800e+02	-2.747312e+01
2.872295e+02	-2.751651e+01
2.888886e+02	-2.756896e+01
2.905572e+02	-2.762443e+01
2.922354e+02	-2.767609e+01
2.939234e+02	-2.772077e+01
2.956211e+02	-2.777083e+01
2.973286e+02	-2.781865e+01
2.990459e+02	-2.787250e+01
3.007732e+02	-2.792090e+01
3.025104e+02	-2.797469e+01
3.042577e+02	-2.802208e+01
3.060151e+02	-2.807058e+01
3.077826e+02	-2.812112e+01
3.095604e+02	-2.817154e+01
3.113484e+02	-2.822165e+01
3.131467e+02	-2.827399e+01
3.149554e+02	-2.832502e+01
3.167746e+02	-2.837385e+01
3.186043e+02	-2.842022e+01
3.204445e+02	-2.847503e+01
3.222954e+02	-2.852022e+01
3.241570e+02	-2.857344e+01
3.260293e+02	-2.862237e+01
3.279124e+02	-2.867002e+01
3.298064e+02	-2.871891e+01
3.317114e+02	-2.877259e+01
3.336273e+02	-2.882653e+01
3.355544e+02	-2.887012e+01
3.374925e+02	-2.891846e+01
3.394418e+02	-2.897047e+01
3.414024e+02	-2.902357e+01
3.433744e+02	-2.907193e+01
3.453577e+02	-2.912272e+01
3.473525e+02	-2.917114e+01
3.493588e+02	-2.922257e+01
3.513766e+02	-2.927091e+01
3.534062e+02	-2.932592e+01
3.554474e+02	-2.937056e+01
3.575005e+02	-2.942416e+01
3.595654e+02	-2.946891e+01
3.616422e+02	-2.952236e+01
3.637311e+02	-2.957029e+01
3.658320e+02	-2.962573e+01
3.679450e+02	-2.966938e+01
3.700702e+02	-2.972276e+01
3.722077e+02	-2.977417e+01
3.743576e+02	-2.982276e+01
3.765199e+02	-2.987611e+01
3.786946e+02	-2.992380e+01
3.808820e+02	-2.997259e+01
3.830819e+02	-3.002551e+01
3.852946e+02	-3.007757e+01
3.875200e+02	-3.012888e+01
3.897583e+02	-3.017040e+01
3.920096e+02	-3.022516e+01
3.942738e+02	-3.027503e+01
3.965511e+02	-3.032839e+01
3.988416e+02	-3.037205e+01
4.011452e+02	-3.042285e+01
4.034622e+02	-3.047110e+01
4.057926e+02	-3.051869e+01
4.081365e+02	-3.057690e+01
4.104938e+02	-3.062305e+01
4.128648e+02	-3.067514e+01
4.152495e+02	-3.072715e+01
4.176480e+02	-3.077596e+01
4.200603e+02	-3.082967e+01
4.224866e+02	-3.087589e+01
4.249268e+02	-3.092646e+01
4.273812e+02	-3.097691e+01
4.298497e+02	-3.102677e+01
4.323325e+02	-3.107831e+01
4.348297e+02	-3.112817e+01
4.373412e+02	-3.117800e+01
4.398673e+02	-3.122394e+01
4.424079e+02	-3.127941e+01
4.449633e+02	-3.132520e+01
4.475334e+02	-3.137895e+01
4.501183e+02	-3.142729e+01
4.527182e+02	-3.147248e+01
4.553330e+02	-3.152686e+01
4.579630e+02	-3.157227e+01
4.606082e+02	-3.162771e+01
4.632687e+02	-3.167448e+01
4.659445e+02	-3.172473e+01
4.686358e+02	-3.178352e+01
4.713426e+02	-3.182881e+01
4.740650e+02	-3.188317e+01
4.768032e+02	-3.192574e+01
4.795572e+02	-3.197776e+01
4.823271e+02	-3.203439e+01
4.851130e+02	-3.208388e+01
4.879150e+02	-3.212923e+01
4.907332e+02	-3.217819e+01
4.935676e+02	-3.222998e+01
4.964185e+02	-3.227787e+01
4.992858e+02	-3.232957e+01
5.021696e+02	-3.238689e+01
5.050701e+02	-3.242996e+01
5.079874e+02	-3.248562e+01
5.109215e+02	-3.252323e+01
5.138726e+02	-3.258137e+01
5.168407e+02	-3.263039e+01
5.198259e+02	-3.268594e+01
5.228284e+02	-3.273808e+01
5.258482e+02	-3.277761e+01
5.288855e+02	-3.282929e+01
5.319403e+02	-3.287797e+01
5.350128e+02	-3.293399e+01
5.381030e+02	-3.298314e+01
5.412111e+02	-3.302919e+01
5.443371e+02	-3.308198e+01
5.474812e+02	-3.313161e+01
5.506434e+02	-3.318586e+01
5.538239e+02	-3.324033e+01
5.570228e+02	-3.328580e+01
5.602401e+02	-3.333652e+01
5.634760e+02	-3.338678e+01
5.667306e+02	-3.342785e+01
5.700040e+02	-3.348667e+01
5.732964e+02	-3.353429e+01
5.766077e+02	-3.358463e+01
5.799382e+02	-3.363438e+01
5.832879e+02	-3.368634e+01
5.866569e+02	-3.373537e+01
5.900454e+02	-3.379397e+01
5.934535e+02	-3.383606e+01
5.968813e+02	-3.388059e+01
6.003288e+02	-3.393710e+01
6.037963e+02	-3.399017e+01
6.072838e+02	-3.403635e+01
6.107914e+02	-3.409195e+01
6.143194e+02	-3.414399e+01
6.178676e+02	-3.418442e+01
6.214364e+02	-3.423262e+01
6.250258e+02	-3.429242e+01
6.286359e+02	-3.433893e+01
6.322669e+02	-3.439732e+01
6.359189e+02	-3.443813e+01
6.395919e+02	-3.448942e+01
6.432862e+02	-3.453571e+01
6.470017e+02	-3.459718e+01
6.507388e+02	-3.464728e+01
6.544974e+02	-3.470028e+01
6.582778e+02	-3.473886e+01
6.620800e+02	-3.479599e+01
6.659041e+02	-3.484851e+01
6.697504e+02	-3.489523e+01
6.736188e+02	-3.494370e+01
6.775096e+02	-3.499483e+01
6.814229e+02	-3.505618e+01
6.853587e+02	-3.509354e+01
6.893173e+02	-3.514251e+01
6.932988e+02	-3.519526e+01
6.973033e+02	-3.524144e+01
7.013309e+02	-3.529472e+01
