Frequency(Hz)	Magnitude(dB)
1.000000e+01	-2.095400e+00
1.005776e+01	-2.114633e+00
1.011585e+01	-2.134042e+00
1.017428e+01	-2.153731e+00
1.023305e+01	-2.173142e+00
1.029215e+01	-2.192882e+00
1.035160e+01	-2.212605e+00
1.041139e+01	-2.232744e+00
1.047153e+01	-2.252985e+00
1.053201e+01	-2.273196e+00
1.059284e+01	-2.293535e+00
1.065403e+01	-2.314441e+00
1.071556e+01	-2.335142e+00
1.077746e+01	-2.355920e+00
1.083971e+01	-2.377172e+00
1.090232e+01	-2.398359e+00
1.096529e+01	-2.419499e+00
1.102862e+01	-2.440884e+00
1.109232e+01	-2.462591e+00
1.115639e+01	-2.483960e+00
1.122083e+01	-2.506122e+00
1.128564e+01	-2.528123e+00
1.135083e+01	-2.550103e+00
1.141639e+01	-2.572520e+00
1.148233e+01	-2.594773e+00
1.154865e+01	-2.617575e+00
1.161536e+01	-2.640159e+00
1.168245e+01	-2.662918e+00
1.174992e+01	-2.686219e+00
1.181779e+01	-2.709207e+00
1.188605e+01	-2.732554e+00
1.195470e+01	-2.755559e+00
1.202375e+01	-2.779423e+00
1.209320e+01	-2.803347e+00
1.216305e+01	-2.827234e+00
1.223330e+01	-2.851069e+00
1.230396e+01	-2.875218e+00
1.237503e+01	-2.899674e+00
1.244651e+01	-2.924153e+00
1.251840e+01	-2.948523e+00
1.259070e+01	-2.973258e+00
1.266343e+01	-2.998218e+00
1.273657e+01	-3.023194e+00
1.281014e+01	-3.048422e+00
1.288413e+01	-3.073608e+00
1.295855e+01	-3.098988e+00
1.303339e+01	-3.124790e+00
1.310867e+01	-3.150483e+00
1.318439e+01	-3.176225e+00
1.326054e+01	-3.202417e+00
1.333713e+01	-3.228484e+00
1.341417e+01	-3.254923e+00
1.349165e+01	-3.281452e+00
1.356958e+01	-3.307863e+00
1.364795e+01	-3.334573e+00
1.372678e+01	-3.361454e+00
1.380607e+01	-3.388512e+00
1.388581e+01	-3.415677e+00
1.396602e+01	-3.442974e+00
1.404668e+01	-3.470519e+00
1.412782e+01	-3.498105e+00
1.420942e+01	-3.525776e+00
1.429149e+01	-3.553646e+00
1.437404e+01	-3.581696e+00
1.445706e+01	-3.609919e+00
1.454057e+01	-3.638205e+00
1.462455e+01	-3.666593e+00
1.470902e+01	-3.695149e+00
1.479398e+01	-3.723880e+00
1.487943e+01	-3.752945e+00
1.496537e+01	-3.781626e+00
1.505181e+01	-3.811201e+00
1.513875e+01	-3.840200e+00
1.522619e+01	-3.869650e+00
1.531414e+01	-3.899274e+00
1.540259e+01	-3.929089e+00
1.549156e+01	-3.959107e+00
1.558103e+01	-3.988869e+00
1.567103e+01	-4.018690e+00
1.576155e+01	-4.049355e+00
1.585258e+01	-4.079484e+00
1.594415e+01	-4.110074e+00
1.603624e+01	-4.140730e+00
1.612886e+01	-4.171379e+00
1.622202e+01	-4.202836e+00
1.631572e+01	-4.233840e+00
1.640996e+01	-4.264666e+00
1.650474e+01	-4.296214e+00
1.660008e+01	-4.327584e+00
1.669596e+01	-4.359451e+00
1.679239e+01	-4.391259e+00
1.688938e+01	-4.422959e+00
1.698694e+01	-4.455191e+00
1.708505e+01	-4.487314e+00
1.718373e+01	-4.519266e+00
1.728299e+01	-4.551744e+00
1.738281e+01	-4.584501e+00
1.748322e+01	-4.617046e+00
1.758420e+01	-4.649921e+00
1.768576e+01	-4.683063e+00
1.778792e+01	-4.716144e+00
1.789066e+01	-4.749290e+00
1.799399e+01	-4.782713e+00
1.809793e+01	-4.816042e+00
1.820246e+01	-4.849613e+00
1.830760e+01	-4.883212e+00
1.841334e+01	-4.917065e+00
1.851969e+01	-4.951280e+00
1.862666e+01	-4.984984e+00
1.873425e+01	-5.019332e+00
1.884246e+01	-5.053611e+00
1.895129e+01	-5.088022e+00
1.906075e+01	-5.122785e+00
1.917085e+01	-5.157631e+00
1.928158e+01	-5.192421e+00
1.939295e+01	-5.227366e+00
1.950496e+01	-5.262394e+00
1.961762e+01	-5.297625e+00
1.973093e+01	-5.332705e+00
1.984490e+01	-5.368202e+00
1.995952e+01	-5.403690e+00
2.007480e+01	-5.439664e+00
2.019076e+01	-5.475156e+00
2.030738e+01	-5.511449e+00
2.042467e+01	-5.547110e+00
2.054264e+01	-5.583136e+00
2.066130e+01	-5.619750e+00
2.078064e+01	-5.656003e+00
2.090066e+01	-5.691989e+00
2.102139e+01	-5.728892e+00
2.114280e+01	-5.765758e+00
2.126492e+01	-5.802527e+00
2.138775e+01	-5.839314e+00
2.151128e+01	-5.876720e+00
2.163553e+01	-5.913708e+00
2.176050e+01	-5.951100e+00
2.188619e+01	-5.988467e+00
2.201260e+01	-6.025921e+00
2.213974e+01	-6.063320e+00
2.226762e+01	-6.101279e+00
2.239624e+01	-6.139183e+00
2.252560e+01	-6.176589e+00
2.265571e+01	-6.215225e+00
2.278656e+01	-6.253147e+00
2.291818e+01	-6.291013e+00
2.305055e+01	-6.329580e+00
2.318369e+01	-6.367800e+00
2.331760e+01	-6.406617e+00
2.345228e+01	-6.445275e+00
2.358774e+01	-6.484043e+00
2.372398e+01	-6.522422e+00
2.386101e+01	-6.561330e+00
2.399883e+01	-6.600863e+00
2.413745e+01	-6.640067e+00
2.427686e+01	-6.679158e+00
2.441709e+01	-6.718280e+00
2.455812e+01	-6.757885e+00
2.469997e+01	-6.797451e+00
2.484263e+01	-6.837019e+00
2.498612e+01	-6.876757e+00
2.513044e+01	-6.916505e+00
2.527559e+01	-6.956198e+00
2.542158e+01	-6.996267e+00
2.556842e+01	-7.036421e+00
2.571610e+01	-7.076284e+00
2.586463e+01	-7.116947e+00
2.601403e+01	-7.157287e+00
2.616428e+01	-7.197157e+00
2.631541e+01	-7.238107e+00
2.646740e+01	-7.278605e+00
2.662028e+01	-7.319402e+00
2.677404e+01	-7.360433e+00
2.692868e+01	-7.401042e+00
2.708422e+01	-7.442235e+00
2.724066e+01	-7.483400e+00
2.739800e+01	-7.524126e+00
2.755625e+01	-7.565438e+00
2.771541e+01	-7.606765e+00
2.787550e+01	-7.647837e+00
2.803650e+01	-7.689578e+00
2.819844e+01	-7.730888e+00
2.836131e+01	-7.772552e+00
2.852513e+01	-7.814319e+00
2.868989e+01	-7.856394e+00
2.885560e+01	-7.898300e+00
2.902227e+01	-7.940007e+00
2.918990e+01	-7.982414e+00
2.935850e+01	-8.024450e+00
2.952807e+01	-8.066635e+00
2.969863e+01	-8.108572e+00
2.987016e+01	-8.151420e+00
3.004269e+01	-8.193420e+00
3.021622e+01	-8.235836e+00
3.039075e+01	-8.278607e+00
3.056628e+01	-8.321277e+00
3.074283e+01	-8.363785e+00
3.092040e+01	-8.406866e+00
3.109900e+01	-8.449396e+00
3.127862e+01	-8.492771e+00
3.145929e+01	-8.535227e+00
3.164099e+01	-8.578274e+00
3.182375e+01	-8.621545e+00
3.200756e+01	-8.664446e+00
3.219244e+01	-8.707852e+00
3.237838e+01	-8.750944e+00
3.256540e+01	-8.794450e+00
3.275349e+01	-8.838211e+00
3.294268e+01	-8.881380e+00
3.313295e+01	-8.925167e+00
3.332433e+01	-8.968734e+00
3.351681e+01	-9.012428e+00
3.371040e+01	-9.056190e+00
3.390511e+01	-9.100139e+00
3.410094e+01	-9.143853e+00
3.429791e+01	-9.188231e+00
3.449601e+01	-9.231775e+00
3.469526e+01	-9.276021e+00
3.489566e+01	-9.320290e+00
3.509721e+01	-9.364656e+00
3.529993e+01	-9.408957e+00
3.550382e+01	-9.453048e+00
3.570889e+01	-9.497724e+00
3.591515e+01	-9.541910e+00
3.612259e+01	-9.586933e+00
3.633123e+01	-9.630821e+00
3.654108e+01	-9.675672e+00
3.675214e+01	-9.720449e+00
3.696442e+01	-9.765281e+00
3.717792e+01	-9.809677e+00
3.739266e+01	-9.854948e+00
3.760864e+01	-9.899847e+00
3.782587e+01	-9.944559e+00
3.804435e+01	-9.989009e+00
3.826409e+01	-1.003439e+01
3.848510e+01	-1.007935e+01
3.870739e+01	-1.012473e+01
3.893096e+01	-1.016966e+01
3.915583e+01	-1.021472e+01
3.938199e+01	-1.025999e+01
3.960946e+01	-1.030570e+01
3.983824e+01	-1.035087e+01
4.006834e+01	-1.039628e+01
4.029978e+01	-1.044222e+01
4.053255e+01	-1.048695e+01
4.076666e+01	-1.053295e+01
4.100213e+01	-1.057893e+01
4.123896e+01	-1.062370e+01
4.147715e+01	-1.067044e+01
4.171672e+01	-1.071609e+01
4.195767e+01	-1.076140e+01
4.220002e+01	-1.080750e+01
4.244377e+01	-1.085327e+01
4.268892e+01	-1.089970e+01
4.293549e+01	-1.094563e+01
4.318348e+01	-1.099095e+01
4.343291e+01	-1.103766e+01
4.368377e+01	-1.108363e+01
4.393609e+01	-1.112947e+01
4.418986e+01	-1.117635e+01
4.444510e+01	-1.122191e+01
4.470182e+01	-1.126870e+01
4.496001e+01	-1.131442e+01
4.521970e+01	-1.136180e+01
4.548089e+01	-1.140722e+01
4.574358e+01	-1.145410e+01
4.600779e+01	-1.150054e+01
4.627353e+01	-1.154708e+01
4.654081e+01	-1.159364e+01
4.680963e+01	-1.163971e+01
4.708000e+01	-1.168668e+01
4.735193e+01	-1.173262e+01
4.762543e+01	-1.178002e+01
4.790051e+01	-1.182661e+01
4.817719e+01	-1.187357e+01
4.845545e+01	-1.192073e+01
4.873533e+01	-1.196707e+01
4.901682e+01	-1.201429e+01
4.929994e+01	-1.206122e+01
4.958470e+01	-1.210875e+01
4.987110e+01	-1.215437e+01
5.015915e+01	-1.220136e+01
5.044887e+01	-1.224924e+01
5.074026e+01	-1.229553e+01
5.103333e+01	-1.234317e+01
5.132810e+01	-1.239046e+01
5.162457e+01	-1.243723e+01
5.192275e+01	-1.248441e+01
5.222265e+01	-1.253140e+01
5.252429e+01	-1.257822e+01
5.282767e+01	-1.262572e+01
5.313280e+01	-1.267296e+01
5.343969e+01	-1.272011e+01
5.374836e+01	-1.276798e+01
5.405880e+01	-1.281546e+01
5.437105e+01	-1.286358e+01
5.468509e+01	-1.290977e+01
5.500095e+01	-1.295836e+01
5.531863e+01	-1.300537e+01
5.563815e+01	-1.305300e+01
5.595951e+01	-1.309985e+01
5.628273e+01	-1.314771e+01
5.660782e+01	-1.319623e+01
5.693479e+01	-1.324322e+01
5.726364e+01	-1.329081e+01
5.759439e+01	-1.333855e+01
5.792705e+01	-1.338706e+01
5.826164e+01	-1.343370e+01
5.859815e+01	-1.348147e+01
5.893662e+01	-1.353019e+01
5.927703e+01	-1.357780e+01
5.961941e+01	-1.362520e+01
5.996377e+01	-1.367253e+01
6.031012e+01	-1.372140e+01
6.065847e+01	-1.376926e+01
6.100883e+01	-1.381683e+01
6.136121e+01	-1.386518e+01
6.171563e+01	-1.391330e+01
6.207210e+01	-1.396122e+01
6.243063e+01	-1.400875e+01
6.279122e+01	-1.405731e+01
6.315390e+01	-1.410502e+01
6.351868e+01	-1.415375e+01
6.388556e+01	-1.420173e+01
6.425456e+01	-1.424871e+01
6.462569e+01	-1.429808e+01
6.499897e+01	-1.434555e+01
6.537440e+01	-1.439451e+01
6.575200e+01	-1.444244e+01
6.613178e+01	-1.449073e+01
6.651375e+01	-1.453972e+01
6.689793e+01	-1.458615e+01
6.728433e+01	-1.463568e+01
6.767297e+01	-1.468364e+01
6.806384e+01	-1.473227e+01
6.845698e+01	-1.477945e+01
6.885238e+01	-1.482845e+01
6.925007e+01	-1.487676e+01
6.965005e+01	-1.492656e+01
7.005235e+01	-1.497377e+01
7.045697e+01	-1.502271e+01
7.086393e+01	-1.507110e+01
7.127323e+01	-1.511902e+01
7.168490e+01	-1.516858e+01
7.209895e+01	-1.521589e+01
7.251539e+01	-1.526463e+01
7.293424e+01	-1.531342e+01
7.335551e+01	-1.536229e+01
7.377920e+01	-1.540982e+01
7.420535e+01	-1.545944e+01
7.463396e+01	-1.550794e+01
7.506504e+01	-1.555657e+01
7.549861e+01	-1.560414e+01
7.593469e+01	-1.565378e+01
7.637328e+01	-1.570188e+01
7.681441e+01	-1.575156e+01
7.725809e+01	-1.579912e+01
7.770433e+01	-1.584825e+01
7.815315e+01	-1.589850e+01
7.860456e+01	-1.594561e+01
7.905857e+01	-1.599524e+01
7.951521e+01	-1.604288e+01
7.997449e+01	-1.609159e+01
8.043642e+01	-1.614047e+01
8.090102e+01	-1.618936e+01
8.136830e+01	-1.623856e+01
8.183828e+01	-1.628724e+01
8.231097e+01	-1.633738e+01
8.278640e+01	-1.638439e+01
8.326457e+01	-1.643572e+01
8.374550e+01	-1.648255e+01
8.422921e+01	-1.653142e+01
8.471572e+01	-1.658107e+01
8.520503e+01	-1.663003e+01
8.569717e+01	-1.667929e+01
8.619215e+01	-1.672721e+01
8.669000e+01	-1.677639e+01
8.719071e+01	-1.682564e+01
8.769432e+01	-1.687397e+01
8.820084e+01	-1.692349e+01
8.871029e+01	-1.697317e+01
8.922267e+01	-1.702168e+01
8.973802e+01	-1.707089e+01
9.025634e+01	-1.711921e+01
9.077766e+01	-1.716950e+01
9.130199e+01	-1.721744e+01
9.182935e+01	-1.726685e+01
9.235975e+01	-1.731578e+01
9.289321e+01	-1.736491e+01
9.342976e+01	-1.741458e+01
9.396941e+01	-1.746441e+01
9.451217e+01	-1.751268e+01
9.505807e+01	-1.756113e+01
9.560712e+01	-1.761123e+01
9.615934e+01	-1.766128e+01
9.671476e+01	-1.770924e+01
9.727338e+01	-1.775938e+01
9.783522e+01	-1.780797e+01
9.840032e+01	-1.785750e+01
9.896867e+01	-1.790582e+01
9.954031e+01	-1.795495e+01
1.001153e+02	-1.800391e+01
1.006935e+02	-1.805432e+01
1.012751e+02	-1.810450e+01
1.018601e+02	-1.815355e+01
1.024484e+02	-1.820128e+01
1.030402e+02	-1.825022e+01
1.036353e+02	-1.830039e+01
1.042339e+02	-1.834967e+01
1.048360e+02	-1.839858e+01
1.054415e+02	-1.844701e+01
1.060505e+02	-1.849743e+01
1.066631e+02	-1.854777e+01
1.072791e+02	-1.859664e+01
1.078988e+02	-1.864425e+01
1.085220e+02	-1.869560e+01
1.091488e+02	-1.874520e+01
1.097793e+02	-1.879273e+01
1.104133e+02	-1.884341e+01
1.110511e+02	-1.889367e+01
1.116925e+02	-1.894081e+01
1.123376e+02	-1.899062e+01
1.129865e+02	-1.904214e+01
1.136391e+02	-1.908971e+01
1.142955e+02	-1.913778e+01
1.149556e+02	-1.918651e+01
1.156196e+02	-1.923805e+01
1.162874e+02	-1.928799e+01
1.169591e+02	-1.933727e+01
1.176347e+02	-1.938601e+01
1.183141e+02	-1.943548e+01
1.189975e+02	-1.948739e+01
1.196848e+02	-1.953479e+01
1.203761e+02	-1.958306e+01
1.210714e+02	-1.963351e+01
1.217707e+02	-1.968409e+01
1.224740e+02	-1.973154e+01
1.231814e+02	-1.978276e+01
1.238929e+02	-1.983025e+01
1.246085e+02	-1.988134e+01
1.253283e+02	-1.992994e+01
1.260522e+02	-1.997946e+01
1.267802e+02	-2.003094e+01
1.275125e+02	-2.007893e+01
1.282490e+02	-2.012918e+01
1.289898e+02	-2.017836e+01
1.297348e+02	-2.022721e+01
1.304842e+02	-2.027935e+01
1.312378e+02	-2.032570e+01
1.319959e+02	-2.037746e+01
1.327583e+02	-2.042759e+01
1.335251e+02	-2.047463e+01
1.342963e+02	-2.052548e+01
1.350720e+02	-2.057553e+01
1.358522e+02	-2.062543e+01
1.366368e+02	-2.067519e+01
1.374260e+02	-2.072450e+01
1.382198e+02	-2.077459e+01
1.390182e+02	-2.082351e+01
1.398211e+02	-2.087472e+01
1.406287e+02	-2.092307e+01
1.414410e+02	-2.097465e+01
1.422579e+02	-2.102179e+01
1.430796e+02	-2.107290e+01
1.439060e+02	-2.112310e+01
1.447372e+02	-2.116981e+01
1.455732e+02	-2.122016e+01
1.464141e+02	-2.126922e+01
1.472597e+02	-2.132037e+01
1.481103e+02	-2.137016e+01
1.489658e+02	-2.141765e+01
1.498262e+02	-2.147166e+01
1.506916e+02	-2.151854e+01
1.515620e+02	-2.156915e+01
1.524374e+02	-2.161691e+01
1.533179e+02	-2.166750e+01
1.542034e+02	-2.171759e+01
1.550941e+02	-2.176788e+01
1.559899e+02	-2.181644e+01
1.568909e+02	-2.186664e+01
1.577971e+02	-2.191398e+01
1.587085e+02	-2.196661e+01
1.596252e+02	-2.201668e+01
1.605472e+02	-2.206387e+01
1.614745e+02	-2.211503e+01
1.624072e+02	-2.216478e+01
1.633453e+02	-2.221528e+01
1.642887e+02	-2.226355e+01
1.652377e+02	-2.231382e+01
1.661921e+02	-2.236467e+01
1.671520e+02	-2.241231e+01
1.681175e+02	-2.246381e+01
1.690885e+02	-2.251321e+01
1.700651e+02	-2.256245e+01
1.710474e+02	-2.261387e+01
1.720354e+02	-2.266272e+01
1.730291e+02	-2.271172e+01
1.740285e+02	-2.276324e+01
1.750337e+02	-2.281128e+01
1.760446e+02	-2.286150e+01
1.770615e+02	-2.291240e+01
1.780842e+02	-2.296237e+01
1.791128e+02	-2.301075e+01
1.801473e+02	-2.306374e+01
1.811878e+02	-2.311119e+01
1.822344e+02	-2.316217e+01
1.832870e+02	-2.321147e+01
1.843456e+02	-2.326124e+01
1.854104e+02	-2.330851e+01
1.864813e+02	-2.335916e+01
1.875584e+02	-2.341012e+01
1.886418e+02	-2.346095e+01
1.897313e+02	-2.351041e+01
1.908272e+02	-2.355853e+01
1.919294e+02	-2.360905e+01
1.930380e+02	-2.365746e+01
1.941530e+02	-2.370806e+01
1.952744e+02	-2.375824e+01
1.964023e+02	-2.380941e+01
1.975367e+02	-2.385810e+01
1.986777e+02	-2.390620e+01
1.998252e+02	-2.395717e+01
2.009794e+02	-2.400601e+01
2.021403e+02	-2.405632e+01
2.033078e+02	-2.410720e+01
2.044821e+02	-2.415520e+01
2.056632e+02	-2.420398e+01
2.068511e+02	-2.425722e+01
2.080459e+02	-2.430488e+01
2.092475e+02	-2.435867e+01
2.104561e+02	-2.440441e+01
2.116717e+02	-2.445516e+01
2.128943e+02	-2.450566e+01
2.141240e+02	-2.455762e+01
2.153608e+02	-2.460660e+01
2.166047e+02	-2.465898e+01
2.178558e+02	-2.470556e+01
2.191141e+02	-2.475600e+01
2.203797e+02	-2.480496e+01
2.216526e+02	-2.485385e+01
2.229329e+02	-2.490948e+01
2.242205e+02	-2.495386e+01
2.255156e+02	-2.500567e+01
2.268182e+02	-2.505376e+01
2.281283e+02	-2.510495e+01
2.294459e+02	-2.515781e+01
2.307712e+02	-2.520683e+01
2.321041e+02	-2.525058e+01
2.334447e+02	-2.530725e+01
2.347931e+02	-2.535536e+01
2.361493e+02	-2.540576e+01
2.375133e+02	-2.545458e+01
2.388851e+02	-2.550280e+01
2.402649e+02	-2.555770e+01
2.416527e+02	-2.560494e+01
2.430484e+02	-2.565339e+01
2.444523e+02	-2.570625e+01
2.458642e+02	-2.575490e+01
2.472843e+02	-2.580258e+01
2.487126e+02	-2.585129e+01
2.501492e+02	-2.590470e+01
2.515940e+02	-2.595396e+01
2.530472e+02	-2.600320e+01
2.545088e+02	-2.605188e+01
2.559789e+02	-2.610279e+01
2.574574e+02	-2.615343e+01
2.589444e+02	-2.620318e+01
2.604401e+02	-2.625192e+01
2.619444e+02	-2.630107e+01
2.634574e+02	-2.635161e+01
2.649791e+02	-2.640370e+01
2.665096e+02	-2.645043e+01
2.680489e+02	-2.650296e+01
2.695972e+02	-2.655037e+01
2.711544e+02	-2.660422e+01
2.727205e+02	-2.665455e+01
2.742958e+02	-2.670470e+01
2.758801e+02	-2.675223e+01
2.774736e+02	-2.680144e+01
2.790762e+02	-2.685014e+01
2.806882e+02	-2.690328e+01
2.823094e+02	-2.695182e+01
2.839400e+02	-2.700076e+01
2.855800e+02	-2.705704e+01
2.872295e+02	-2.710462e+01
2.888886e+02	-2.715662e+01
2.905572e+02	-2.720307e+01
2.922354e+02	-2.725401e+01
2.939234e+02	-2.730411e+01
2.956211e+02	-2.735429e+01
2.973286e+02	-2.740204e+01
2.990459e+02	-2.745110e+01
3.007732e+02	-2.750393e+01
3.025104e+02	-2.755512e+01
3.042577e+02	-2.760084e+01
3.060151e+02	-2.765256e+01
3.077826e+02	-2.770163e+01
3.095604e+02	-2.775100e+01
3.113484e+02	-2.780601e+01
3.131467e+02	-2.785232e+01
3.149554e+02	-2.790686e+01
3.167746e+02	-2.795212e+01
3.186043e+02	-2.800677e+01
3.204445e+02	-2.805389e+01
3.222954e+02	-2.810089e+01
3.241570e+02	-2.815473e+01
3.260293e+02	-2.820195e+01
3.279124e+02	-2.825577e+01
3.298064e+02	-2.830651e+01
3.317114e+02	-2.835355e+01
3.336273e+02	-2.840378e+01
3.355544e+02	-2.845205e+01
3.374925e+02	-2.850590e+01
3.394418e+02	-2.855377e+01
3.414024e+02	-2.860241e+01
3.433744e+02	-2.864877e+01
3.453577e+02	-2.870162e+01
3.473525e+02	-2.875636e+01
3.493588e+02	-2.880650e+01
3.513766e+02	-2.885014e+01
3.534062e+02	-2.890499e+01
3.554474e+02	-2.895540e+01
3.575005e+02	-2.900617e+01
3.595654e+02	-2.905683e+01
3.616422e+02	-2.910364e+01
3.637311e+02	-2.915756e+01
3.658320e+02	-2.920428e+01
3.679450e+02	-2.925786e+01
3.700702e+02	-2.930720e+01
3.722077e+02	-2.935619e+01
3.743576e+02	-2.940350e+01
3.765199e+02	-2.945255e+01
3.786946e+02	-2.950738e+01
3.808820e+02	-2.955535e+01
3.830819e+02	-2.960285e+01
3.852946e+02	-2.965051e+01
3.875200e+02	-2.970374e+01
3.897583e+02	-2.975348e+01
3.920096e+02	-2.980735e+01
3.942738e+02	-2.985993e+01
3.965511e+02	-2.990119e+01
3.988416e+02	-2.996130e+01
4.011452e+02	-3.000518e+01
4.034622e+02	-3.005457e+01
4.057926e+02	-3.011123e+01
4.081365e+02	-3.015797e+01
4.104938e+02	-3.020728e+01
4.128648e+02	-3.025768e+01
4.152495e+02	-3.030826e+01
4.176480e+02	-3.035687e+01
4.200603e+02	-3.040820e+01
4.224866e+02	-3.045838e+01
4.249268e+02	-3.050659e+01
4.273812e+02	-3.055549e+01
4.298497e+02	-3.060240e+01
4.323325e+02	-3.065823e+01
4.348297e+02	-3.070675e+01
4.373412e+02	-3.075299e+01
4.398673e+02	-3.081143e+01
4.424079e+02	-3.086134e+01
4.449633e+02	-3.090576e+01
4.475334e+02	-3.095673e+01
4.501183e+02	-3.101186e+01
4.527182e+02	-3.106176e+01
4.553330e+02	-3.111059e+01
4.579630e+02	-3.116000e+01
4.606082e+02	-3.121251e+01
4.632687e+02	-3.125699e+01
4.659445e+02	-3.131036e+01
4.686358e+02	-3.135546e+01
4.713426e+02	-3.140941e+01
4.740650e+02	-3.146087e+01
4.768032e+02	-3.151045e+01
4.795572e+02	-3.156361e+01
4.823271e+02	-3.161484e+01
4.851130e+02	-3.165746e+01
4.879150e+02	-3.171271e+01
4.907332e+02	-3.175766e+01
4.935676e+02	-3.181247e+01
4.964185e+02	-3.186240e+01
4.992858e+02	-3.191215e+01
5.021696e+02	-3.196411e+01
5.050701e+02	-3.200669e+01
5.079874e+02	-3.205554e+01
5.109215e+02	-3.210562e+01
5.138726e+02	-3.216506e+01
5.168407e+02	-3.220691e+01
5.198259e+02	-3.226499e+01
5.228284e+02	-3.231022e+01
5.258482e+02	-3.236156e+01
5.288855e+02	-3.241559e+01
5.319403e+02	-3.246779e+01
5.350128e+02	-3.251880e+01
5.381030e+02	-3.256088e+01
5.412111e+02	-3.260920e+01
5.443371e+02	-3.266080e+01
5.474812e+02	-3.271123e+01
5.506434e+02	-3.275977e+01
5.538239e+02	-3.281426e+01
5.570228e+02	-3.286759e+01
5.602401e+02	-3.291441e+01
5.634760e+02	-3.295967e+01
5.667306e+02	-3.301625e+01
5.700040e+02	-3.307067e+01
5.732964e+02	-3.311920e+01
5.766077e+02	-3.317080e+01
5.799382e+02	-3.321806e+01
5.832879e+02	-3.327314e+01
5.866569e+02	-3.332049e+01
5.900454e+02	-3.336190e+01
5.934535e+02	-3.341947e+01
5.968813e+02	-3.346397e+01
6.003288e+02	-3.351864e+01
6.037963e+02	-3.356805e+01
6.072838e+02	-3.361982e+01
6.107914e+02	-3.366782e+01
6.143194e+02	-3.371403e+01
6.178676e+02	-3.377676e+01
6.214364e+02	-3.381929e+01
6.250258e+02	-3.386993e+01
6.286359e+02	-3.391965e+01
6.322669e+02	-3.397060e+01
6.359189e+02	-3.402653e+01
6.395919e+02	-3.407391e+01
6.432862e+02	-3.410780e+01
6.470017e+02	-3.417556e+01
6.507388e+02	-3.422130e+01
6.544974e+02	-3.428124e+01
6.582778e+02	-3.431594e+01
6.620800e+02	-3.436683e+01
6.659041e+02	-3.442891e+01
6.697504e+02	-3.447451e+01
6.736188e+02	-3.452012e+01
6.775096e+02	-3.457245e+01
6.814229e+02	-3.463076e+01
6.853587e+02	-3.467060e+01
6.893173e+02	-3.472881e+01
6.932988e+02	-3.477909e+01
6.973033e+02	-3.482196e+01
7.013309e+02	-3.487443e+01
