Frequency(Hz)	Magnitude(dB)
1.000000e+01	-2.096186e+00
1.005776e+01	-2.115422e+00
1.011585e+01	-2.134923e+00
1.017428e+01	-2.154129e+00
1.023305e+01	-2.173963e+00
1.029215e+01	-2.193520e+00
1.035160e+01	-2.213313e+00
1.041139e+01	-2.233461e+00
1.047153e+01	-2.253795e+00
1.053201e+01	-2.274087e+00
1.059284e+01	-2.294448e+00
1.065403e+01	-2.315074e+00
1.071556e+01	-2.335808e+00
1.077746e+01	-2.356722e+00
1.083971e+01	-2.377795e+00
1.090232e+01	-2.398695e+00
1.096529e+01	-2.420354e+00
1.102862e+01	-2.441672e+00
1.109232e+01	-2.463199e+00
1.115639e+01	-2.484917e+00
1.122083e+01	-2.506947e+00
1.128564e+01	-2.528943e+00
1.135083e+01	-2.551067e+00
1.141639e+01	-2.573375e+00
1.148233e+01	-2.595849e+00
1.154865e+01	-2.618412e+00
1.161536e+01	-2.641117e+00
1.168245e+01	-2.663937e+00
1.174992e+01	-2.686886e+00
1.181779e+01	-2.709953e+00
1.188605e+01	-2.733087e+00
1.195470e+01	-2.756739e+00
1.202375e+01	-2.780274e+00
1.209320e+01	-2.803913e+00
1.216305e+01	-2.827949e+00
1.223330e+01	-2.851746e+00
1.230396e+01	-2.876054e+00
1.237503e+01	-2.900361e+00
1.244651e+01	-2.924919e+00
1.251840e+01	-2.949644e+00
1.259070e+01	-2.974111e+00
1.266343e+01	-2.998891e+00
1.273657e+01	-3.024021e+00
1.281014e+01	-3.049253e+00
1.288413e+01	-3.074787e+00
1.295855e+01	-3.100032e+00
1.303339e+01	-3.125570e+00
1.310867e+01	-3.151301e+00
1.318439e+01	-3.177200e+00
1.326054e+01	-3.203362e+00
1.333713e+01	-3.229250e+00
1.341417e+01	-3.255586e+00
1.349165e+01	-3.282224e+00
1.356958e+01	-3.308713e+00
1.364795e+01	-3.335323e+00
1.372678e+01	-3.362411e+00
1.380607e+01	-3.389428e+00
1.388581e+01	-3.416506e+00
1.396602e+01	-3.444072e+00
1.404668e+01	-3.471556e+00
1.412782e+01	-3.499116e+00
1.420942e+01	-3.526803e+00
1.429149e+01	-3.554589e+00
1.437404e+01	-3.582759e+00
1.445706e+01	-3.611075e+00
1.454057e+01	-3.639127e+00
1.462455e+01	-3.667504e+00
1.470902e+01	-3.696308e+00
1.479398e+01	-3.725010e+00
1.487943e+01	-3.753749e+00
1.496537e+01	-3.782732e+00
1.505181e+01	-3.811997e+00
1.513875e+01	-3.841565e+00
1.522619e+01	-3.870488e+00
1.531414e+01	-3.900204e+00
1.540259e+01	-3.930037e+00
1.549156e+01	-3.959704e+00
1.558103e+01	-3.989798e+00
1.567103e+01	-4.019919e+00
1.576155e+01	-4.050440e+00
1.585258e+01	-4.080776e+00
1.594415e+01	-4.111130e+00
1.603624e+01	-4.141916e+00
1.612886e+01	-4.172520e+00
1.622202e+01	-4.203745e+00
1.631572e+01	-4.234808e+00
1.640996e+01	-4.265955e+00
1.650474e+01	-4.297535e+00
1.660008e+01	-4.328529e+00
1.669596e+01	-4.360631e+00
1.679239e+01	-4.392170e+00
1.688938e+01	-4.424131e+00
1.698694e+01	-4.456275e+00
1.708505e+01	-4.488601e+00
1.718373e+01	-4.520947e+00
1.728299e+01	-4.553241e+00
1.738281e+01	-4.585770e+00
1.748322e+01	-4.618468e+00
1.758420e+01	-4.651040e+00
1.768576e+01	-4.684234e+00
1.778792e+01	-4.717352e+00
1.789066e+01	-4.750361e+00
1.799399e+01	-4.783900e+00
1.809793e+01	-4.817189e+00
1.820246e+01	-4.850995e+00
1.830760e+01	-4.884534e+00
1.841334e+01	-4.918154e+00
1.851969e+01	-4.952206e+00
1.862666e+01	-4.986549e+00
1.873425e+01	-5.020974e+00
1.884246e+01	-5.055179e+00
1.895129e+01	-5.089315e+00
1.906075e+01	-5.124054e+00
1.917085e+01	-5.158594e+00
1.928158e+01	-5.193536e+00
1.939295e+01	-5.228356e+00
1.950496e+01	-5.263481e+00
1.961762e+01	-5.298394e+00
1.973093e+01	-5.334185e+00
1.984490e+01	-5.369468e+00
1.995952e+01	-5.404935e+00
2.007480e+01	-5.440622e+00
2.019076e+01	-5.476804e+00
2.030738e+01	-5.512195e+00
2.042467e+01	-5.548691e+00
2.054264e+01	-5.584587e+00
2.066130e+01	-5.620708e+00
2.078064e+01	-5.657326e+00
2.090066e+01	-5.693836e+00
2.102139e+01	-5.730293e+00
2.114280e+01	-5.766625e+00
2.126492e+01	-5.803538e+00
2.138775e+01	-5.840733e+00
2.151128e+01	-5.877923e+00
2.163553e+01	-5.915084e+00
2.176050e+01	-5.952413e+00
2.188619e+01	-5.989795e+00
2.201260e+01	-6.027098e+00
2.213974e+01	-6.064659e+00
2.226762e+01	-6.102120e+00
2.239624e+01	-6.140309e+00
2.252560e+01	-6.178544e+00
2.265571e+01	-6.216201e+00
2.278656e+01	-6.254594e+00
2.291818e+01	-6.292246e+00
2.305055e+01	-6.330944e+00
2.318369e+01	-6.369183e+00
2.331760e+01	-6.407768e+00
2.345228e+01	-6.446508e+00
2.358774e+01	-6.485043e+00
2.372398e+01	-6.524080e+00
2.386101e+01	-6.562869e+00
2.399883e+01	-6.602289e+00
2.413745e+01	-6.641082e+00
2.427686e+01	-6.680478e+00
2.441709e+01	-6.719755e+00
2.455812e+01	-6.759203e+00
2.469997e+01	-6.798822e+00
2.484263e+01	-6.838689e+00
2.498612e+01	-6.877755e+00
2.513044e+01	-6.917722e+00
2.527559e+01	-6.957837e+00
2.542158e+01	-6.997568e+00
2.556842e+01	-7.037692e+00
2.571610e+01	-7.078040e+00
2.586463e+01	-7.118427e+00
2.601403e+01	-7.158708e+00
2.616428e+01	-7.198742e+00
2.631541e+01	-7.239371e+00
2.646740e+01	-7.280183e+00
2.662028e+01	-7.320530e+00
2.677404e+01	-7.361734e+00
2.692868e+01	-7.402077e+00
2.708422e+01	-7.443924e+00
2.724066e+01	-7.484938e+00
2.739800e+01	-7.525363e+00
2.755625e+01	-7.566811e+00
2.771541e+01	-7.608265e+00
2.787550e+01	-7.649522e+00
2.803650e+01	-7.691035e+00
2.819844e+01	-7.732833e+00
2.836131e+01	-7.774530e+00
2.852513e+01	-7.816128e+00
2.868989e+01	-7.858073e+00
2.885560e+01	-7.899802e+00
2.902227e+01	-7.942181e+00
2.918990e+01	-7.983958e+00
2.935850e+01	-8.025581e+00
2.952807e+01	-8.068232e+00
2.969863e+01	-8.110351e+00
2.987016e+01	-8.152648e+00
3.004269e+01	-8.194992e+00
3.021622e+01	-8.237681e+00
3.039075e+01	-8.280377e+00
3.056628e+01	-8.322355e+00
3.074283e+01	-8.365372e+00
3.092040e+01	-8.408153e+00
3.109900e+01	-8.451344e+00
3.127862e+01	-8.494037e+00
3.145929e+01	-8.536709e+00
3.164099e+01	-8.579874e+00
3.182375e+01	-8.623353e+00
3.200756e+01	-8.666138e+00
3.219244e+01	-8.709259e+00
3.237838e+01	-8.752776e+00
3.256540e+01	-8.796343e+00
3.275349e+01	-8.839418e+00
3.294268e+01	-8.883211e+00
3.313295e+01	-8.927061e+00
3.332433e+01	-8.970410e+00
3.351681e+01	-9.014666e+00
3.371040e+01	-9.057690e+00
3.390511e+01	-9.101706e+00
3.410094e+01	-9.145554e+00
3.429791e+01	-9.189440e+00
3.449601e+01	-9.233480e+00
3.469526e+01	-9.277777e+00
3.489566e+01	-9.322200e+00
3.509721e+01	-9.365570e+00
3.529993e+01	-9.410177e+00
3.550382e+01	-9.454972e+00
3.570889e+01	-9.499016e+00
3.591515e+01	-9.543548e+00
3.612259e+01	-9.588034e+00
3.633123e+01	-9.632703e+00
3.654108e+01	-9.677489e+00
3.675214e+01	-9.721656e+00
3.696442e+01	-9.766482e+00
3.717792e+01	-9.811441e+00
3.739266e+01	-9.856423e+00
3.760864e+01	-9.900522e+00
3.782587e+01	-9.945901e+00
3.804435e+01	-9.991207e+00
3.826409e+01	-1.003626e+01
3.848510e+01	-1.008092e+01
3.870739e+01	-1.012617e+01
3.893096e+01	-1.017115e+01
3.915583e+01	-1.021630e+01
3.938199e+01	-1.026215e+01
3.960946e+01	-1.030725e+01
3.983824e+01	-1.035256e+01
4.006834e+01	-1.039752e+01
4.029978e+01	-1.044358e+01
4.053255e+01	-1.048940e+01
4.076666e+01	-1.053474e+01
4.100213e+01	-1.057990e+01
4.123896e+01	-1.062641e+01
4.147715e+01	-1.067142e+01
4.171672e+01	-1.071773e+01
4.195767e+01	-1.076323e+01
4.220002e+01	-1.080917e+01
4.244377e+01	-1.085488e+01
4.268892e+01	-1.090038e+01
4.293549e+01	-1.094737e+01
4.318348e+01	-1.099277e+01
4.343291e+01	-1.103900e+01
4.368377e+01	-1.108527e+01
4.393609e+01	-1.113160e+01
4.418986e+01	-1.117756e+01
4.444510e+01	-1.122396e+01
4.470182e+01	-1.126966e+01
4.496001e+01	-1.131587e+01
4.521970e+01	-1.136246e+01
4.548089e+01	-1.140868e+01
4.574358e+01	-1.145522e+01
4.600779e+01	-1.150190e+01
4.627353e+01	-1.154857e+01
4.654081e+01	-1.159460e+01
4.680963e+01	-1.164112e+01
4.708000e+01	-1.168825e+01
4.735193e+01	-1.173484e+01
4.762543e+01	-1.178174e+01
4.790051e+01	-1.182788e+01
4.817719e+01	-1.187495e+01
4.845545e+01	-1.192150e+01
4.873533e+01	-1.196852e+01
4.901682e+01	-1.201597e+01
4.929994e+01	-1.206259e+01
4.958470e+01	-1.210944e+01
4.987110e+01	-1.215665e+01
5.015915e+01	-1.220269e+01
5.044887e+01	-1.225051e+01
5.074026e+01	-1.229751e+01
5.103333e+01	-1.234388e+01
5.132810e+01	-1.239198e+01
5.162457e+01	-1.243793e+01
5.192275e+01	-1.248590e+01
5.222265e+01	-1.253315e+01
5.252429e+01	-1.258082e+01
5.282767e+01	-1.262794e+01
5.313280e+01	-1.267455e+01
5.343969e+01	-1.272291e+01
5.374836e+01	-1.276996e+01
5.405880e+01	-1.281678e+01
5.437105e+01	-1.286450e+01
5.468509e+01	-1.291230e+01
5.500095e+01	-1.295934e+01
5.531863e+01	-1.300712e+01
5.563815e+01	-1.305458e+01
5.595951e+01	-1.310146e+01
5.628273e+01	-1.314954e+01
5.660782e+01	-1.319720e+01
5.693479e+01	-1.324461e+01
5.726364e+01	-1.329247e+01
5.759439e+01	-1.334055e+01
5.792705e+01	-1.338782e+01
5.826164e+01	-1.343561e+01
5.859815e+01	-1.348370e+01
5.893662e+01	-1.353168e+01
5.927703e+01	-1.357910e+01
5.961941e+01	-1.362725e+01
5.996377e+01	-1.367463e+01
6.031012e+01	-1.372259e+01
6.065847e+01	-1.377168e+01
6.100883e+01	-1.381830e+01
6.136121e+01	-1.386702e+01
6.171563e+01	-1.391546e+01
6.207210e+01	-1.396256e+01
6.243063e+01	-1.401085e+01
6.279122e+01	-1.405851e+01
6.315390e+01	-1.410708e+01
6.351868e+01	-1.415473e+01
6.388556e+01	-1.420214e+01
6.425456e+01	-1.425113e+01
6.462569e+01	-1.429947e+01
6.499897e+01	-1.434741e+01
6.537440e+01	-1.439515e+01
6.575200e+01	-1.444437e+01
6.613178e+01	-1.449275e+01
6.651375e+01	-1.453993e+01
6.689793e+01	-1.458866e+01
6.728433e+01	-1.463719e+01
6.767297e+01	-1.468513e+01
6.806384e+01	-1.473458e+01
6.845698e+01	-1.478225e+01
6.885238e+01	-1.482990e+01
6.925007e+01	-1.487818e+01
6.965005e+01	-1.492744e+01
7.005235e+01	-1.497520e+01
7.045697e+01	-1.502571e+01
7.086393e+01	-1.507147e+01
7.127323e+01	-1.512116e+01
7.168490e+01	-1.516967e+01
7.209895e+01	-1.521779e+01
7.251539e+01	-1.526618e+01
7.293424e+01	-1.531447e+01
7.335551e+01	-1.536427e+01
7.377920e+01	-1.541200e+01
7.420535e+01	-1.546058e+01
7.463396e+01	-1.550941e+01
7.506504e+01	-1.555811e+01
7.549861e+01	-1.560729e+01
7.593469e+01	-1.565574e+01
7.637328e+01	-1.570395e+01
7.681441e+01	-1.575411e+01
7.725809e+01	-1.580132e+01
7.770433e+01	-1.584917e+01
7.815315e+01	-1.589992e+01
7.860456e+01	-1.594805e+01
7.905857e+01	-1.599715e+01
7.951521e+01	-1.604573e+01
7.997449e+01	-1.609298e+01
8.043642e+01	-1.614266e+01
8.090102e+01	-1.619110e+01
8.136830e+01	-1.624038e+01
8.183828e+01	-1.628923e+01
8.231097e+01	-1.633860e+01
8.278640e+01	-1.638730e+01
8.326457e+01	-1.643626e+01
8.374550e+01	-1.648429e+01
8.422921e+01	-1.653417e+01
8.471572e+01	-1.658270e+01
8.520503e+01	-1.663082e+01
8.569717e+01	-1.668104e+01
8.619215e+01	-1.672955e+01
8.669000e+01	-1.677929e+01
8.719071e+01	-1.682766e+01
8.769432e+01	-1.687628e+01
8.820084e+01	-1.692552e+01
8.871029e+01	-1.697383e+01
8.922267e+01	-1.702432e+01
8.973802e+01	-1.707211e+01
9.025634e+01	-1.712008e+01
9.077766e+01	-1.717076e+01
9.130199e+01	-1.721958e+01
9.182935e+01	-1.726967e+01
9.235975e+01	-1.731791e+01
9.289321e+01	-1.736771e+01
9.342976e+01	-1.741665e+01
9.396941e+01	-1.746570e+01
9.451217e+01	-1.751427e+01
9.505807e+01	-1.756364e+01
9.560712e+01	-1.761291e+01
9.615934e+01	-1.766167e+01
9.671476e+01	-1.771194e+01
9.727338e+01	-1.776044e+01
9.783522e+01	-1.780976e+01
9.840032e+01	-1.785851e+01
9.896867e+01	-1.790813e+01
9.954031e+01	-1.795680e+01
1.001153e+02	-1.800666e+01
1.006935e+02	-1.805561e+01
1.012751e+02	-1.810462e+01
1.018601e+02	-1.815420e+01
1.024484e+02	-1.820450e+01
1.030402e+02	-1.825373e+01
1.036353e+02	-1.830104e+01
1.042339e+02	-1.835089e+01
1.048360e+02	-1.840004e+01
1.054415e+02	-1.845022e+01
1.060505e+02	-1.849996e+01
1.066631e+02	-1.854966e+01
1.072791e+02	-1.859722e+01
1.078988e+02	-1.864637e+01
1.085220e+02	-1.869627e+01
1.091488e+02	-1.874539e+01
1.097793e+02	-1.879370e+01
1.104133e+02	-1.884524e+01
1.110511e+02	-1.889310e+01
1.116925e+02	-1.894362e+01
1.123376e+02	-1.899282e+01
1.129865e+02	-1.904269e+01
1.136391e+02	-1.909081e+01
1.142955e+02	-1.913999e+01
1.149556e+02	-1.919034e+01
1.156196e+02	-1.924007e+01
1.162874e+02	-1.928891e+01
1.169591e+02	-1.933909e+01
1.176347e+02	-1.938845e+01
1.183141e+02	-1.943759e+01
1.189975e+02	-1.948808e+01
1.196848e+02	-1.953531e+01
1.203761e+02	-1.958535e+01
1.210714e+02	-1.963472e+01
1.217707e+02	-1.968499e+01
1.224740e+02	-1.973397e+01
1.231814e+02	-1.978428e+01
1.238929e+02	-1.983360e+01
1.246085e+02	-1.988469e+01
1.253283e+02	-1.993274e+01
1.260522e+02	-1.998217e+01
1.267802e+02	-2.003142e+01
1.275125e+02	-2.008120e+01
1.282490e+02	-2.013069e+01
1.289898e+02	-2.018116e+01
1.297348e+02	-2.022993e+01
1.304842e+02	-2.027973e+01
1.312378e+02	-2.033126e+01
1.319959e+02	-2.037909e+01
1.327583e+02	-2.042639e+01
1.335251e+02	-2.047991e+01
1.342963e+02	-2.052685e+01
1.350720e+02	-2.057815e+01
1.358522e+02	-2.062623e+01
1.366368e+02	-2.067651e+01
1.374260e+02	-2.072736e+01
1.382198e+02	-2.077681e+01
1.390182e+02	-2.082686e+01
1.398211e+02	-2.087577e+01
1.406287e+02	-2.092362e+01
1.414410e+02	-2.097351e+01
1.422579e+02	-2.102351e+01
1.430796e+02	-2.107178e+01
1.439060e+02	-2.112158e+01
1.447372e+02	-2.117367e+01
1.455732e+02	-2.122249e+01
1.464141e+02	-2.127257e+01
1.472597e+02	-2.132188e+01
1.481103e+02	-2.137092e+01
1.489658e+02	-2.142057e+01
1.498262e+02	-2.147210e+01
1.506916e+02	-2.152029e+01
1.515620e+02	-2.157009e+01
1.524374e+02	-2.161886e+01
1.533179e+02	-2.166853e+01
1.542034e+02	-2.171772e+01
1.550941e+02	-2.177030e+01
1.559899e+02	-2.181976e+01
1.568909e+02	-2.186841e+01
1.577971e+02	-2.191873e+01
1.587085e+02	-2.196765e+01
1.596252e+02	-2.201649e+01
1.605472e+02	-2.206666e+01
1.614745e+02	-2.211789e+01
1.624072e+02	-2.216487e+01
1.633453e+02	-2.221692e+01
1.642887e+02	-2.226779e+01
1.652377e+02	-2.231756e+01
1.661921e+02	-2.236806e+01
1.671520e+02	-2.241704e+01
1.681175e+02	-2.246354e+01
1.690885e+02	-2.251508e+01
1.700651e+02	-2.256560e+01
1.710474e+02	-2.261365e+01
1.720354e+02	-2.266255e+01
1.730291e+02	-2.271491e+01
1.740285e+02	-2.276509e+01
1.750337e+02	-2.281333e+01
1.760446e+02	-2.286230e+01
1.770615e+02	-2.291294e+01
1.780842e+02	-2.296404e+01
1.791128e+02	-2.301225e+01
1.801473e+02	-2.306285e+01
1.811878e+02	-2.311171e+01
1.822344e+02	-2.316282e+01
1.832870e+02	-2.321229e+01
1.843456e+02	-2.326035e+01
1.854104e+02	-2.331308e+01
1.864813e+02	-2.335968e+01
1.875584e+02	-2.341015e+01
1.886418e+02	-2.346124e+01
1.897313e+02	-2.351210e+01
1.908272e+02	-2.355949e+01
1.919294e+02	-2.361009e+01
1.930380e+02	-2.366217e+01
1.941530e+02	-2.371071e+01
1.952744e+02	-2.376079e+01
1.964023e+02	-2.381175e+01
1.975367e+02	-2.386075e+01
1.986777e+02	-2.390866e+01
1.998252e+02	-2.395985e+01
2.009794e+02	-2.400864e+01
2.021403e+02	-2.406057e+01
2.033078e+02	-2.410874e+01
2.044821e+02	-2.415870e+01
2.056632e+02	-2.420933e+01
2.068511e+02	-2.425976e+01
2.080459e+02	-2.430862e+01
2.092475e+02	-2.435950e+01
2.104561e+02	-2.440869e+01
2.116717e+02	-2.445619e+01
2.128943e+02	-2.450717e+01
2.141240e+02	-2.455891e+01
2.153608e+02	-2.460728e+01
2.166047e+02	-2.465527e+01
2.178558e+02	-2.470679e+01
2.191141e+02	-2.475597e+01
2.203797e+02	-2.480588e+01
2.216526e+02	-2.485411e+01
2.229329e+02	-2.490909e+01
2.242205e+02	-2.495679e+01
2.255156e+02	-2.500796e+01
2.268182e+02	-2.505876e+01
2.281283e+02	-2.510580e+01
2.294459e+02	-2.515726e+01
2.307712e+02	-2.520759e+01
2.321041e+02	-2.525708e+01
2.334447e+02	-2.530774e+01
2.347931e+02	-2.535728e+01
2.361493e+02	-2.540628e+01
2.375133e+02	-2.545650e+01
2.388851e+02	-2.550632e+01
2.402649e+02	-2.555522e+01
2.416527e+02	-2.560693e+01
2.430484e+02	-2.565613e+01
2.444523e+02	-2.570495e+01
2.458642e+02	-2.575341e+01
2.472843e+02	-2.580690e+01
2.487126e+02	-2.585347e+01
2.501492e+02	-2.590560e+01
2.515940e+02	-2.595404e+01
2.530472e+02	-2.600563e+01
2.545088e+02	-2.605730e+01
2.559789e+02	-2.610675e+01
2.574574e+02	-2.615473e+01
2.589444e+02	-2.620370e+01
2.604401e+02	-2.625796e+01
2.619444e+02	-2.630494e+01
2.634574e+02	-2.635888e+01
2.649791e+02	-2.640399e+01
2.665096e+02	-2.645148e+01
2.680489e+02	-2.650832e+01
2.695972e+02	-2.655589e+01
2.711544e+02	-2.660223e+01
2.727205e+02	-2.665643e+01
2.742958e+02	-2.670409e+01
2.758801e+02	-2.675397e+01
2.774736e+02	-2.680354e+01
2.790762e+02	-2.685253e+01
2.806882e+02	-2.690154e+01
2.823094e+02	-2.695542e+01
2.839400e+02	-2.700265e+01
2.855800e+02	-2.705451e+01
2.872295e+02	-2.710451e+01
2.888886e+02	-2.715502e+01
2.905572e+02	-2.720501e+01
2.922354e+02	-2.725660e+01
2.939234e+02	-2.730517e+01
2.956211e+02	-2.735582e+01
2.973286e+02	-2.740298e+01
2.990459e+02	-2.745589e+01
3.007732e+02	-2.750660e+01
3.025104e+02	-2.755310e+01
3.042577e+02	-2.760298e+01
3.060151e+02	-2.765022e+01
3.077826e+02	-2.770259e+01
3.095604e+02	-2.775025e+01
3.113484e+02	-2.780295e+01
3.131467e+02	-2.785638e+01
3.149554e+02	-2.790173e+01
3.167746e+02	-2.795354e+01
3.186043e+02	-2.800274e+01
3.204445e+02	-2.805114e+01
3.222954e+02	-2.810620e+01
3.241570e+02	-2.815956e+01
3.260293e+02	-2.820685e+01
3.279124e+02	-2.825384e+01
3.298064e+02	-2.830580e+01
3.317114e+02	-2.835568e+01
3.336273e+02	-2.840513e+01
3.355544e+02	-2.845619e+01
3.374925e+02	-2.850336e+01
3.394418e+02	-2.855385e+01
3.414024e+02	-2.860520e+01
3.433744e+02	-2.865508e+01
3.453577e+02	-2.871053e+01
3.473525e+02	-2.875617e+01
3.493588e+02	-2.880737e+01
3.513766e+02	-2.885994e+01
3.534062e+02	-2.890246e+01
3.554474e+02	-2.895469e+01
3.575005e+02	-2.900562e+01
3.595654e+02	-2.905573e+01
3.616422e+02	-2.910239e+01
3.637311e+02	-2.915576e+01
3.658320e+02	-2.920639e+01
3.679450e+02	-2.925651e+01
3.700702e+02	-2.930731e+01
3.722077e+02	-2.935528e+01
3.743576e+02	-2.940834e+01
3.765199e+02	-2.945786e+01
3.786946e+02	-2.950861e+01
3.808820e+02	-2.955915e+01
3.830819e+02	-2.960927e+01
3.852946e+02	-2.965954e+01
3.875200e+02	-2.970969e+01
3.897583e+02	-2.975342e+01
3.920096e+02	-2.980862e+01
3.942738e+02	-2.985645e+01
3.965511e+02	-2.990820e+01
3.988416e+02	-2.995620e+01
4.011452e+02	-3.000445e+01
4.034622e+02	-3.006106e+01
4.057926e+02	-3.010574e+01
4.081365e+02	-3.015995e+01
4.104938e+02	-3.020638e+01
4.128648e+02	-3.025605e+01
4.152495e+02	-3.030414e+01
4.176480e+02	-3.036048e+01
4.200603e+02	-3.040812e+01
4.224866e+02	-3.045582e+01
4.249268e+02	-3.050334e+01
4.273812e+02	-3.055257e+01
4.298497e+02	-3.060995e+01
4.323325e+02	-3.065446e+01
4.348297e+02	-3.070563e+01
4.373412e+02	-3.076421e+01
4.398673e+02	-3.080605e+01
4.424079e+02	-3.086525e+01
4.449633e+02	-3.091177e+01
4.475334e+02	-3.096047e+01
4.501183e+02	-3.101426e+01
4.527182e+02	-3.106071e+01
4.553330e+02	-3.110357e+01
4.579630e+02	-3.116196e+01
4.606082e+02	-3.121084e+01
4.632687e+02	-3.126230e+01
4.659445e+02	-3.131188e+01
4.686358e+02	-3.135358e+01
4.713426e+02	-3.141712e+01
4.740650e+02	-3.146117e+01
4.768032e+02	-3.151163e+01
4.795572e+02	-3.155823e+01
4.823271e+02	-3.161235e+01
4.851130e+02	-3.165701e+01
4.879150e+02	-3.171567e+01
4.907332e+02	-3.176026e+01
4.935676e+02	-3.180976e+01
4.964185e+02	-3.186528e+01
4.992858e+02	-3.191703e+01
5.021696e+02	-3.196082e+01
5.050701e+02	-3.201346e+01
5.079874e+02	-3.205706e+01
5.109215e+02	-3.211472e+01
5.138726e+02	-3.215908e+01
5.168407e+02	-3.221675e+01
5.198259e+02	-3.226297e+01
5.228284e+02	-3.231775e+01
5.258482e+02	-3.236585e+01
5.288855e+02	-3.241362e+01
5.319403e+02	-3.246481e+01
5.350128e+02	-3.251793e+01
5.381030e+02	-3.256794e+01
5.412111e+02	-3.262041e+01
5.443371e+02	-3.266359e+01
5.474812e+02	-3.272018e+01
5.506434e+02	-3.276447e+01
5.538239e+02	-3.282030e+01
5.570228e+02	-3.286661e+01
5.602401e+02	-3.290902e+01
5.634760e+02	-3.296161e+01
5.667306e+02	-3.301981e+01
5.700040e+02	-3.306907e+01
5.732964e+02	-3.311745e+01
5.766077e+02	-3.316469e+01
5.799382e+02	-3.321729e+01
5.832879e+02	-3.326873e+01
5.866569e+02	-3.332351e+01
5.900454e+02	-3.337202e+01
5.934535e+02	-3.341624e+01
5.968813e+02	-3.346751e+01
6.003288e+02	-3.352050e+01
6.037963e+02	-3.357054e+01
6.072838e+02	-3.361599e+01
6.107914e+02	-3.367308e+01
6.143194e+02	-3.372615e+01
6.178676e+02	-3.376735e+01
6.214364e+02	-3.382142e+01
6.250258e+02	-3.387335e+01
6.286359e+02	-3.392778e+01
6.322669e+02	-3.397274e+01
6.359189e+02	-3.401693e+01
6.395919e+02	-3.407009e+01
6.432862e+02	-3.412095e+01
6.470017e+02	-3.416873e+01
6.507388e+02	-3.421816e+01
6.544974e+02	-3.427280e+01
6.582778e+02	-3.432780e+01
6.620800e+02	-3.437473e+01
6.659041e+02	-3.442187e+01
6.697504e+02	-3.447644e+01
6.736188e+02	-3.451825e+01
6.775096e+02	-3.458137e+01
6.814229e+02	-3.462025e+01
6.853587e+02	-3.466700e+01
6.893173e+02	-3.472849e+01
6.932988e+02	-3.477139e+01
6.973033e+02	-3.482862e+01
7.013309e+02	-3.488398e+01
