Frequency(Hz)	Magnitude(dB)
1.000000e+01	-1.952734e+00
1.005776e+01	-1.970690e+00
1.011585e+01	-1.989060e+00
1.017428e+01	-2.007694e+00
1.023305e+01	-2.026218e+00
1.029215e+01	-2.045010e+00
1.035160e+01	-2.063416e+00
1.041139e+01	-2.082835e+00
1.047153e+01	-2.101914e+00
1.053201e+01	-2.121377e+00
1.059284e+01	-2.140657e+00
1.065403e+01	-2.160151e+00
1.071556e+01	-2.179892e+00
1.077746e+01	-2.199601e+00
1.083971e+01	-2.219599e+00
1.090232e+01	-2.239652e+00
1.096529e+01	-2.260066e+00
1.102862e+01	-2.280243e+00
1.109232e+01	-2.300596e+00
1.115639e+01	-2.321335e+00
1.122083e+01	-2.341999e+00
1.128564e+01	-2.362974e+00
1.135083e+01	-2.384046e+00
1.141639e+01	-2.405406e+00
1.148233e+01	-2.426637e+00
1.154865e+01	-2.448100e+00
1.161536e+01	-2.469936e+00
1.168245e+01	-2.491623e+00
1.174992e+01	-2.513342e+00
1.181779e+01	-2.535378e+00
1.188605e+01	-2.557632e+00
1.195470e+01	-2.580026e+00
1.202375e+01	-2.602381e+00
1.209320e+01	-2.625246e+00
1.216305e+01	-2.647874e+00
1.223330e+01	-2.670753e+00
1.230396e+01	-2.693891e+00
1.237503e+01	-2.717098e+00
1.244651e+01	-2.740271e+00
1.251840e+01	-2.763888e+00
1.259070e+01	-2.787327e+00
1.266343e+01	-2.811321e+00
1.273657e+01	-2.835042e+00
1.281014e+01	-2.859454e+00
1.288413e+01	-2.883179e+00
1.295855e+01	-2.907605e+00
1.303339e+01	-2.932304e+00
1.310867e+01	-2.956833e+00
1.318439e+01	-2.981652e+00
1.326054e+01	-3.006814e+00
1.333713e+01	-3.031463e+00
1.341417e+01	-3.056857e+00
1.349165e+01	-3.081835e+00
1.356958e+01	-3.107529e+00
1.364795e+01	-3.133166e+00
1.372678e+01	-3.159007e+00
1.380607e+01	-3.184928e+00
1.388581e+01	-3.211294e+00
1.396602e+01	-3.237352e+00
1.404668e+01	-3.263502e+00
1.412782e+01	-3.290050e+00
1.420942e+01	-3.316860e+00
1.429149e+01	-3.343333e+00
1.437404e+01	-3.370591e+00
1.445706e+01	-3.397588e+00
1.454057e+01	-3.425064e+00
1.462455e+01	-3.452122e+00
1.470902e+01	-3.479776e+00
1.479398e+01	-3.507259e+00
1.487943e+01	-3.535498e+00
1.496537e+01	-3.563127e+00
1.505181e+01	-3.590966e+00
1.513875e+01	-3.619245e+00
1.522619e+01	-3.647597e+00
1.531414e+01	-3.676539e+00
1.540259e+01	-3.705086e+00
1.549156e+01	-3.733541e+00
1.558103e+01	-3.762745e+00
1.567103e+01	-3.791632e+00
1.576155e+01	-3.820734e+00
1.585258e+01	-3.850210e+00
1.594415e+01	-3.879722e+00
1.603624e+01	-3.909180e+00
1.612886e+01	-3.939031e+00
1.622202e+01	-3.969033e+00
1.631572e+01	-3.998926e+00
1.640996e+01	-4.029114e+00
1.650474e+01	-4.059533e+00
1.660008e+01	-4.089797e+00
1.669596e+01	-4.120356e+00
1.679239e+01	-4.151278e+00
1.688938e+01	-4.181974e+00
1.698694e+01	-4.212978e+00
1.708505e+01	-4.244113e+00
1.718373e+01	-4.275715e+00
1.728299e+01	-4.306664e+00
1.738281e+01	-4.338288e+00
1.748322e+01	-4.370101e+00
1.758420e+01	-4.401882e+00
1.768576e+01	-4.433773e+00
1.778792e+01	-4.465887e+00
1.789066e+01	-4.497958e+00
1.799399e+01	-4.530643e+00
1.809793e+01	-4.562744e+00
1.820246e+01	-4.595734e+00
1.830760e+01	-4.628012e+00
1.841334e+01	-4.660756e+00
1.851969e+01	-4.693794e+00
1.862666e+01	-4.726985e+00
1.873425e+01	-4.760267e+00
1.884246e+01	-4.794023e+00
1.895129e+01	-4.827261e+00
1.906075e+01	-4.860847e+00
1.917085e+01	-4.894503e+00
1.928158e+01	-4.928366e+00
1.939295e+01	-4.962788e+00
1.950496e+01	-4.996778e+00
1.961762e+01	-5.030805e+00
1.973093e+01	-5.065459e+00
1.984490e+01	-5.099608e+00
1.995952e+01	-5.134465e+00
2.007480e+01	-5.168960e+00
2.019076e+01	-5.204168e+00
2.030738e+01	-5.239113e+00
2.042467e+01	-5.274149e+00
2.054264e+01	-5.309279e+00
2.066130e+01	-5.344590e+00
2.078064e+01	-5.380080e+00
2.090066e+01	-5.415684e+00
2.102139e+01	-5.451552e+00
2.114280e+01	-5.487158e+00
2.126492e+01	-5.523270e+00
2.138775e+01	-5.559323e+00
2.151128e+01	-5.595412e+00
2.163553e+01	-5.631829e+00
2.176050e+01	-5.668047e+00
2.188619e+01	-5.704925e+00
2.201260e+01	-5.741233e+00
2.213974e+01	-5.777846e+00
2.226762e+01	-5.814993e+00
2.239624e+01	-5.851485e+00
2.252560e+01	-5.888717e+00
2.265571e+01	-5.925949e+00
2.278656e+01	-5.963297e+00
2.291818e+01	-6.000826e+00
2.305055e+01	-6.038455e+00
2.318369e+01	-6.075993e+00
2.331760e+01	-6.114070e+00
2.345228e+01	-6.151703e+00
2.358774e+01	-6.189199e+00
2.372398e+01	-6.227761e+00
2.386101e+01	-6.265607e+00
2.399883e+01	-6.303709e+00
2.413745e+01	-6.342690e+00
2.427686e+01	-6.381433e+00
2.441709e+01	-6.419316e+00
2.455812e+01	-6.458330e+00
2.469997e+01	-6.496609e+00
2.484263e+01	-6.535549e+00
2.498612e+01	-6.574500e+00
2.513044e+01	-6.613586e+00
2.527559e+01	-6.652904e+00
2.542158e+01	-6.692060e+00
2.556842e+01	-6.731424e+00
2.571610e+01	-6.770939e+00
2.586463e+01	-6.810509e+00
2.601403e+01	-6.850013e+00
2.616428e+01	-6.889751e+00
2.631541e+01	-6.930102e+00
2.646740e+01	-6.969545e+00
2.662028e+01	-7.009549e+00
2.677404e+01	-7.049828e+00
2.692868e+01	-7.089834e+00
2.708422e+01	-7.130347e+00
2.724066e+01	-7.170521e+00
2.739800e+01	-7.211239e+00
2.755625e+01	-7.251662e+00
2.771541e+01	-7.292251e+00
2.787550e+01	-7.333193e+00
2.803650e+01	-7.373745e+00
2.819844e+01	-7.414802e+00
2.836131e+01	-7.455821e+00
2.852513e+01	-7.496574e+00
2.868989e+01	-7.538355e+00
2.885560e+01	-7.579531e+00
2.902227e+01	-7.620209e+00
2.918990e+01	-7.662304e+00
2.935850e+01	-7.703855e+00
2.952807e+01	-7.745094e+00
2.969863e+01	-7.786804e+00
2.987016e+01	-7.828454e+00
3.004269e+01	-7.870415e+00
3.021622e+01	-7.912300e+00
3.039075e+01	-7.953987e+00
3.056628e+01	-7.996060e+00
3.074283e+01	-8.037996e+00
3.092040e+01	-8.080939e+00
3.109900e+01	-8.123066e+00
3.127862e+01	-8.165371e+00
3.145929e+01	-8.207746e+00
3.164099e+01	-8.250626e+00
3.182375e+01	-8.292785e+00
3.200756e+01	-8.335013e+00
3.219244e+01	-8.378078e+00
3.237838e+01	-8.421519e+00
3.256540e+01	-8.463493e+00
3.275349e+01	-8.506472e+00
3.294268e+01	-8.549927e+00
3.313295e+01	-8.592765e+00
3.332433e+01	-8.636207e+00
3.351681e+01	-8.679169e+00
3.371040e+01	-8.722763e+00
3.390511e+01	-8.765968e+00
3.410094e+01	-8.809211e+00
3.429791e+01	-8.852765e+00
3.449601e+01	-8.896168e+00
3.469526e+01	-8.939623e+00
3.489566e+01	-8.983303e+00
3.509721e+01	-9.027330e+00
3.529993e+01	-9.071256e+00
3.550382e+01	-9.114980e+00
3.570889e+01	-9.158706e+00
3.591515e+01	-9.202478e+00
3.612259e+01	-9.246742e+00
3.633123e+01	-9.291117e+00
3.654108e+01	-9.335436e+00
3.675214e+01	-9.379686e+00
3.696442e+01	-9.423324e+00
3.717792e+01	-9.467850e+00
3.739266e+01	-9.512158e+00
3.760864e+01	-9.556308e+00
3.782587e+01	-9.601458e+00
3.804435e+01	-9.645626e+00
3.826409e+01	-9.690373e+00
3.848510e+01	-9.735390e+00
3.870739e+01	-9.779749e+00
3.893096e+01	-9.824717e+00
3.915583e+01	-9.869857e+00
3.938199e+01	-9.913986e+00
3.960946e+01	-9.959313e+00
3.983824e+01	-1.000457e+01
4.006834e+01	-1.004902e+01
4.029978e+01	-1.009506e+01
4.053255e+01	-1.013998e+01
4.076666e+01	-1.018439e+01
4.100213e+01	-1.023017e+01
4.123896e+01	-1.027584e+01
4.147715e+01	-1.032093e+01
4.171672e+01	-1.036632e+01
4.195767e+01	-1.041190e+01
4.220002e+01	-1.045729e+01
4.244377e+01	-1.050317e+01
4.268892e+01	-1.054823e+01
4.293549e+01	-1.059414e+01
4.318348e+01	-1.064009e+01
4.343291e+01	-1.068586e+01
4.368377e+01	-1.073102e+01
4.393609e+01	-1.077696e+01
4.418986e+01	-1.082262e+01
4.444510e+01	-1.086880e+01
4.470182e+01	-1.091430e+01
4.496001e+01	-1.096092e+01
4.521970e+01	-1.100639e+01
4.548089e+01	-1.105249e+01
4.574358e+01	-1.109827e+01
4.600779e+01	-1.114506e+01
4.627353e+01	-1.119158e+01
4.654081e+01	-1.123771e+01
4.680963e+01	-1.128454e+01
4.708000e+01	-1.133048e+01
4.735193e+01	-1.137694e+01
4.762543e+01	-1.142303e+01
4.790051e+01	-1.146947e+01
4.817719e+01	-1.151632e+01
4.845545e+01	-1.156289e+01
4.873533e+01	-1.160862e+01
4.901682e+01	-1.165562e+01
4.929994e+01	-1.170229e+01
4.958470e+01	-1.174936e+01
4.987110e+01	-1.179588e+01
5.015915e+01	-1.184188e+01
5.044887e+01	-1.188947e+01
5.074026e+01	-1.193576e+01
5.103333e+01	-1.198295e+01
5.132810e+01	-1.202931e+01
5.162457e+01	-1.207674e+01
5.192275e+01	-1.212350e+01
5.222265e+01	-1.217094e+01
5.252429e+01	-1.221753e+01
5.282767e+01	-1.226392e+01
5.313280e+01	-1.231249e+01
5.343969e+01	-1.235901e+01
5.374836e+01	-1.240583e+01
5.405880e+01	-1.245332e+01
5.437105e+01	-1.250017e+01
5.468509e+01	-1.254630e+01
5.500095e+01	-1.259485e+01
5.531863e+01	-1.264190e+01
5.563815e+01	-1.268942e+01
5.595951e+01	-1.273623e+01
5.628273e+01	-1.278408e+01
5.660782e+01	-1.283104e+01
5.693479e+01	-1.287783e+01
5.726364e+01	-1.292615e+01
5.759439e+01	-1.297387e+01
5.792705e+01	-1.302089e+01
5.826164e+01	-1.306842e+01
5.859815e+01	-1.311620e+01
5.893662e+01	-1.316437e+01
5.927703e+01	-1.321128e+01
5.961941e+01	-1.325939e+01
5.996377e+01	-1.330743e+01
6.031012e+01	-1.335474e+01
6.065847e+01	-1.340172e+01
6.100883e+01	-1.345024e+01
6.136121e+01	-1.349812e+01
6.171563e+01	-1.354632e+01
6.207210e+01	-1.359352e+01
6.243063e+01	-1.364187e+01
6.279122e+01	-1.368905e+01
6.315390e+01	-1.373714e+01
6.351868e+01	-1.378545e+01
6.388556e+01	-1.383250e+01
6.425456e+01	-1.388099e+01
6.462569e+01	-1.392822e+01
6.499897e+01	-1.397751e+01
6.537440e+01	-1.402515e+01
6.575200e+01	-1.407325e+01
6.613178e+01	-1.412171e+01
6.651375e+01	-1.417011e+01
6.689793e+01	-1.421761e+01
6.728433e+01	-1.426496e+01
6.767297e+01	-1.431387e+01
6.806384e+01	-1.436193e+01
6.845698e+01	-1.440928e+01
6.885238e+01	-1.445839e+01
6.925007e+01	-1.450627e+01
6.965005e+01	-1.455642e+01
7.005235e+01	-1.460273e+01
7.045697e+01	-1.465199e+01
7.086393e+01	-1.470001e+01
7.127323e+01	-1.474833e+01
7.168490e+01	-1.479598e+01
7.209895e+01	-1.484578e+01
7.251539e+01	-1.489352e+01
7.293424e+01	-1.494206e+01
7.335551e+01	-1.498961e+01
7.377920e+01	-1.503849e+01
7.420535e+01	-1.508702e+01
7.463396e+01	-1.513456e+01
7.506504e+01	-1.518418e+01
7.549861e+01	-1.523207e+01
7.593469e+01	-1.528089e+01
7.637328e+01	-1.532972e+01
7.681441e+01	-1.537812e+01
7.725809e+01	-1.542682e+01
7.770433e+01	-1.547627e+01
7.815315e+01	-1.552412e+01
7.860456e+01	-1.557243e+01
7.905857e+01	-1.562228e+01
7.951521e+01	-1.566983e+01
7.997449e+01	-1.571934e+01
8.043642e+01	-1.576751e+01
8.090102e+01	-1.581622e+01
8.136830e+01	-1.586533e+01
8.183828e+01	-1.591317e+01
8.231097e+01	-1.596171e+01
8.278640e+01	-1.601086e+01
8.326457e+01	-1.606003e+01
8.374550e+01	-1.610742e+01
8.422921e+01	-1.615757e+01
8.471572e+01	-1.620562e+01
8.520503e+01	-1.625461e+01
8.569717e+01	-1.630428e+01
8.619215e+01	-1.635383e+01
8.669000e+01	-1.640151e+01
8.719071e+01	-1.645058e+01
8.769432e+01	-1.650004e+01
8.820084e+01	-1.654908e+01
8.871029e+01	-1.659796e+01
8.922267e+01	-1.664595e+01
8.973802e+01	-1.669582e+01
9.025634e+01	-1.674415e+01
9.077766e+01	-1.679412e+01
9.130199e+01	-1.684341e+01
9.182935e+01	-1.689187e+01
9.235975e+01	-1.693987e+01
9.289321e+01	-1.699012e+01
9.342976e+01	-1.703761e+01
9.396941e+01	-1.708697e+01
9.451217e+01	-1.713628e+01
9.505807e+01	-1.718475e+01
9.560712e+01	-1.723434e+01
9.615934e+01	-1.728406e+01
9.671476e+01	-1.733325e+01
9.727338e+01	-1.738146e+01
9.783522e+01	-1.742953e+01
9.840032e+01	-1.748029e+01
9.896867e+01	-1.752925e+01
9.954031e+01	-1.757827e+01
1.001153e+02	-1.762589e+01
1.006935e+02	-1.767602e+01
1.012751e+02	-1.772512e+01
1.018601e+02	-1.777577e+01
1.024484e+02	-1.782495e+01
1.030402e+02	-1.787274e+01
1.036353e+02	-1.792271e+01
1.042339e+02	-1.797241e+01
1.048360e+02	-1.802135e+01
1.054415e+02	-1.807009e+01
1.060505e+02	-1.811955e+01
1.066631e+02	-1.816885e+01
1.072791e+02	-1.821681e+01
1.078988e+02	-1.826684e+01
1.085220e+02	-1.831800e+01
1.091488e+02	-1.836735e+01
1.097793e+02	-1.841587e+01
1.104133e+02	-1.846524e+01
1.110511e+02	-1.851253e+01
1.116925e+02	-1.856368e+01
1.123376e+02	-1.861390e+01
1.129865e+02	-1.866019e+01
1.136391e+02	-1.871007e+01
1.142955e+02	-1.876170e+01
1.149556e+02	-1.881013e+01
1.156196e+02	-1.885979e+01
1.162874e+02	-1.890876e+01
1.169591e+02	-1.895861e+01
1.176347e+02	-1.900623e+01
1.183141e+02	-1.905679e+01
1.189975e+02	-1.910737e+01
1.196848e+02	-1.915582e+01
1.203761e+02	-1.920547e+01
1.210714e+02	-1.925520e+01
1.217707e+02	-1.930326e+01
1.224740e+02	-1.935342e+01
1.231814e+02	-1.940477e+01
1.238929e+02	-1.945272e+01
1.246085e+02	-1.950146e+01
1.253283e+02	-1.955150e+01
1.260522e+02	-1.960009e+01
1.267802e+02	-1.965163e+01
1.275125e+02	-1.969904e+01
1.282490e+02	-1.975143e+01
1.289898e+02	-1.979876e+01
1.297348e+02	-1.984914e+01
1.304842e+02	-1.990006e+01
1.312378e+02	-1.994821e+01
1.319959e+02	-1.999698e+01
1.327583e+02	-2.004658e+01
1.335251e+02	-2.009545e+01
1.342963e+02	-2.014679e+01
1.350720e+02	-2.019579e+01
1.358522e+02	-2.024431e+01
1.366368e+02	-2.029511e+01
1.374260e+02	-2.034435e+01
1.382198e+02	-2.039194e+01
1.390182e+02	-2.044288e+01
1.398211e+02	-2.049228e+01
1.406287e+02	-2.054301e+01
1.414410e+02	-2.059172e+01
1.422579e+02	-2.064121e+01
1.430796e+02	-2.068973e+01
1.439060e+02	-2.074229e+01
1.447372e+02	-2.079043e+01
1.455732e+02	-2.084049e+01
1.464141e+02	-2.088873e+01
1.472597e+02	-2.093883e+01
1.481103e+02	-2.098902e+01
1.489658e+02	-2.103919e+01
1.498262e+02	-2.108792e+01
1.506916e+02	-2.113923e+01
1.515620e+02	-2.118764e+01
1.524374e+02	-2.123817e+01
1.533179e+02	-2.128718e+01
1.542034e+02	-2.133694e+01
1.550941e+02	-2.138508e+01
1.559899e+02	-2.143699e+01
1.568909e+02	-2.148755e+01
1.577971e+02	-2.153501e+01
1.587085e+02	-2.158602e+01
1.596252e+02	-2.163654e+01
1.605472e+02	-2.168511e+01
1.614745e+02	-2.173411e+01
1.624072e+02	-2.178413e+01
1.633453e+02	-2.183182e+01
1.642887e+02	-2.188313e+01
1.652377e+02	-2.193306e+01
1.661921e+02	-2.198110e+01
1.671520e+02	-2.203343e+01
1.681175e+02	-2.208058e+01
1.690885e+02	-2.213059e+01
1.700651e+02	-2.218242e+01
1.710474e+02	-2.223114e+01
1.720354e+02	-2.228131e+01
1.730291e+02	-2.233246e+01
1.740285e+02	-2.238097e+01
1.750337e+02	-2.243108e+01
1.760446e+02	-2.248038e+01
1.770615e+02	-2.253101e+01
1.780842e+02	-2.257938e+01
1.791128e+02	-2.262967e+01
1.801473e+02	-2.267953e+01
1.811878e+02	-2.272968e+01
1.822344e+02	-2.278004e+01
1.832870e+02	-2.282808e+01
1.843456e+02	-2.288025e+01
1.854104e+02	-2.292803e+01
1.864813e+02	-2.297764e+01
1.875584e+02	-2.302840e+01
1.886418e+02	-2.307726e+01
1.897313e+02	-2.312577e+01
1.908272e+02	-2.317627e+01
1.919294e+02	-2.322738e+01
1.930380e+02	-2.327641e+01
1.941530e+02	-2.332687e+01
1.952744e+02	-2.337673e+01
1.964023e+02	-2.342460e+01
1.975367e+02	-2.347638e+01
1.986777e+02	-2.352705e+01
1.998252e+02	-2.357645e+01
2.009794e+02	-2.362393e+01
2.021403e+02	-2.367163e+01
2.033078e+02	-2.372618e+01
2.044821e+02	-2.377756e+01
2.056632e+02	-2.382457e+01
2.068511e+02	-2.387172e+01
2.080459e+02	-2.392218e+01
2.092475e+02	-2.397516e+01
2.104561e+02	-2.402522e+01
2.116717e+02	-2.407426e+01
2.128943e+02	-2.412616e+01
2.141240e+02	-2.417500e+01
2.153608e+02	-2.422599e+01
2.166047e+02	-2.427453e+01
2.178558e+02	-2.432363e+01
2.191141e+02	-2.437357e+01
2.203797e+02	-2.442349e+01
2.216526e+02	-2.447373e+01
2.229329e+02	-2.452294e+01
2.242205e+02	-2.457295e+01
2.255156e+02	-2.462533e+01
2.268182e+02	-2.467416e+01
2.281283e+02	-2.472258e+01
2.294459e+02	-2.477270e+01
2.307712e+02	-2.482272e+01
2.321041e+02	-2.487286e+01
2.334447e+02	-2.492265e+01
2.347931e+02	-2.497372e+01
2.361493e+02	-2.502226e+01
2.375133e+02	-2.507217e+01
2.388851e+02	-2.512146e+01
2.402649e+02	-2.517173e+01
2.416527e+02	-2.522142e+01
2.430484e+02	-2.526852e+01
2.444523e+02	-2.531820e+01
2.458642e+02	-2.537062e+01
2.472843e+02	-2.542371e+01
2.487126e+02	-2.547335e+01
2.501492e+02	-2.552297e+01
2.515940e+02	-2.557254e+01
2.530472e+02	-2.562079e+01
2.545088e+02	-2.566986e+01
2.559789e+02	-2.572367e+01
2.574574e+02	-2.577067e+01
2.589444e+02	-2.581985e+01
2.604401e+02	-2.587062e+01
2.619444e+02	-2.592015e+01
2.634574e+02	-2.597240e+01
2.649791e+02	-2.602286e+01
2.665096e+02	-2.606961e+01
2.680489e+02	-2.612001e+01
2.695972e+02	-2.616904e+01
2.711544e+02	-2.622056e+01
2.727205e+02	-2.627131e+01
2.742958e+02	-2.632094e+01
2.758801e+02	-2.637114e+01
2.774736e+02	-2.641923e+01
2.790762e+02	-2.647097e+01
2.806882e+02	-2.651617e+01
2.823094e+02	-2.656951e+01
2.839400e+02	-2.661825e+01
2.855800e+02	-2.667065e+01
2.872295e+02	-2.672165e+01
2.888886e+02	-2.677186e+01
2.905572e+02	-2.682055e+01
2.922354e+02	-2.686915e+01
2.939234e+02	-2.691946e+01
2.956211e+02	-2.697249e+01
2.973286e+02	-2.702097e+01
2.990459e+02	-2.706796e+01
3.007732e+02	-2.711861e+01
3.025104e+02	-2.717286e+01
3.042577e+02	-2.721944e+01
3.060151e+02	-2.727069e+01
3.077826e+02	-2.732047e+01
3.095604e+02	-2.736920e+01
3.113484e+02	-2.741878e+01
3.131467e+02	-2.747187e+01
3.149554e+02	-2.752352e+01
3.167746e+02	-2.757191e+01
3.186043e+02	-2.762056e+01
3.204445e+02	-2.767262e+01
3.222954e+02	-2.772373e+01
3.241570e+02	-2.776949e+01
3.260293e+02	-2.781877e+01
3.279124e+02	-2.787143e+01
3.298064e+02	-2.791751e+01
3.317114e+02	-2.797013e+01
3.336273e+02	-2.801627e+01
3.355544e+02	-2.807596e+01
3.374925e+02	-2.812423e+01
3.394418e+02	-2.817118e+01
3.414024e+02	-2.822295e+01
3.433744e+02	-2.827211e+01
3.453577e+02	-2.831932e+01
3.473525e+02	-2.837744e+01
3.493588e+02	-2.841918e+01
3.513766e+02	-2.847064e+01
3.534062e+02	-2.852148e+01
3.554474e+02	-2.857048e+01
3.575005e+02	-2.862191e+01
3.595654e+02	-2.866978e+01
3.616422e+02	-2.872176e+01
3.637311e+02	-2.876867e+01
3.658320e+02	-2.882052e+01
3.679450e+02	-2.886957e+01
3.700702e+02	-2.891974e+01
3.722077e+02	-2.897395e+01
3.743576e+02	-2.902267e+01
3.765199e+02	-2.907646e+01
3.786946e+02	-2.911752e+01
3.808820e+02	-2.917415e+01
3.830819e+02	-2.921676e+01
3.852946e+02	-2.927171e+01
3.875200e+02	-2.932240e+01
3.897583e+02	-2.937183e+01
3.920096e+02	-2.941848e+01
3.942738e+02	-2.947073e+01
3.965511e+02	-2.952130e+01
3.988416e+02	-2.957388e+01
4.011452e+02	-2.962169e+01
4.034622e+02	-2.967437e+01
4.057926e+02	-2.972012e+01
4.081365e+02	-2.977304e+01
4.104938e+02	-2.982338e+01
4.128648e+02	-2.987588e+01
4.152495e+02	-2.992620e+01
4.176480e+02	-2.997692e+01
4.200603e+02	-3.002162e+01
4.224866e+02	-3.007438e+01
4.249268e+02	-3.012481e+01
4.273812e+02	-3.016743e+01
4.298497e+02	-3.022431e+01
4.323325e+02	-3.027123e+01
4.348297e+02	-3.032402e+01
4.373412e+02	-3.037808e+01
4.398673e+02	-3.042320e+01
4.424079e+02	-3.047083e+01
4.449633e+02	-3.052542e+01
4.475334e+02	-3.057280e+01
4.501183e+02	-3.062255e+01
4.527182e+02	-3.067506e+01
4.553330e+02	-3.073113e+01
4.579630e+02	-3.077795e+01
4.606082e+02	-3.082762e+01
4.632687e+02	-3.087261e+01
4.659445e+02	-3.091744e+01
4.686358e+02	-3.098308e+01
4.713426e+02	-3.102325e+01
4.740650e+02	-3.107804e+01
4.768032e+02	-3.113038e+01
4.795572e+02	-3.117431e+01
4.823271e+02	-3.122805e+01
4.851130e+02	-3.127531e+01
4.879150e+02	-3.132783e+01
4.907332e+02	-3.137633e+01
4.935676e+02	-3.142581e+01
4.964185e+02	-3.147895e+01
4.992858e+02	-3.153086e+01
5.021696e+02	-3.157251e+01
5.050701e+02	-3.162664e+01
5.079874e+02	-3.167682e+01
5.109215e+02	-3.172807e+01
5.138726e+02	-3.177954e+01
5.168407e+02	-3.183250e+01
5.198259e+02	-3.187584e+01
5.228284e+02	-3.193166e+01
5.258482e+02	-3.197541e+01
5.288855e+02	-3.202636e+01
5.319403e+02	-3.207930e+01
5.350128e+02	-3.212333e+01
5.381030e+02	-3.218132e+01
5.412111e+02	-3.223311e+01
5.443371e+02	-3.227557e+01
5.474812e+02	-3.232851e+01
5.506434e+02	-3.237834e+01
5.538239e+02	-3.243246e+01
5.570228e+02	-3.247875e+01
5.602401e+02	-3.253198e+01
5.634760e+02	-3.257939e+01
5.667306e+02	-3.262850e+01
5.700040e+02	-3.268143e+01
5.732964e+02	-3.273523e+01
5.766077e+02	-3.277908e+01
5.799382e+02	-3.283466e+01
5.832879e+02	-3.288159e+01
5.866569e+02	-3.292507e+01
5.900454e+02	-3.298178e+01
5.934535e+02	-3.303087e+01
5.968813e+02	-3.307960e+01
6.003288e+02	-3.313725e+01
6.037963e+02	-3.317695e+01
6.072838e+02	-3.323808e+01
6.107914e+02	-3.328687e+01
6.143194e+02	-3.334098e+01
6.178676e+02	-3.338281e+01
6.214364e+02	-3.343529e+01
6.250258e+02	-3.348484e+01
6.286359e+02	-3.352827e+01
6.322669e+02	-3.358608e+01
6.359189e+02	-3.363500e+01
6.395919e+02	-3.368584e+01
6.432862e+02	-3.373925e+01
6.470017e+02	-3.378858e+01
6.507388e+02	-3.384266e+01
6.544974e+02	-3.388760e+01
6.582778e+02	-3.393471e+01
6.620800e+02	-3.399035e+01
6.659041e+02	-3.404229e+01
6.697504e+02	-3.408812e+01
6.736188e+02	-3.413777e+01
6.775096e+02	-3.419679e+01
6.814229e+02	-3.424033e+01
6.853587e+02	-3.428964e+01
6.893173e+02	-3.433967e+01
6.932988e+02	-3.439520e+01
6.973033e+02	-3.444319e+01
7.013309e+02	-3.449206e+01
