Frequency(Hz)	Magnitude(dB)
1.000000e+01	-2.235382e+00
1.005776e+01	-2.255394e+00
1.011585e+01	-2.275909e+00
1.017428e+01	-2.296119e+00
1.023305e+01	-2.317016e+00
1.029215e+01	-2.337528e+00
1.035160e+01	-2.358452e+00
1.041139e+01	-2.379300e+00
1.047153e+01	-2.400891e+00
1.053201e+01	-2.422026e+00
1.059284e+01	-2.443474e+00
1.065403e+01	-2.464919e+00
1.071556e+01	-2.486852e+00
1.077746e+01	-2.508665e+00
1.083971e+01	-2.530506e+00
1.090232e+01	-2.552919e+00
1.096529e+01	-2.575206e+00
1.102862e+01	-2.597497e+00
1.109232e+01	-2.620275e+00
1.115639e+01	-2.643116e+00
1.122083e+01	-2.665735e+00
1.128564e+01	-2.688975e+00
1.135083e+01	-2.712126e+00
1.141639e+01	-2.735400e+00
1.148233e+01	-2.758867e+00
1.154865e+01	-2.782440e+00
1.161536e+01	-2.806145e+00
1.168245e+01	-2.829853e+00
1.174992e+01	-2.854203e+00
1.181779e+01	-2.878125e+00
1.188605e+01	-2.902445e+00
1.195470e+01	-2.926981e+00
1.202375e+01	-2.951570e+00
1.209320e+01	-2.976390e+00
1.216305e+01	-3.001093e+00
1.223330e+01	-3.026423e+00
1.230396e+01	-3.051417e+00
1.237503e+01	-3.076795e+00
1.244651e+01	-3.102276e+00
1.251840e+01	-3.127792e+00
1.259070e+01	-3.153364e+00
1.266343e+01	-3.179295e+00
1.273657e+01	-3.205498e+00
1.281014e+01	-3.231617e+00
1.288413e+01	-3.258037e+00
1.295855e+01	-3.284416e+00
1.303339e+01	-3.311053e+00
1.310867e+01	-3.337902e+00
1.318439e+01	-3.364812e+00
1.326054e+01	-3.391726e+00
1.333713e+01	-3.418845e+00
1.341417e+01	-3.446463e+00
1.349165e+01	-3.473618e+00
1.356958e+01	-3.501566e+00
1.364795e+01	-3.528989e+00
1.372678e+01	-3.557162e+00
1.380607e+01	-3.585197e+00
1.388581e+01	-3.613367e+00
1.396602e+01	-3.641482e+00
1.404668e+01	-3.670341e+00
1.412782e+01	-3.698673e+00
1.420942e+01	-3.727364e+00
1.429149e+01	-3.756185e+00
1.437404e+01	-3.785377e+00
1.445706e+01	-3.814856e+00
1.454057e+01	-3.843735e+00
1.462455e+01	-3.873249e+00
1.470902e+01	-3.902844e+00
1.479398e+01	-3.932826e+00
1.487943e+01	-3.962245e+00
1.496537e+01	-3.992419e+00
1.505181e+01	-4.022470e+00
1.513875e+01	-4.052814e+00
1.522619e+01	-4.083163e+00
1.531414e+01	-4.113794e+00
1.540259e+01	-4.144683e+00
1.549156e+01	-4.175380e+00
1.558103e+01	-4.206344e+00
1.567103e+01	-4.237755e+00
1.576155e+01	-4.268414e+00
1.585258e+01	-4.300001e+00
1.594415e+01	-4.331663e+00
1.603624e+01	-4.363052e+00
1.612886e+01	-4.394942e+00
1.622202e+01	-4.426735e+00
1.631572e+01	-4.458800e+00
1.640996e+01	-4.491012e+00
1.650474e+01	-4.523042e+00
1.660008e+01	-4.555717e+00
1.669596e+01	-4.588519e+00
1.679239e+01	-4.621093e+00
1.688938e+01	-4.654052e+00
1.698694e+01	-4.686915e+00
1.708505e+01	-4.720036e+00
1.718373e+01	-4.753157e+00
1.728299e+01	-4.786656e+00
1.738281e+01	-4.820038e+00
1.748322e+01	-4.853739e+00
1.758420e+01	-4.887404e+00
1.768576e+01	-4.921245e+00
1.778792e+01	-4.955197e+00
1.789066e+01	-4.989491e+00
1.799399e+01	-5.023786e+00
1.809793e+01	-5.057848e+00
1.820246e+01	-5.092333e+00
1.830760e+01	-5.126910e+00
1.841334e+01	-5.161817e+00
1.851969e+01	-5.196883e+00
1.862666e+01	-5.231336e+00
1.873425e+01	-5.266532e+00
1.884246e+01	-5.301680e+00
1.895129e+01	-5.336965e+00
1.906075e+01	-5.372798e+00
1.917085e+01	-5.408229e+00
1.928158e+01	-5.443862e+00
1.939295e+01	-5.479460e+00
1.950496e+01	-5.515326e+00
1.961762e+01	-5.551585e+00
1.973093e+01	-5.587590e+00
1.984490e+01	-5.623963e+00
1.995952e+01	-5.660530e+00
2.007480e+01	-5.697173e+00
2.019076e+01	-5.733357e+00
2.030738e+01	-5.770145e+00
2.042467e+01	-5.807156e+00
2.054264e+01	-5.843890e+00
2.066130e+01	-5.880953e+00
2.078064e+01	-5.918107e+00
2.090066e+01	-5.955674e+00
2.102139e+01	-5.992463e+00
2.114280e+01	-6.030464e+00
2.126492e+01	-6.067762e+00
2.138775e+01	-6.105937e+00
2.151128e+01	-6.143509e+00
2.163553e+01	-6.181307e+00
2.176050e+01	-6.219475e+00
2.188619e+01	-6.257686e+00
2.201260e+01	-6.295906e+00
2.213974e+01	-6.334290e+00
2.226762e+01	-6.372484e+00
2.239624e+01	-6.410962e+00
2.252560e+01	-6.449761e+00
2.265571e+01	-6.488145e+00
2.278656e+01	-6.527482e+00
2.291818e+01	-6.566511e+00
2.305055e+01	-6.605192e+00
2.318369e+01	-6.644337e+00
2.331760e+01	-6.683755e+00
2.345228e+01	-6.723164e+00
2.358774e+01	-6.762214e+00
2.372398e+01	-6.802058e+00
2.386101e+01	-6.841455e+00
2.399883e+01	-6.881811e+00
2.413745e+01	-6.921064e+00
2.427686e+01	-6.961052e+00
2.441709e+01	-7.001163e+00
2.455812e+01	-7.041318e+00
2.469997e+01	-7.081304e+00
2.484263e+01	-7.121563e+00
2.498612e+01	-7.161959e+00
2.513044e+01	-7.202235e+00
2.527559e+01	-7.242933e+00
2.542158e+01	-7.284191e+00
2.556842e+01	-7.324354e+00
2.571610e+01	-7.365116e+00
2.586463e+01	-7.405850e+00
2.601403e+01	-7.447573e+00
2.616428e+01	-7.488183e+00
2.631541e+01	-7.529476e+00
2.646740e+01	-7.570145e+00
2.662028e+01	-7.611553e+00
2.677404e+01	-7.653152e+00
2.692868e+01	-7.694870e+00
2.708422e+01	-7.736253e+00
2.724066e+01	-7.778073e+00
2.739800e+01	-7.820023e+00
2.755625e+01	-7.861202e+00
2.771541e+01	-7.903181e+00
2.787550e+01	-7.945061e+00
2.803650e+01	-7.987167e+00
2.819844e+01	-8.028950e+00
2.836131e+01	-8.071547e+00
2.852513e+01	-8.114306e+00
2.868989e+01	-8.156088e+00
2.885560e+01	-8.198040e+00
2.902227e+01	-8.240937e+00
2.918990e+01	-8.283882e+00
2.935850e+01	-8.326229e+00
2.952807e+01	-8.368954e+00
2.969863e+01	-8.411682e+00
2.987016e+01	-8.454986e+00
3.004269e+01	-8.497396e+00
3.021622e+01	-8.540341e+00
3.039075e+01	-8.583921e+00
3.056628e+01	-8.626815e+00
3.074283e+01	-8.669717e+00
3.092040e+01	-8.713233e+00
3.109900e+01	-8.756152e+00
3.127862e+01	-8.799973e+00
3.145929e+01	-8.843449e+00
3.164099e+01	-8.886764e+00
3.182375e+01	-8.930503e+00
3.200756e+01	-8.974423e+00
3.219244e+01	-9.018119e+00
3.237838e+01	-9.061978e+00
3.256540e+01	-9.105321e+00
3.275349e+01	-9.148965e+00
3.294268e+01	-9.193167e+00
3.313295e+01	-9.237260e+00
3.332433e+01	-9.281875e+00
3.351681e+01	-9.325640e+00
3.371040e+01	-9.369958e+00
3.390511e+01	-9.413814e+00
3.410094e+01	-9.458329e+00
3.429791e+01	-9.502464e+00
3.449601e+01	-9.547221e+00
3.469526e+01	-9.591593e+00
3.489566e+01	-9.636722e+00
3.509721e+01	-9.680771e+00
3.529993e+01	-9.725655e+00
3.550382e+01	-9.770385e+00
3.570889e+01	-9.815112e+00
3.591515e+01	-9.860496e+00
3.612259e+01	-9.904689e+00
3.633123e+01	-9.949924e+00
3.654108e+01	-9.994127e+00
3.675214e+01	-1.003978e+01
3.696442e+01	-1.008481e+01
3.717792e+01	-1.012975e+01
3.739266e+01	-1.017531e+01
3.760864e+01	-1.022062e+01
3.782587e+01	-1.026553e+01
3.804435e+01	-1.031094e+01
3.826409e+01	-1.035661e+01
3.848510e+01	-1.040194e+01
3.870739e+01	-1.044709e+01
3.893096e+01	-1.049271e+01
3.915583e+01	-1.053857e+01
3.938199e+01	-1.058430e+01
3.960946e+01	-1.062987e+01
3.983824e+01	-1.067551e+01
4.006834e+01	-1.072131e+01
4.029978e+01	-1.076685e+01
4.053255e+01	-1.081285e+01
4.076666e+01	-1.085907e+01
4.100213e+01	-1.090494e+01
4.123896e+01	-1.095092e+01
4.147715e+01	-1.099731e+01
4.171672e+01	-1.104288e+01
4.195767e+01	-1.108876e+01
4.220002e+01	-1.113496e+01
4.244377e+01	-1.118191e+01
4.268892e+01	-1.122757e+01
4.293549e+01	-1.127389e+01
4.318348e+01	-1.132015e+01
4.343291e+01	-1.136584e+01
4.368377e+01	-1.141312e+01
4.393609e+01	-1.145957e+01
4.418986e+01	-1.150594e+01
4.444510e+01	-1.155208e+01
4.470182e+01	-1.159948e+01
4.496001e+01	-1.164549e+01
4.521970e+01	-1.169221e+01
4.548089e+01	-1.173901e+01
4.574358e+01	-1.178570e+01
4.600779e+01	-1.183212e+01
4.627353e+01	-1.187852e+01
4.654081e+01	-1.192538e+01
4.680963e+01	-1.197190e+01
4.708000e+01	-1.201987e+01
4.735193e+01	-1.206631e+01
4.762543e+01	-1.211331e+01
4.790051e+01	-1.216039e+01
4.817719e+01	-1.220804e+01
4.845545e+01	-1.225458e+01
4.873533e+01	-1.230104e+01
4.901682e+01	-1.234860e+01
4.929994e+01	-1.239552e+01
4.958470e+01	-1.244266e+01
4.987110e+01	-1.248986e+01
5.015915e+01	-1.253741e+01
5.044887e+01	-1.258507e+01
5.074026e+01	-1.263146e+01
5.103333e+01	-1.267903e+01
5.132810e+01	-1.272689e+01
5.162457e+01	-1.277380e+01
5.192275e+01	-1.282155e+01
5.222265e+01	-1.286874e+01
5.252429e+01	-1.291604e+01
5.282767e+01	-1.296296e+01
5.313280e+01	-1.301145e+01
5.343969e+01	-1.305861e+01
5.374836e+01	-1.310657e+01
5.405880e+01	-1.315338e+01
5.437105e+01	-1.320102e+01
5.468509e+01	-1.324934e+01
5.500095e+01	-1.329673e+01
5.531863e+01	-1.334437e+01
5.563815e+01	-1.339192e+01
5.595951e+01	-1.343922e+01
5.628273e+01	-1.348755e+01
5.660782e+01	-1.353544e+01
5.693479e+01	-1.358342e+01
5.726364e+01	-1.363181e+01
5.759439e+01	-1.367927e+01
5.792705e+01	-1.372635e+01
5.826164e+01	-1.377488e+01
5.859815e+01	-1.382228e+01
5.893662e+01	-1.387016e+01
5.927703e+01	-1.391870e+01
5.961941e+01	-1.396547e+01
5.996377e+01	-1.401511e+01
6.031012e+01	-1.406295e+01
6.065847e+01	-1.411035e+01
6.100883e+01	-1.415905e+01
6.136121e+01	-1.420705e+01
6.171563e+01	-1.425510e+01
6.207210e+01	-1.430231e+01
6.243063e+01	-1.435151e+01
6.279122e+01	-1.440007e+01
6.315390e+01	-1.444798e+01
6.351868e+01	-1.449519e+01
6.388556e+01	-1.454523e+01
6.425456e+01	-1.459222e+01
6.462569e+01	-1.464070e+01
6.499897e+01	-1.468932e+01
6.537440e+01	-1.473732e+01
6.575200e+01	-1.478582e+01
6.613178e+01	-1.483502e+01
6.651375e+01	-1.488215e+01
6.689793e+01	-1.493162e+01
6.728433e+01	-1.497974e+01
6.767297e+01	-1.502802e+01
6.806384e+01	-1.507621e+01
6.845698e+01	-1.512548e+01
6.885238e+01	-1.517321e+01
6.925007e+01	-1.522256e+01
6.965005e+01	-1.527117e+01
7.005235e+01	-1.531903e+01
7.045697e+01	-1.536800e+01
7.086393e+01	-1.541634e+01
7.127323e+01	-1.546392e+01
7.168490e+01	-1.551397e+01
7.209895e+01	-1.556191e+01
7.251539e+01	-1.561104e+01
7.293424e+01	-1.566028e+01
7.335551e+01	-1.570788e+01
7.377920e+01	-1.575626e+01
7.420535e+01	-1.580607e+01
7.463396e+01	-1.585454e+01
7.506504e+01	-1.590391e+01
7.549861e+01	-1.595163e+01
7.593469e+01	-1.600068e+01
7.637328e+01	-1.604881e+01
7.681441e+01	-1.609817e+01
7.725809e+01	-1.614778e+01
7.770433e+01	-1.619707e+01
7.815315e+01	-1.624507e+01
7.860456e+01	-1.629382e+01
7.905857e+01	-1.634229e+01
7.951521e+01	-1.639189e+01
7.997449e+01	-1.644079e+01
8.043642e+01	-1.648847e+01
8.090102e+01	-1.653661e+01
8.136830e+01	-1.658643e+01
8.183828e+01	-1.663553e+01
8.231097e+01	-1.668507e+01
8.278640e+01	-1.673410e+01
8.326457e+01	-1.678217e+01
8.374550e+01	-1.683232e+01
8.422921e+01	-1.688022e+01
8.471572e+01	-1.692867e+01
8.520503e+01	-1.697870e+01
8.569717e+01	-1.702664e+01
8.619215e+01	-1.707651e+01
8.669000e+01	-1.712618e+01
8.719071e+01	-1.717307e+01
8.769432e+01	-1.722244e+01
8.820084e+01	-1.727342e+01
8.871029e+01	-1.732182e+01
8.922267e+01	-1.736973e+01
8.973802e+01	-1.742031e+01
9.025634e+01	-1.747005e+01
9.077766e+01	-1.751975e+01
9.130199e+01	-1.756730e+01
9.182935e+01	-1.761649e+01
9.235975e+01	-1.766612e+01
9.289321e+01	-1.771510e+01
9.342976e+01	-1.776401e+01
9.396941e+01	-1.781375e+01
9.451217e+01	-1.786309e+01
9.505807e+01	-1.791118e+01
9.560712e+01	-1.796183e+01
9.615934e+01	-1.801014e+01
9.671476e+01	-1.805971e+01
9.727338e+01	-1.810908e+01
9.783522e+01	-1.815752e+01
9.840032e+01	-1.820798e+01
9.896867e+01	-1.825729e+01
9.954031e+01	-1.830540e+01
1.001153e+02	-1.835621e+01
1.006935e+02	-1.840500e+01
1.012751e+02	-1.845479e+01
1.018601e+02	-1.850417e+01
1.024484e+02	-1.855245e+01
1.030402e+02	-1.860131e+01
1.036353e+02	-1.865064e+01
1.042339e+02	-1.870066e+01
1.048360e+02	-1.874905e+01
1.054415e+02	-1.880048e+01
1.060505e+02	-1.884853e+01
1.066631e+02	-1.889923e+01
1.072791e+02	-1.894715e+01
1.078988e+02	-1.899576e+01
1.085220e+02	-1.904646e+01
1.091488e+02	-1.909448e+01
1.097793e+02	-1.914391e+01
1.104133e+02	-1.919479e+01
1.110511e+02	-1.924429e+01
1.116925e+02	-1.929419e+01
1.123376e+02	-1.934432e+01
1.129865e+02	-1.939228e+01
1.136391e+02	-1.944209e+01
1.142955e+02	-1.949016e+01
1.149556e+02	-1.953980e+01
1.156196e+02	-1.958973e+01
1.162874e+02	-1.964086e+01
1.169591e+02	-1.968988e+01
1.176347e+02	-1.974048e+01
1.183141e+02	-1.978834e+01
1.189975e+02	-1.983860e+01
1.196848e+02	-1.988847e+01
1.203761e+02	-1.993628e+01
1.210714e+02	-1.998751e+01
1.217707e+02	-2.003645e+01
1.224740e+02	-2.008518e+01
1.231814e+02	-2.013506e+01
1.238929e+02	-2.018446e+01
1.246085e+02	-2.023405e+01
1.253283e+02	-2.028271e+01
1.260522e+02	-2.033337e+01
1.267802e+02	-2.038223e+01
1.275125e+02	-2.043207e+01
1.282490e+02	-2.048084e+01
1.289898e+02	-2.053190e+01
1.297348e+02	-2.058095e+01
1.304842e+02	-2.063206e+01
1.312378e+02	-2.068023e+01
1.319959e+02	-2.072976e+01
1.327583e+02	-2.077904e+01
1.335251e+02	-2.082754e+01
1.342963e+02	-2.087905e+01
1.350720e+02	-2.092756e+01
1.358522e+02	-2.097720e+01
1.366368e+02	-2.102768e+01
1.374260e+02	-2.107667e+01
1.382198e+02	-2.112655e+01
1.390182e+02	-2.117588e+01
1.398211e+02	-2.122812e+01
1.406287e+02	-2.127782e+01
1.414410e+02	-2.132729e+01
1.422579e+02	-2.137519e+01
1.430796e+02	-2.142598e+01
1.439060e+02	-2.147539e+01
1.447372e+02	-2.152383e+01
1.455732e+02	-2.157519e+01
1.464141e+02	-2.162231e+01
1.472597e+02	-2.167480e+01
1.481103e+02	-2.172274e+01
1.489658e+02	-2.177480e+01
1.498262e+02	-2.182364e+01
1.506916e+02	-2.187324e+01
1.515620e+02	-2.192097e+01
1.524374e+02	-2.197222e+01
1.533179e+02	-2.202213e+01
1.542034e+02	-2.207241e+01
1.550941e+02	-2.212148e+01
1.559899e+02	-2.217073e+01
1.568909e+02	-2.222158e+01
1.577971e+02	-2.227049e+01
1.587085e+02	-2.232065e+01
1.596252e+02	-2.237030e+01
1.605472e+02	-2.241859e+01
1.614745e+02	-2.246898e+01
1.624072e+02	-2.251793e+01
1.633453e+02	-2.257035e+01
1.642887e+02	-2.261894e+01
1.652377e+02	-2.267008e+01
1.661921e+02	-2.271791e+01
1.671520e+02	-2.276628e+01
1.681175e+02	-2.281704e+01
1.690885e+02	-2.286795e+01
1.700651e+02	-2.291592e+01
1.710474e+02	-2.296587e+01
1.720354e+02	-2.301701e+01
1.730291e+02	-2.306808e+01
1.740285e+02	-2.311593e+01
1.750337e+02	-2.316773e+01
1.760446e+02	-2.321530e+01
1.770615e+02	-2.326544e+01
1.780842e+02	-2.331581e+01
1.791128e+02	-2.336575e+01
1.801473e+02	-2.341684e+01
1.811878e+02	-2.346484e+01
1.822344e+02	-2.351570e+01
1.832870e+02	-2.356596e+01
1.843456e+02	-2.361605e+01
1.854104e+02	-2.366111e+01
1.864813e+02	-2.371362e+01
1.875584e+02	-2.376805e+01
1.886418e+02	-2.381500e+01
1.897313e+02	-2.386568e+01
1.908272e+02	-2.391319e+01
1.919294e+02	-2.396345e+01
1.930380e+02	-2.401509e+01
1.941530e+02	-2.406158e+01
1.952744e+02	-2.411465e+01
1.964023e+02	-2.416272e+01
1.975367e+02	-2.421036e+01
1.986777e+02	-2.426340e+01
1.998252e+02	-2.431453e+01
2.009794e+02	-2.436408e+01
2.021403e+02	-2.441306e+01
2.033078e+02	-2.446570e+01
2.044821e+02	-2.451034e+01
2.056632e+02	-2.456388e+01
2.068511e+02	-2.461007e+01
2.080459e+02	-2.466287e+01
2.092475e+02	-2.471327e+01
2.104561e+02	-2.476234e+01
2.116717e+02	-2.481075e+01
2.128943e+02	-2.486037e+01
2.141240e+02	-2.490990e+01
2.153608e+02	-2.496240e+01
2.166047e+02	-2.501019e+01
2.178558e+02	-2.506331e+01
2.191141e+02	-2.510824e+01
2.203797e+02	-2.516084e+01
2.216526e+02	-2.521274e+01
2.229329e+02	-2.526140e+01
2.242205e+02	-2.530909e+01
2.255156e+02	-2.536011e+01
2.268182e+02	-2.541144e+01
2.281283e+02	-2.546230e+01
2.294459e+02	-2.551293e+01
2.307712e+02	-2.556058e+01
2.321041e+02	-2.561146e+01
2.334447e+02	-2.566210e+01
2.347931e+02	-2.571061e+01
2.361493e+02	-2.576196e+01
2.375133e+02	-2.581159e+01
2.388851e+02	-2.586112e+01
2.402649e+02	-2.590904e+01
2.416527e+02	-2.596239e+01
2.430484e+02	-2.601140e+01
2.444523e+02	-2.606139e+01
2.458642e+02	-2.610975e+01
2.472843e+02	-2.615994e+01
2.487126e+02	-2.621006e+01
2.501492e+02	-2.626070e+01
2.515940e+02	-2.631116e+01
2.530472e+02	-2.636175e+01
2.545088e+02	-2.641044e+01
2.559789e+02	-2.645814e+01
2.574574e+02	-2.651217e+01
2.589444e+02	-2.655686e+01
2.604401e+02	-2.661098e+01
2.619444e+02	-2.665864e+01
2.634574e+02	-2.670666e+01
2.649791e+02	-2.675462e+01
2.665096e+02	-2.680902e+01
2.680489e+02	-2.685779e+01
2.695972e+02	-2.690781e+01
2.711544e+02	-2.696014e+01
2.727205e+02	-2.700470e+01
2.742958e+02	-2.706190e+01
2.758801e+02	-2.710862e+01
2.774736e+02	-2.715746e+01
2.790762e+02	-2.720994e+01
2.806882e+02	-2.725989e+01
2.823094e+02	-2.730686e+01
2.839400e+02	-2.735466e+01
2.855800e+02	-2.741040e+01
2.872295e+02	-2.745939e+01
2.888886e+02	-2.750907e+01
2.905572e+02	-2.756401e+01
2.922354e+02	-2.760877e+01
2.939234e+02	-2.765898e+01
2.956211e+02	-2.770993e+01
2.973286e+02	-2.776297e+01
2.990459e+02	-2.781263e+01
3.007732e+02	-2.785736e+01
3.025104e+02	-2.790988e+01
3.042577e+02	-2.796146e+01
3.060151e+02	-2.801226e+01
3.077826e+02	-2.805508e+01
3.095604e+02	-2.811014e+01
3.113484e+02	-2.815846e+01
3.131467e+02	-2.821263e+01
3.149554e+02	-2.825828e+01
3.167746e+02	-2.831261e+01
3.186043e+02	-2.835557e+01
3.204445e+02	-2.840793e+01
3.222954e+02	-2.845693e+01
3.241570e+02	-2.851037e+01
3.260293e+02	-2.855883e+01
3.279124e+02	-2.861159e+01
3.298064e+02	-2.866236e+01
3.317114e+02	-2.871577e+01
3.336273e+02	-2.875800e+01
3.355544e+02	-2.881127e+01
3.374925e+02	-2.886043e+01
3.394418e+02	-2.891246e+01
3.414024e+02	-2.895773e+01
3.433744e+02	-2.900997e+01
3.453577e+02	-2.906400e+01
3.473525e+02	-2.910782e+01
3.493588e+02	-2.916388e+01
3.513766e+02	-2.921055e+01
3.534062e+02	-2.925964e+01
3.554474e+02	-2.930919e+01
3.575005e+02	-2.936226e+01
3.595654e+02	-2.941353e+01
3.616422e+02	-2.946049e+01
3.637311e+02	-2.950738e+01
3.658320e+02	-2.955797e+01
3.679450e+02	-2.961308e+01
3.700702e+02	-2.966236e+01
3.722077e+02	-2.971561e+01
3.743576e+02	-2.975817e+01
3.765199e+02	-2.980874e+01
3.786946e+02	-2.985978e+01
3.808820e+02	-2.991499e+01
3.830819e+02	-2.996044e+01
3.852946e+02	-3.001147e+01
3.875200e+02	-3.006124e+01
3.897583e+02	-3.011313e+01
3.920096e+02	-3.015961e+01
3.942738e+02	-3.020880e+01
3.965511e+02	-3.026300e+01
3.988416e+02	-3.030498e+01
4.011452e+02	-3.036799e+01
4.034622e+02	-3.041476e+01
4.057926e+02	-3.046610e+01
4.081365e+02	-3.051847e+01
4.104938e+02	-3.056263e+01
4.128648e+02	-3.061656e+01
4.152495e+02	-3.066114e+01
4.176480e+02	-3.071571e+01
4.200603e+02	-3.076231e+01
4.224866e+02	-3.081331e+01
4.249268e+02	-3.086431e+01
4.273812e+02	-3.092271e+01
4.298497e+02	-3.096345e+01
4.323325e+02	-3.101083e+01
4.348297e+02	-3.107027e+01
4.373412e+02	-3.111577e+01
4.398673e+02	-3.116236e+01
4.424079e+02	-3.121798e+01
4.449633e+02	-3.126765e+01
4.475334e+02	-3.131414e+01
4.501183e+02	-3.135886e+01
4.527182e+02	-3.141570e+01
4.553330e+02	-3.145987e+01
4.579630e+02	-3.151000e+01
4.606082e+02	-3.157114e+01
4.632687e+02	-3.161164e+01
4.659445e+02	-3.166782e+01
4.686358e+02	-3.171171e+01
4.713426e+02	-3.176842e+01
4.740650e+02	-3.181011e+01
4.768032e+02	-3.186380e+01
4.795572e+02	-3.192136e+01
4.823271e+02	-3.197094e+01
4.851130e+02	-3.201611e+01
4.879150e+02	-3.207771e+01
4.907332e+02	-3.211720e+01
4.935676e+02	-3.216511e+01
4.964185e+02	-3.222616e+01
4.992858e+02	-3.226658e+01
5.021696e+02	-3.231270e+01
5.050701e+02	-3.237121e+01
5.079874e+02	-3.241791e+01
5.109215e+02	-3.247018e+01
5.138726e+02	-3.252192e+01
5.168407e+02	-3.256806e+01
5.198259e+02	-3.260990e+01
5.228284e+02	-3.266926e+01
5.258482e+02	-3.272563e+01
5.288855e+02	-3.277316e+01
5.319403e+02	-3.283365e+01
5.350128e+02	-3.286918e+01
5.381030e+02	-3.292107e+01
5.412111e+02	-3.296889e+01
5.443371e+02	-3.303098e+01
5.474812e+02	-3.307454e+01
5.506434e+02	-3.312332e+01
5.538239e+02	-3.317501e+01
5.570228e+02	-3.321621e+01
5.602401e+02	-3.327651e+01
5.634760e+02	-3.332013e+01
5.667306e+02	-3.337831e+01
5.700040e+02	-3.342350e+01
5.732964e+02	-3.347061e+01
5.766077e+02	-3.352835e+01
5.799382e+02	-3.357244e+01
5.832879e+02	-3.363139e+01
5.866569e+02	-3.367702e+01
5.900454e+02	-3.372836e+01
5.934535e+02	-3.377891e+01
5.968813e+02	-3.382122e+01
6.003288e+02	-3.387720e+01
6.037963e+02	-3.392603e+01
6.072838e+02	-3.398474e+01
6.107914e+02	-3.402577e+01
6.143194e+02	-3.407611e+01
6.178676e+02	-3.412202e+01
6.214364e+02	-3.417458e+01
6.250258e+02	-3.422755e+01
6.286359e+02	-3.428114e+01
6.322669e+02	-3.432485e+01
6.359189e+02	-3.438329e+01
6.395919e+02	-3.443316e+01
6.432862e+02	-3.447720e+01
6.470017e+02	-3.454211e+01
6.507388e+02	-3.458528e+01
6.544974e+02	-3.463818e+01
6.582778e+02	-3.468279e+01
6.620800e+02	-3.472749e+01
6.659041e+02	-3.478378e+01
6.697504e+02	-3.483046e+01
6.736188e+02	-3.488015e+01
6.775096e+02	-3.492911e+01
6.814229e+02	-3.498542e+01
6.853587e+02	-3.503045e+01
6.893173e+02	-3.507948e+01
6.932988e+02	-3.514439e+01
6.973033e+02	-3.518275e+01
7.013309e+02	-3.523204e+01
