Frequency(Hz)	Magnitude(dB)
1.000000e+01	-1.687530e-05
1.005776e+01	-1.707081e-05
1.011585e+01	-1.726858e-05
1.017428e+01	-1.746864e-05
1.023305e+01	-1.767102e-05
1.029215e+01	-1.787574e-05
1.035160e+01	-1.808284e-05
1.041139e+01	-1.829233e-05
1.047153e+01	-1.850425e-05
1.053201e+01	-1.871863e-05
1.059284e+01	-1.893549e-05
1.065403e+01	-1.915486e-05
1.071556e+01	-1.937677e-05
1.077746e+01	-1.960126e-05
1.083971e+01	-1.982834e-05
1.090232e+01	-2.005806e-05
1.096529e+01	-2.029044e-05
1.102862e+01	-2.052551e-05
1.109232e+01	-2.076330e-05
1.115639e+01	-2.100385e-05
1.122083e+01	-2.124718e-05
1.128564e+01	-2.149334e-05
1.135083e+01	-2.174234e-05
1.141639e+01	-2.199423e-05
1.148233e+01	-2.224904e-05
1.154865e+01	-2.250680e-05
1.161536e+01	-2.276755e-05
1.168245e+01	-2.303132e-05
1.174992e+01	-2.329814e-05
1.181779e+01	-2.356806e-05
1.188605e+01	-2.384110e-05
1.195470e+01	-2.411730e-05
1.202375e+01	-2.439671e-05
1.209320e+01	-2.467935e-05
1.216305e+01	-2.496527e-05
1.223330e+01	-2.525450e-05
1.230396e+01	-2.554708e-05
1.237503e+01	-2.584304e-05
1.244651e+01	-2.614244e-05
1.251840e+01	-2.644531e-05
1.259070e+01	-2.675168e-05
1.266343e+01	-2.706161e-05
1.273657e+01	-2.737513e-05
1.281014e+01	-2.769227e-05
1.288413e+01	-2.801309e-05
1.295855e+01	-2.833763e-05
1.303339e+01	-2.866593e-05
1.310867e+01	-2.899803e-05
1.318439e+01	-2.933398e-05
1.326054e+01	-2.967382e-05
1.333713e+01	-3.001760e-05
1.341417e+01	-3.036536e-05
1.349165e+01	-3.071715e-05
1.356958e+01	-3.107302e-05
1.364795e+01	-3.143301e-05
1.372678e+01	-3.179717e-05
1.380607e+01	-3.216554e-05
1.388581e+01	-3.253819e-05
1.396602e+01	-3.291515e-05
1.404668e+01	-3.329648e-05
1.412782e+01	-3.368223e-05
1.420942e+01	-3.407245e-05
1.429149e+01	-3.446718e-05
1.437404e+01	-3.486649e-05
1.445706e+01	-3.527043e-05
1.454057e+01	-3.567905e-05
1.462455e+01	-3.609240e-05
1.470902e+01	-3.651053e-05
1.479398e+01	-3.693352e-05
1.487943e+01	-3.736140e-05
1.496537e+01	-3.779424e-05
1.505181e+01	-3.823210e-05
1.513875e+01	-3.867502e-05
1.522619e+01	-3.912308e-05
1.531414e+01	-3.957633e-05
1.540259e+01	-4.003483e-05
1.549156e+01	-4.049865e-05
1.558103e+01	-4.096783e-05
1.567103e+01	-4.144245e-05
1.576155e+01	-4.192257e-05
1.585258e+01	-4.240826e-05
1.594415e+01	-4.289956e-05
1.603624e+01	-4.339657e-05
1.612886e+01	-4.389932e-05
1.622202e+01	-4.440791e-05
1.631572e+01	-4.492238e-05
1.640996e+01	-4.544282e-05
1.650474e+01	-4.596928e-05
1.660008e+01	-4.650185e-05
1.669596e+01	-4.704058e-05
1.679239e+01	-4.758556e-05
1.688938e+01	-4.813685e-05
1.698694e+01	-4.869452e-05
1.708505e+01	-4.925866e-05
1.718373e+01	-4.982933e-05
1.728299e+01	-5.040661e-05
1.738281e+01	-5.099058e-05
1.748322e+01	-5.158132e-05
1.758420e+01	-5.217890e-05
1.768576e+01	-5.278341e-05
1.778792e+01	-5.339491e-05
1.789066e+01	-5.401350e-05
1.799399e+01	-5.463926e-05
1.809793e+01	-5.527227e-05
1.820246e+01	-5.591261e-05
1.830760e+01	-5.656037e-05
1.841334e+01	-5.721563e-05
1.851969e+01	-5.787849e-05
1.862666e+01	-5.854902e-05
1.873425e+01	-5.922732e-05
1.884246e+01	-5.991348e-05
1.895129e+01	-6.060759e-05
1.906075e+01	-6.130974e-05
1.917085e+01	-6.202003e-05
1.928158e+01	-6.273854e-05
1.939295e+01	-6.346538e-05
1.950496e+01	-6.420064e-05
1.961762e+01	-6.494442e-05
1.973093e+01	-6.569681e-05
1.984490e+01	-6.645792e-05
1.995952e+01	-6.722785e-05
2.007480e+01	-6.800670e-05
2.019076e+01	-6.879457e-05
2.030738e+01	-6.959156e-05
2.042467e+01	-7.039779e-05
2.054264e+01	-7.121337e-05
2.066130e+01	-7.203839e-05
2.078064e+01	-7.287296e-05
2.090066e+01	-7.371721e-05
2.102139e+01	-7.457124e-05
2.114280e+01	-7.543516e-05
2.126492e+01	-7.630909e-05
2.138775e+01	-7.719314e-05
2.151128e+01	-7.808744e-05
2.163553e+01	-7.899209e-05
2.176050e+01	-7.990723e-05
2.188619e+01	-8.083297e-05
2.201260e+01	-8.176943e-05
2.213974e+01	-8.271675e-05
2.226762e+01	-8.367503e-05
2.239624e+01	-8.464442e-05
2.252560e+01	-8.562504e-05
2.265571e+01	-8.661702e-05
2.278656e+01	-8.762050e-05
2.291818e+01	-8.863559e-05
2.305055e+01	-8.966245e-05
2.318369e+01	-9.070121e-05
2.331760e+01	-9.175199e-05
2.345228e+01	-9.281495e-05
2.358774e+01	-9.389023e-05
2.372398e+01	-9.497796e-05
2.386101e+01	-9.607830e-05
2.399883e+01	-9.719138e-05
2.413745e+01	-9.831735e-05
2.427686e+01	-9.945638e-05
2.441709e+01	-1.006086e-04
2.455812e+01	-1.017742e-04
2.469997e+01	-1.029532e-04
2.484263e+01	-1.041460e-04
2.498612e+01	-1.053525e-04
2.513044e+01	-1.065730e-04
2.527559e+01	-1.078077e-04
2.542158e+01	-1.090567e-04
2.556842e+01	-1.103201e-04
2.571610e+01	-1.115982e-04
2.586463e+01	-1.128910e-04
2.601403e+01	-1.141989e-04
2.616428e+01	-1.155219e-04
2.631541e+01	-1.168602e-04
2.646740e+01	-1.182141e-04
2.662028e+01	-1.195836e-04
2.677404e+01	-1.209690e-04
2.692868e+01	-1.223704e-04
2.708422e+01	-1.237881e-04
2.724066e+01	-1.252222e-04
2.739800e+01	-1.266729e-04
2.755625e+01	-1.281404e-04
2.771541e+01	-1.296250e-04
2.787550e+01	-1.311267e-04
2.803650e+01	-1.326458e-04
2.819844e+01	-1.341825e-04
2.836131e+01	-1.357370e-04
2.852513e+01	-1.373096e-04
2.868989e+01	-1.389003e-04
2.885560e+01	-1.405095e-04
2.902227e+01	-1.421373e-04
2.918990e+01	-1.437840e-04
2.935850e+01	-1.454497e-04
2.952807e+01	-1.471348e-04
2.969863e+01	-1.488393e-04
2.987016e+01	-1.505636e-04
3.004269e+01	-1.523079e-04
3.021622e+01	-1.540724e-04
3.039075e+01	-1.558574e-04
3.056628e+01	-1.576630e-04
3.074283e+01	-1.594895e-04
3.092040e+01	-1.613372e-04
3.109900e+01	-1.632063e-04
3.127862e+01	-1.650971e-04
3.145929e+01	-1.670097e-04
3.164099e+01	-1.689446e-04
3.182375e+01	-1.709018e-04
3.200756e+01	-1.728817e-04
3.219244e+01	-1.748845e-04
3.237838e+01	-1.769106e-04
3.256540e+01	-1.789601e-04
3.275349e+01	-1.810334e-04
3.294268e+01	-1.831306e-04
3.313295e+01	-1.852522e-04
3.332433e+01	-1.873984e-04
3.351681e+01	-1.895694e-04
3.371040e+01	-1.917655e-04
3.390511e+01	-1.939871e-04
3.410094e+01	-1.962345e-04
3.429791e+01	-1.985079e-04
3.449601e+01	-2.008076e-04
3.469526e+01	-2.031339e-04
3.489566e+01	-2.054872e-04
3.509721e+01	-2.078678e-04
3.529993e+01	-2.102760e-04
3.550382e+01	-2.127120e-04
3.570889e+01	-2.151763e-04
3.591515e+01	-2.176691e-04
3.612259e+01	-2.201908e-04
3.633123e+01	-2.227417e-04
3.654108e+01	-2.253221e-04
3.675214e+01	-2.279325e-04
3.696442e+01	-2.305731e-04
3.717792e+01	-2.332443e-04
3.739266e+01	-2.359464e-04
3.760864e+01	-2.386798e-04
3.782587e+01	-2.414449e-04
3.804435e+01	-2.442421e-04
3.826409e+01	-2.470716e-04
3.848510e+01	-2.499339e-04
3.870739e+01	-2.528294e-04
3.893096e+01	-2.557584e-04
3.915583e+01	-2.587213e-04
3.938199e+01	-2.617186e-04
3.960946e+01	-2.647506e-04
3.983824e+01	-2.678177e-04
4.006834e+01	-2.709203e-04
4.029978e+01	-2.740589e-04
4.053255e+01	-2.772339e-04
4.076666e+01	-2.804456e-04
4.100213e+01	-2.836945e-04
4.123896e+01	-2.869811e-04
4.147715e+01	-2.903058e-04
4.171672e+01	-2.936689e-04
4.195767e+01	-2.970710e-04
4.220002e+01	-3.005126e-04
4.244377e+01	-3.039940e-04
4.268892e+01	-3.075157e-04
4.293549e+01	-3.110782e-04
4.318348e+01	-3.146820e-04
4.343291e+01	-3.183276e-04
4.368377e+01	-3.220153e-04
4.393609e+01	-3.257458e-04
4.418986e+01	-3.295195e-04
4.444510e+01	-3.333370e-04
4.470182e+01	-3.371986e-04
4.496001e+01	-3.411050e-04
4.521970e+01	-3.450567e-04
4.548089e+01	-3.490541e-04
4.574358e+01	-3.530978e-04
4.600779e+01	-3.571884e-04
4.627353e+01	-3.613263e-04
4.654081e+01	-3.655122e-04
4.680963e+01	-3.697466e-04
4.708000e+01	-3.740300e-04
4.735193e+01	-3.783631e-04
4.762543e+01	-3.827463e-04
4.790051e+01	-3.871803e-04
4.817719e+01	-3.916657e-04
4.845545e+01	-3.962031e-04
4.873533e+01	-4.007930e-04
4.901682e+01	-4.054361e-04
4.929994e+01	-4.101329e-04
4.958470e+01	-4.148842e-04
4.987110e+01	-4.196905e-04
5.015915e+01	-4.245525e-04
5.044887e+01	-4.294708e-04
5.074026e+01	-4.344461e-04
5.103333e+01	-4.394791e-04
5.132810e+01	-4.445703e-04
5.162457e+01	-4.497205e-04
5.192275e+01	-4.549304e-04
5.222265e+01	-4.602006e-04
5.252429e+01	-4.655318e-04
5.282767e+01	-4.709249e-04
5.313280e+01	-4.763803e-04
5.343969e+01	-4.818990e-04
5.374836e+01	-4.874817e-04
5.405880e+01	-4.931289e-04
5.437105e+01	-4.988417e-04
5.468509e+01	-5.046205e-04
5.500095e+01	-5.104664e-04
5.531863e+01	-5.163799e-04
5.563815e+01	-5.223620e-04
5.595951e+01	-5.284133e-04
5.628273e+01	-5.345347e-04
5.660782e+01	-5.407271e-04
5.693479e+01	-5.469912e-04
5.726364e+01	-5.533278e-04
5.759439e+01	-5.597378e-04
5.792705e+01	-5.662221e-04
5.826164e+01	-5.727815e-04
5.859815e+01	-5.794169e-04
5.893662e+01	-5.861292e-04
5.927703e+01	-5.929192e-04
5.961941e+01	-5.997878e-04
5.996377e+01	-6.067361e-04
6.031012e+01	-6.137648e-04
6.065847e+01	-6.208749e-04
6.100883e+01	-6.280674e-04
6.136121e+01	-6.353432e-04
6.171563e+01	-6.427033e-04
6.207210e+01	-6.501486e-04
6.243063e+01	-6.576802e-04
6.279122e+01	-6.652990e-04
6.315390e+01	-6.730061e-04
6.351868e+01	-6.808024e-04
6.388556e+01	-6.886891e-04
6.425456e+01	-6.966671e-04
6.462569e+01	-7.047375e-04
6.499897e+01	-7.129014e-04
6.537440e+01	-7.211599e-04
6.575200e+01	-7.295140e-04
6.613178e+01	-7.379649e-04
6.651375e+01	-7.465137e-04
6.689793e+01	-7.551615e-04
6.728433e+01	-7.639095e-04
6.767297e+01	-7.727588e-04
6.806384e+01	-7.817107e-04
6.845698e+01	-7.907662e-04
6.885238e+01	-7.999266e-04
6.925007e+01	-8.091931e-04
6.965005e+01	-8.185669e-04
7.005235e+01	-8.280493e-04
7.045697e+01	-8.376416e-04
7.086393e+01	-8.473449e-04
7.127323e+01	-8.571607e-04
7.168490e+01	-8.670901e-04
7.209895e+01	-8.771346e-04
7.251539e+01	-8.872954e-04
7.293424e+01	-8.975739e-04
7.335551e+01	-9.079715e-04
7.377920e+01	-9.184894e-04
7.420535e+01	-9.291293e-04
7.463396e+01	-9.398923e-04
7.506504e+01	-9.507800e-04
7.549861e+01	-9.617939e-04
7.593469e+01	-9.729352e-04
7.637328e+01	-9.842057e-04
7.681441e+01	-9.956067e-04
7.725809e+01	-1.007140e-03
7.770433e+01	-1.018806e-03
7.815315e+01	-1.030608e-03
7.860456e+01	-1.042547e-03
7.905857e+01	-1.054623e-03
7.951521e+01	-1.066840e-03
7.997449e+01	-1.079198e-03
8.043642e+01	-1.091699e-03
8.090102e+01	-1.104345e-03
8.136830e+01	-1.117138e-03
8.183828e+01	-1.130078e-03
8.231097e+01	-1.143169e-03
8.278640e+01	-1.156411e-03
8.326457e+01	-1.169807e-03
8.374550e+01	-1.183357e-03
8.422921e+01	-1.197065e-03
8.471572e+01	-1.210931e-03
8.520503e+01	-1.224958e-03
8.569717e+01	-1.239148e-03
8.619215e+01	-1.253501e-03
8.669000e+01	-1.268022e-03
8.719071e+01	-1.282710e-03
8.769432e+01	-1.297568e-03
8.820084e+01	-1.312598e-03
8.871029e+01	-1.327803e-03
8.922267e+01	-1.343183e-03
8.973802e+01	-1.358742e-03
9.025634e+01	-1.374481e-03
9.077766e+01	-1.390402e-03
9.130199e+01	-1.406508e-03
9.182935e+01	-1.422800e-03
9.235975e+01	-1.439281e-03
9.289321e+01	-1.455952e-03
9.342976e+01	-1.472817e-03
9.396941e+01	-1.489877e-03
9.451217e+01	-1.507135e-03
9.505807e+01	-1.524592e-03
9.560712e+01	-1.542252e-03
9.615934e+01	-1.560116e-03
9.671476e+01	-1.578187e-03
9.727338e+01	-1.596468e-03
9.783522e+01	-1.614960e-03
9.840032e+01	-1.633666e-03
9.896867e+01	-1.652589e-03
9.954031e+01	-1.671731e-03
1.001153e+02	-1.691094e-03
1.006935e+02	-1.710682e-03
1.012751e+02	-1.730497e-03
1.018601e+02	-1.750541e-03
1.024484e+02	-1.770818e-03
1.030402e+02	-1.791329e-03
1.036353e+02	-1.812078e-03
1.042339e+02	-1.833067e-03
1.048360e+02	-1.854299e-03
1.054415e+02	-1.875776e-03
1.060505e+02	-1.897503e-03
1.066631e+02	-1.919481e-03
1.072791e+02	-1.941714e-03
1.078988e+02	-1.964204e-03
1.085220e+02	-1.986955e-03
1.091488e+02	-2.009969e-03
1.097793e+02	-2.033250e-03
1.104133e+02	-2.056800e-03
1.110511e+02	-2.080623e-03
1.116925e+02	-2.104721e-03
1.123376e+02	-2.129099e-03
1.129865e+02	-2.153759e-03
1.136391e+02	-2.178705e-03
1.142955e+02	-2.203939e-03
1.149556e+02	-2.229466e-03
1.156196e+02	-2.255288e-03
1.162874e+02	-2.281409e-03
1.169591e+02	-2.307833e-03
1.176347e+02	-2.334563e-03
1.183141e+02	-2.361602e-03
1.189975e+02	-2.388954e-03
1.196848e+02	-2.416623e-03
1.203761e+02	-2.444612e-03
1.210714e+02	-2.472926e-03
1.217707e+02	-2.501567e-03
1.224740e+02	-2.530540e-03
1.231814e+02	-2.559848e-03
1.238929e+02	-2.589496e-03
1.246085e+02	-2.619487e-03
1.253283e+02	-2.649825e-03
1.260522e+02	-2.680514e-03
1.267802e+02	-2.711559e-03
1.275125e+02	-2.742963e-03
1.282490e+02	-2.774731e-03
1.289898e+02	-2.806867e-03
1.297348e+02	-2.839374e-03
1.304842e+02	-2.872258e-03
1.312378e+02	-2.905523e-03
1.319959e+02	-2.939173e-03
1.327583e+02	-2.973212e-03
1.335251e+02	-3.007646e-03
1.342963e+02	-3.042478e-03
1.350720e+02	-3.077713e-03
1.358522e+02	-3.113357e-03
1.366368e+02	-3.149413e-03
1.374260e+02	-3.185886e-03
1.382198e+02	-3.222782e-03
1.390182e+02	-3.260104e-03
1.398211e+02	-3.297859e-03
1.406287e+02	-3.336051e-03
1.414410e+02	-3.374685e-03
1.422579e+02	-3.413766e-03
1.430796e+02	-3.453300e-03
1.439060e+02	-3.493291e-03
1.447372e+02	-3.533745e-03
1.455732e+02	-3.574668e-03
1.464141e+02	-3.616064e-03
1.472597e+02	-3.657939e-03
1.481103e+02	-3.700299e-03
1.489658e+02	-3.743150e-03
1.498262e+02	-3.786496e-03
1.506916e+02	-3.830345e-03
1.515620e+02	-3.874700e-03
1.524374e+02	-3.919569e-03
1.533179e+02	-3.964958e-03
1.542034e+02	-4.010872e-03
1.550941e+02	-4.057317e-03
1.559899e+02	-4.104300e-03
1.568909e+02	-4.151826e-03
1.577971e+02	-4.199903e-03
1.587085e+02	-4.248536e-03
1.596252e+02	-4.297732e-03
1.605472e+02	-4.347497e-03
1.614745e+02	-4.397839e-03
1.624072e+02	-4.448763e-03
1.633453e+02	-4.500276e-03
1.642887e+02	-4.552385e-03
1.652377e+02	-4.605098e-03
1.661921e+02	-4.658421e-03
1.671520e+02	-4.712360e-03
1.681175e+02	-4.766924e-03
1.690885e+02	-4.822119e-03
1.700651e+02	-4.877954e-03
1.710474e+02	-4.934434e-03
1.720354e+02	-4.991567e-03
1.730291e+02	-5.049362e-03
1.740285e+02	-5.107826e-03
1.750337e+02	-5.166966e-03
1.760446e+02	-5.226791e-03
1.770615e+02	-5.287308e-03
1.780842e+02	-5.348525e-03
1.791128e+02	-5.410450e-03
1.801473e+02	-5.473092e-03
1.811878e+02	-5.536458e-03
1.822344e+02	-5.600558e-03
1.832870e+02	-5.665400e-03
1.843456e+02	-5.730991e-03
1.854104e+02	-5.797342e-03
1.864813e+02	-5.864460e-03
1.875584e+02	-5.932355e-03
1.886418e+02	-6.001035e-03
1.897313e+02	-6.070510e-03
1.908272e+02	-6.140789e-03
1.919294e+02	-6.211880e-03
1.930380e+02	-6.283794e-03
1.941530e+02	-6.356540e-03
1.952744e+02	-6.430128e-03
1.964023e+02	-6.504566e-03
1.975367e+02	-6.579866e-03
1.986777e+02	-6.656037e-03
1.998252e+02	-6.733089e-03
2.009794e+02	-6.811032e-03
2.021403e+02	-6.889877e-03
2.033078e+02	-6.969634e-03
2.044821e+02	-7.050313e-03
2.056632e+02	-7.131925e-03
2.068511e+02	-7.214482e-03
2.080459e+02	-7.297993e-03
2.092475e+02	-7.382470e-03
2.104561e+02	-7.467924e-03
2.116717e+02	-7.554366e-03
2.128943e+02	-7.641808e-03
2.141240e+02	-7.730262e-03
2.153608e+02	-7.819738e-03
2.166047e+02	-7.910249e-03
2.178558e+02	-8.001806e-03
2.191141e+02	-8.094423e-03
2.203797e+02	-8.188110e-03
2.216526e+02	-8.282880e-03
2.229329e+02	-8.378747e-03
2.242205e+02	-8.475722e-03
2.255156e+02	-8.573818e-03
2.268182e+02	-8.673048e-03
2.281283e+02	-8.773426e-03
2.294459e+02	-8.874964e-03
2.307712e+02	-8.977676e-03
2.321041e+02	-9.081576e-03
2.334447e+02	-9.186677e-03
2.347931e+02	-9.292992e-03
2.361493e+02	-9.400537e-03
2.375133e+02	-9.509325e-03
2.388851e+02	-9.619371e-03
2.402649e+02	-9.730688e-03
2.416527e+02	-9.843293e-03
2.430484e+02	-9.957198e-03
2.444523e+02	-1.007242e-02
2.458642e+02	-1.018898e-02
2.472843e+02	-1.030688e-02
2.487126e+02	-1.042614e-02
2.501492e+02	-1.054678e-02
2.515940e+02	-1.066882e-02
2.530472e+02	-1.079227e-02
2.545088e+02	-1.091714e-02
2.559789e+02	-1.104346e-02
2.574574e+02	-1.117123e-02
2.589444e+02	-1.130048e-02
2.604401e+02	-1.143123e-02
2.619444e+02	-1.156349e-02
2.634574e+02	-1.169727e-02
2.649791e+02	-1.183260e-02
2.665096e+02	-1.196950e-02
2.680489e+02	-1.210797e-02
2.695972e+02	-1.224805e-02
2.711544e+02	-1.238974e-02
2.727205e+02	-1.253307e-02
2.742958e+02	-1.267806e-02
2.758801e+02	-1.282472e-02
2.774736e+02	-1.297307e-02
2.790762e+02	-1.312314e-02
2.806882e+02	-1.327494e-02
2.823094e+02	-1.342850e-02
2.839400e+02	-1.358383e-02
2.855800e+02	-1.374095e-02
2.872295e+02	-1.389989e-02
2.888886e+02	-1.406066e-02
2.905572e+02	-1.422329e-02
2.922354e+02	-1.438779e-02
2.939234e+02	-1.455420e-02
2.956211e+02	-1.472253e-02
2.973286e+02	-1.489280e-02
2.990459e+02	-1.506503e-02
3.007732e+02	-1.523926e-02
3.025104e+02	-1.541550e-02
3.042577e+02	-1.559377e-02
3.060151e+02	-1.577410e-02
3.077826e+02	-1.595651e-02
3.095604e+02	-1.614102e-02
3.113484e+02	-1.632767e-02
3.131467e+02	-1.651646e-02
3.149554e+02	-1.670744e-02
3.167746e+02	-1.690062e-02
3.186043e+02	-1.709604e-02
3.204445e+02	-1.729370e-02
3.222954e+02	-1.749365e-02
3.241570e+02	-1.769590e-02
3.260293e+02	-1.790049e-02
3.279124e+02	-1.810744e-02
3.298064e+02	-1.831677e-02
3.317114e+02	-1.852852e-02
3.336273e+02	-1.874272e-02
3.355544e+02	-1.895938e-02
3.374925e+02	-1.917854e-02
3.394418e+02	-1.940023e-02
3.414024e+02	-1.962448e-02
3.433744e+02	-1.985131e-02
3.453577e+02	-2.008076e-02
3.473525e+02	-2.031286e-02
3.493588e+02	-2.054763e-02
3.513766e+02	-2.078511e-02
3.534062e+02	-2.102532e-02
3.554474e+02	-2.126831e-02
3.575005e+02	-2.151409e-02
3.595654e+02	-2.176271e-02
3.616422e+02	-2.201420e-02
3.637311e+02	-2.226858e-02
3.658320e+02	-2.252590e-02
3.679450e+02	-2.278618e-02
3.700702e+02	-2.304946e-02
3.722077e+02	-2.331577e-02
3.743576e+02	-2.358516e-02
3.765199e+02	-2.385764e-02
3.786946e+02	-2.413327e-02
3.808820e+02	-2.441207e-02
3.830819e+02	-2.469409e-02
3.852946e+02	-2.497935e-02
3.875200e+02	-2.526789e-02
3.897583e+02	-2.555977e-02
3.920096e+02	-2.585500e-02
3.942738e+02	-2.615363e-02
3.965511e+02	-2.645570e-02
3.988416e+02	-2.676125e-02
4.011452e+02	-2.707031e-02
4.034622e+02	-2.738294e-02
4.057926e+02	-2.769916e-02
4.081365e+02	-2.801903e-02
4.104938e+02	-2.834257e-02
4.128648e+02	-2.866984e-02
4.152495e+02	-2.900087e-02
4.176480e+02	-2.933572e-02
4.200603e+02	-2.967442e-02
4.224866e+02	-3.001701e-02
4.249268e+02	-3.036354e-02
4.273812e+02	-3.071407e-02
4.298497e+02	-3.106862e-02
4.323325e+02	-3.142725e-02
4.348297e+02	-3.179001e-02
4.373412e+02	-3.215694e-02
4.398673e+02	-3.252808e-02
4.424079e+02	-3.290350e-02
4.449633e+02	-3.328323e-02
4.475334e+02	-3.366732e-02
4.501183e+02	-3.405583e-02
4.527182e+02	-3.444881e-02
4.553330e+02	-3.484630e-02
4.579630e+02	-3.524836e-02
4.606082e+02	-3.565504e-02
4.632687e+02	-3.606640e-02
4.659445e+02	-3.648247e-02
4.686358e+02	-3.690333e-02
4.713426e+02	-3.732902e-02
4.740650e+02	-3.775961e-02
4.768032e+02	-3.819513e-02
4.795572e+02	-3.863566e-02
4.823271e+02	-3.908124e-02
4.851130e+02	-3.953194e-02
4.879150e+02	-3.998782e-02
4.907332e+02	-4.044892e-02
4.935676e+02	-4.091532e-02
4.964185e+02	-4.138707e-02
4.992858e+02	-4.186424e-02
5.021696e+02	-4.234687e-02
5.050701e+02	-4.283505e-02
5.079874e+02	-4.332882e-02
5.109215e+02	-4.382826e-02
5.138726e+02	-4.433342e-02
5.168407e+02	-4.484438e-02
5.198259e+02	-4.536119e-02
5.228284e+02	-4.588393e-02
5.258482e+02	-4.641266e-02
5.288855e+02	-4.694745e-02
5.319403e+02	-4.748837e-02
5.350128e+02	-4.803549e-02
5.381030e+02	-4.858887e-02
5.412111e+02	-4.914859e-02
5.443371e+02	-4.971473e-02
5.474812e+02	-5.028735e-02
5.506434e+02	-5.086652e-02
5.538239e+02	-5.145232e-02
5.570228e+02	-5.204483e-02
5.602401e+02	-5.264413e-02
5.634760e+02	-5.325028e-02
5.667306e+02	-5.386336e-02
5.700040e+02	-5.448346e-02
5.732964e+02	-5.511066e-02
5.766077e+02	-5.574502e-02
5.799382e+02	-5.638665e-02
5.832879e+02	-5.703560e-02
5.866569e+02	-5.769198e-02
5.900454e+02	-5.835586e-02
5.934535e+02	-5.902733e-02
5.968813e+02	-5.970647e-02
6.003288e+02	-6.039337e-02
6.037963e+02	-6.108812e-02
6.072838e+02	-6.179080e-02
6.107914e+02	-6.250150e-02
6.143194e+02	-6.322032e-02
6.178676e+02	-6.394735e-02
6.214364e+02	-6.468267e-02
6.250258e+02	-6.542639e-02
6.286359e+02	-6.617859e-02
6.322669e+02	-6.693938e-02
6.359189e+02	-6.770884e-02
6.395919e+02	-6.848707e-02
6.432862e+02	-6.927418e-02
6.470017e+02	-7.007026e-02
6.507388e+02	-7.087542e-02
6.544974e+02	-7.168975e-02
6.582778e+02	-7.251336e-02
6.620800e+02	-7.334635e-02
6.659041e+02	-7.418882e-02
6.697504e+02	-7.504089e-02
6.736188e+02	-7.590267e-02
6.775096e+02	-7.677424e-02
6.814229e+02	-7.765574e-02
6.853587e+02	-7.854727e-02
6.893173e+02	-7.944894e-02
6.932988e+02	-8.036086e-02
6.973033e+02	-8.128315e-02
7.013309e+02	-8.221593e-02
