Frequency(Hz)	Magnitude(dB)
1.000000e+01	-1.641619e-05
1.005776e+01	-1.660638e-05
1.011585e+01	-1.679877e-05
1.017428e+01	-1.699339e-05
1.023305e+01	-1.719026e-05
1.029215e+01	-1.738941e-05
1.035160e+01	-1.759087e-05
1.041139e+01	-1.779467e-05
1.047153e+01	-1.800082e-05
1.053201e+01	-1.820937e-05
1.059284e+01	-1.842033e-05
1.065403e+01	-1.863373e-05
1.071556e+01	-1.884961e-05
1.077746e+01	-1.906799e-05
1.083971e+01	-1.928889e-05
1.090232e+01	-1.951236e-05
1.096529e+01	-1.973842e-05
1.102862e+01	-1.996709e-05
1.109232e+01	-2.019841e-05
1.115639e+01	-2.043242e-05
1.122083e+01	-2.066913e-05
1.128564e+01	-2.090859e-05
1.135083e+01	-2.115082e-05
1.141639e+01	-2.139586e-05
1.148233e+01	-2.164373e-05
1.154865e+01	-2.189448e-05
1.161536e+01	-2.214814e-05
1.168245e+01	-2.240473e-05
1.174992e+01	-2.266429e-05
1.181779e+01	-2.292686e-05
1.188605e+01	-2.319248e-05
1.195470e+01	-2.346117e-05
1.202375e+01	-2.373297e-05
1.209320e+01	-2.400792e-05
1.216305e+01	-2.428606e-05
1.223330e+01	-2.456742e-05
1.230396e+01	-2.485204e-05
1.237503e+01	-2.513996e-05
1.244651e+01	-2.543121e-05
1.251840e+01	-2.572584e-05
1.259070e+01	-2.602388e-05
1.266343e+01	-2.632537e-05
1.273657e+01	-2.663036e-05
1.281014e+01	-2.693887e-05
1.288413e+01	-2.725097e-05
1.295855e+01	-2.756668e-05
1.303339e+01	-2.788604e-05
1.310867e+01	-2.820911e-05
1.318439e+01	-2.853592e-05
1.326054e+01	-2.886652e-05
1.333713e+01	-2.920094e-05
1.341417e+01	-2.953924e-05
1.349165e+01	-2.988146e-05
1.356958e+01	-3.022764e-05
1.364795e+01	-3.057784e-05
1.372678e+01	-3.093209e-05
1.380607e+01	-3.129045e-05
1.388581e+01	-3.165295e-05
1.396602e+01	-3.201966e-05
1.404668e+01	-3.239062e-05
1.412782e+01	-3.276587e-05
1.420942e+01	-3.314547e-05
1.429149e+01	-3.352947e-05
1.437404e+01	-3.391791e-05
1.445706e+01	-3.431086e-05
1.454057e+01	-3.470836e-05
1.462455e+01	-3.511046e-05
1.470902e+01	-3.551723e-05
1.479398e+01	-3.592870e-05
1.487943e+01	-3.634494e-05
1.496537e+01	-3.676601e-05
1.505181e+01	-3.719195e-05
1.513875e+01	-3.762283e-05
1.522619e+01	-3.805870e-05
1.531414e+01	-3.849962e-05
1.540259e+01	-3.894564e-05
1.549156e+01	-3.939684e-05
1.558103e+01	-3.985326e-05
1.567103e+01	-4.031497e-05
1.576155e+01	-4.078203e-05
1.585258e+01	-4.125450e-05
1.594415e+01	-4.173244e-05
1.603624e+01	-4.221592e-05
1.612886e+01	-4.270500e-05
1.622202e+01	-4.319975e-05
1.631572e+01	-4.370022e-05
1.640996e+01	-4.420650e-05
1.650474e+01	-4.471864e-05
1.660008e+01	-4.523672e-05
1.669596e+01	-4.576080e-05
1.679239e+01	-4.629094e-05
1.688938e+01	-4.682723e-05
1.698694e+01	-4.736974e-05
1.708505e+01	-4.791853e-05
1.718373e+01	-4.847367e-05
1.728299e+01	-4.903525e-05
1.738281e+01	-4.960334e-05
1.748322e+01	-5.017800e-05
1.758420e+01	-5.075932e-05
1.768576e+01	-5.134738e-05
1.778792e+01	-5.194225e-05
1.789066e+01	-5.254401e-05
1.799399e+01	-5.315275e-05
1.809793e+01	-5.376853e-05
1.820246e+01	-5.439145e-05
1.830760e+01	-5.502159e-05
1.841334e+01	-5.565902e-05
1.851969e+01	-5.630385e-05
1.862666e+01	-5.695614e-05
1.873425e+01	-5.761598e-05
1.884246e+01	-5.828348e-05
1.895129e+01	-5.895870e-05
1.906075e+01	-5.964175e-05
1.917085e+01	-6.033271e-05
1.928158e+01	-6.103168e-05
1.939295e+01	-6.173874e-05
1.950496e+01	-6.245400e-05
1.961762e+01	-6.317754e-05
1.973093e+01	-6.390947e-05
1.984490e+01	-6.464987e-05
1.995952e+01	-6.539885e-05
2.007480e+01	-6.615651e-05
2.019076e+01	-6.692294e-05
2.030738e+01	-6.769826e-05
2.042467e+01	-6.848256e-05
2.054264e+01	-6.927594e-05
2.066130e+01	-7.007851e-05
2.078064e+01	-7.089039e-05
2.090066e+01	-7.171167e-05
2.102139e+01	-7.254246e-05
2.114280e+01	-7.338288e-05
2.126492e+01	-7.423303e-05
2.138775e+01	-7.509303e-05
2.151128e+01	-7.596300e-05
2.163553e+01	-7.684304e-05
2.176050e+01	-7.773328e-05
2.188619e+01	-7.863384e-05
2.201260e+01	-7.954482e-05
2.213974e+01	-8.046636e-05
2.226762e+01	-8.139858e-05
2.239624e+01	-8.234160e-05
2.252560e+01	-8.329554e-05
2.265571e+01	-8.426053e-05
2.278656e+01	-8.523670e-05
2.291818e+01	-8.622418e-05
2.305055e+01	-8.722311e-05
2.318369e+01	-8.823360e-05
2.331760e+01	-8.925580e-05
2.345228e+01	-9.028984e-05
2.358774e+01	-9.133586e-05
2.372398e+01	-9.239401e-05
2.386101e+01	-9.346440e-05
2.399883e+01	-9.454720e-05
2.413745e+01	-9.564255e-05
2.427686e+01	-9.675058e-05
2.441709e+01	-9.787145e-05
2.455812e+01	-9.900531e-05
2.469997e+01	-1.001523e-04
2.484263e+01	-1.013126e-04
2.498612e+01	-1.024863e-04
2.513044e+01	-1.036736e-04
2.527559e+01	-1.048747e-04
2.542158e+01	-1.060897e-04
2.556842e+01	-1.073187e-04
2.571610e+01	-1.085620e-04
2.586463e+01	-1.098197e-04
2.601403e+01	-1.110920e-04
2.616428e+01	-1.123790e-04
2.631541e+01	-1.136810e-04
2.646740e+01	-1.149980e-04
2.662028e+01	-1.163302e-04
2.677404e+01	-1.176779e-04
2.692868e+01	-1.190413e-04
2.708422e+01	-1.204204e-04
2.724066e+01	-1.218154e-04
2.739800e+01	-1.232267e-04
2.755625e+01	-1.246543e-04
2.771541e+01	-1.260984e-04
2.787550e+01	-1.275593e-04
2.803650e+01	-1.290371e-04
2.819844e+01	-1.305320e-04
2.836131e+01	-1.320442e-04
2.852513e+01	-1.335739e-04
2.868989e+01	-1.351214e-04
2.885560e+01	-1.366868e-04
2.902227e+01	-1.382703e-04
2.918990e+01	-1.398722e-04
2.935850e+01	-1.414926e-04
2.952807e+01	-1.431319e-04
2.969863e+01	-1.447900e-04
2.987016e+01	-1.464675e-04
3.004269e+01	-1.481643e-04
3.021622e+01	-1.498808e-04
3.039075e+01	-1.516172e-04
3.056628e+01	-1.533737e-04
3.074283e+01	-1.551505e-04
3.092040e+01	-1.569479e-04
3.109900e+01	-1.587662e-04
3.127862e+01	-1.606055e-04
3.145929e+01	-1.624661e-04
3.164099e+01	-1.643483e-04
3.182375e+01	-1.662523e-04
3.200756e+01	-1.681783e-04
3.219244e+01	-1.701267e-04
3.237838e+01	-1.720976e-04
3.256540e+01	-1.740914e-04
3.275349e+01	-1.761082e-04
3.294268e+01	-1.781485e-04
3.313295e+01	-1.802123e-04
3.332433e+01	-1.823001e-04
3.351681e+01	-1.844120e-04
3.371040e+01	-1.865484e-04
3.390511e+01	-1.887096e-04
3.410094e+01	-1.908958e-04
3.429791e+01	-1.931074e-04
3.449601e+01	-1.953445e-04
3.469526e+01	-1.976076e-04
3.489566e+01	-1.998969e-04
3.509721e+01	-2.022127e-04
3.529993e+01	-2.045553e-04
3.550382e+01	-2.069251e-04
3.570889e+01	-2.093223e-04
3.591515e+01	-2.117473e-04
3.612259e+01	-2.142004e-04
3.633123e+01	-2.166819e-04
3.654108e+01	-2.191922e-04
3.675214e+01	-2.217315e-04
3.696442e+01	-2.243003e-04
3.717792e+01	-2.268988e-04
3.739266e+01	-2.295274e-04
3.760864e+01	-2.321864e-04
3.782587e+01	-2.348763e-04
3.804435e+01	-2.375974e-04
3.826409e+01	-2.403499e-04
3.848510e+01	-2.431344e-04
3.870739e+01	-2.459510e-04
3.893096e+01	-2.488004e-04
3.915583e+01	-2.516827e-04
3.938199e+01	-2.545984e-04
3.960946e+01	-2.575480e-04
3.983824e+01	-2.605316e-04
4.006834e+01	-2.635499e-04
4.029978e+01	-2.666031e-04
4.053255e+01	-2.696916e-04
4.076666e+01	-2.728160e-04
4.100213e+01	-2.759766e-04
4.123896e+01	-2.791737e-04
4.147715e+01	-2.824079e-04
4.171672e+01	-2.856796e-04
4.195767e+01	-2.889891e-04
4.220002e+01	-2.923371e-04
4.244377e+01	-2.957237e-04
4.268892e+01	-2.991497e-04
4.293549e+01	-3.026153e-04
4.318348e+01	-3.061210e-04
4.343291e+01	-3.096674e-04
4.368377e+01	-3.132549e-04
4.393609e+01	-3.168839e-04
4.418986e+01	-3.205549e-04
4.444510e+01	-3.242685e-04
4.470182e+01	-3.280251e-04
4.496001e+01	-3.318252e-04
4.521970e+01	-3.356694e-04
4.548089e+01	-3.395580e-04
4.574358e+01	-3.434918e-04
4.600779e+01	-3.474710e-04
4.627353e+01	-3.514964e-04
4.654081e+01	-3.555684e-04
4.680963e+01	-3.596876e-04
4.708000e+01	-3.638545e-04
4.735193e+01	-3.680697e-04
4.762543e+01	-3.723337e-04
4.790051e+01	-3.766471e-04
4.817719e+01	-3.810105e-04
4.845545e+01	-3.854244e-04
4.873533e+01	-3.898895e-04
4.901682e+01	-3.944062e-04
4.929994e+01	-3.989753e-04
4.958470e+01	-4.035974e-04
4.987110e+01	-4.082729e-04
5.015915e+01	-4.130026e-04
5.044887e+01	-4.177872e-04
5.074026e+01	-4.226271e-04
5.103333e+01	-4.275231e-04
5.132810e+01	-4.324759e-04
5.162457e+01	-4.374860e-04
5.192275e+01	-4.425541e-04
5.222265e+01	-4.476809e-04
5.252429e+01	-4.528672e-04
5.282767e+01	-4.581135e-04
5.313280e+01	-4.634206e-04
5.343969e+01	-4.687891e-04
5.374836e+01	-4.742199e-04
5.405880e+01	-4.797136e-04
5.437105e+01	-4.852709e-04
5.468509e+01	-4.908925e-04
5.500095e+01	-4.965793e-04
5.531863e+01	-5.023320e-04
5.563815e+01	-5.081513e-04
5.595951e+01	-5.140381e-04
5.628273e+01	-5.199930e-04
5.660782e+01	-5.260169e-04
5.693479e+01	-5.321106e-04
5.726364e+01	-5.382748e-04
5.759439e+01	-5.445105e-04
5.792705e+01	-5.508184e-04
5.826164e+01	-5.571994e-04
5.859815e+01	-5.636543e-04
5.893662e+01	-5.701839e-04
5.927703e+01	-5.767892e-04
5.961941e+01	-5.834710e-04
5.996377e+01	-5.902303e-04
6.031012e+01	-5.970678e-04
6.065847e+01	-6.039845e-04
6.100883e+01	-6.109813e-04
6.136121e+01	-6.180592e-04
6.171563e+01	-6.252191e-04
6.207210e+01	-6.324619e-04
6.243063e+01	-6.397886e-04
6.279122e+01	-6.472002e-04
6.315390e+01	-6.546976e-04
6.351868e+01	-6.622819e-04
6.388556e+01	-6.699540e-04
6.425456e+01	-6.777150e-04
6.462569e+01	-6.855659e-04
6.499897e+01	-6.935077e-04
6.537440e+01	-7.015415e-04
6.575200e+01	-7.096684e-04
6.613178e+01	-7.178894e-04
6.651375e+01	-7.262057e-04
6.689793e+01	-7.346183e-04
6.728433e+01	-7.431283e-04
6.767297e+01	-7.517369e-04
6.806384e+01	-7.604452e-04
6.845698e+01	-7.692544e-04
6.885238e+01	-7.781656e-04
6.925007e+01	-7.871801e-04
6.965005e+01	-7.962989e-04
7.005235e+01	-8.055234e-04
7.045697e+01	-8.148548e-04
7.086393e+01	-8.242942e-04
7.127323e+01	-8.338429e-04
7.168490e+01	-8.435023e-04
7.209895e+01	-8.532735e-04
7.251539e+01	-8.631580e-04
7.293424e+01	-8.731569e-04
7.335551e+01	-8.832716e-04
7.377920e+01	-8.935035e-04
7.420535e+01	-9.038539e-04
7.463396e+01	-9.143242e-04
7.506504e+01	-9.249158e-04
7.549861e+01	-9.356300e-04
7.593469e+01	-9.464684e-04
7.637328e+01	-9.574323e-04
7.681441e+01	-9.685231e-04
7.725809e+01	-9.797425e-04
7.770433e+01	-9.910918e-04
7.815315e+01	-1.002573e-03
7.860456e+01	-1.014186e-03
7.905857e+01	-1.025934e-03
7.951521e+01	-1.037819e-03
7.997449e+01	-1.049841e-03
8.043642e+01	-1.062002e-03
8.090102e+01	-1.074304e-03
8.136830e+01	-1.086749e-03
8.183828e+01	-1.099337e-03
8.231097e+01	-1.112072e-03
8.278640e+01	-1.124954e-03
8.326457e+01	-1.137985e-03
8.374550e+01	-1.151167e-03
8.422921e+01	-1.164502e-03
8.471572e+01	-1.177991e-03
8.520503e+01	-1.191637e-03
8.569717e+01	-1.205440e-03
8.619215e+01	-1.219403e-03
8.669000e+01	-1.233529e-03
8.719071e+01	-1.247817e-03
8.769432e+01	-1.262271e-03
8.820084e+01	-1.276893e-03
8.871029e+01	-1.291684e-03
8.922267e+01	-1.306646e-03
8.973802e+01	-1.321782e-03
9.025634e+01	-1.337093e-03
9.077766e+01	-1.352581e-03
9.130199e+01	-1.368248e-03
9.182935e+01	-1.384097e-03
9.235975e+01	-1.400130e-03
9.289321e+01	-1.416348e-03
9.342976e+01	-1.432754e-03
9.396941e+01	-1.449350e-03
9.451217e+01	-1.466139e-03
9.505807e+01	-1.483121e-03
9.560712e+01	-1.500301e-03
9.615934e+01	-1.517679e-03
9.671476e+01	-1.535259e-03
9.727338e+01	-1.553042e-03
9.783522e+01	-1.571031e-03
9.840032e+01	-1.589228e-03
9.896867e+01	-1.607637e-03
9.954031e+01	-1.626258e-03
1.001153e+02	-1.645095e-03
1.006935e+02	-1.664150e-03
1.012751e+02	-1.683426e-03
1.018601e+02	-1.702925e-03
1.024484e+02	-1.722650e-03
1.030402e+02	-1.742604e-03
1.036353e+02	-1.762788e-03
1.042339e+02	-1.783206e-03
1.048360e+02	-1.803861e-03
1.054415e+02	-1.824755e-03
1.060505e+02	-1.845891e-03
1.066631e+02	-1.867271e-03
1.072791e+02	-1.888899e-03
1.078988e+02	-1.910778e-03
1.085220e+02	-1.932910e-03
1.091488e+02	-1.955298e-03
1.097793e+02	-1.977945e-03
1.104133e+02	-2.000855e-03
1.110511e+02	-2.024030e-03
1.116925e+02	-2.047474e-03
1.123376e+02	-2.071189e-03
1.129865e+02	-2.095178e-03
1.136391e+02	-2.119445e-03
1.142955e+02	-2.143994e-03
1.149556e+02	-2.168826e-03
1.156196e+02	-2.193946e-03
1.162874e+02	-2.219357e-03
1.169591e+02	-2.245062e-03
1.176347e+02	-2.271065e-03
1.183141e+02	-2.297369e-03
1.189975e+02	-2.323978e-03
1.196848e+02	-2.350894e-03
1.203761e+02	-2.378122e-03
1.210714e+02	-2.405666e-03
1.217707e+02	-2.433528e-03
1.224740e+02	-2.461714e-03
1.231814e+02	-2.490225e-03
1.238929e+02	-2.519067e-03
1.246085e+02	-2.548242e-03
1.253283e+02	-2.577755e-03
1.260522e+02	-2.607610e-03
1.267802e+02	-2.637811e-03
1.275125e+02	-2.668361e-03
1.282490e+02	-2.699265e-03
1.289898e+02	-2.730527e-03
1.297348e+02	-2.762151e-03
1.304842e+02	-2.794141e-03
1.312378e+02	-2.826501e-03
1.319959e+02	-2.859236e-03
1.327583e+02	-2.892350e-03
1.335251e+02	-2.925848e-03
1.342963e+02	-2.959733e-03
1.350720e+02	-2.994010e-03
1.358522e+02	-3.028684e-03
1.366368e+02	-3.063760e-03
1.374260e+02	-3.099242e-03
1.382198e+02	-3.135135e-03
1.390182e+02	-3.171443e-03
1.398211e+02	-3.208171e-03
1.406287e+02	-3.245325e-03
1.414410e+02	-3.282908e-03
1.422579e+02	-3.320927e-03
1.430796e+02	-3.359386e-03
1.439060e+02	-3.398290e-03
1.447372e+02	-3.437645e-03
1.455732e+02	-3.477455e-03
1.464141e+02	-3.517726e-03
1.472597e+02	-3.558463e-03
1.481103e+02	-3.599671e-03
1.489658e+02	-3.641357e-03
1.498262e+02	-3.683525e-03
1.506916e+02	-3.726181e-03
1.515620e+02	-3.769331e-03
1.524374e+02	-3.812981e-03
1.533179e+02	-3.857136e-03
1.542034e+02	-3.901801e-03
1.550941e+02	-3.946984e-03
1.559899e+02	-3.992690e-03
1.568909e+02	-4.038925e-03
1.577971e+02	-4.085695e-03
1.587085e+02	-4.133006e-03
1.596252e+02	-4.180865e-03
1.605472e+02	-4.229278e-03
1.614745e+02	-4.278251e-03
1.624072e+02	-4.327791e-03
1.633453e+02	-4.377904e-03
1.642887e+02	-4.428597e-03
1.652377e+02	-4.479877e-03
1.661921e+02	-4.531751e-03
1.671520e+02	-4.584224e-03
1.681175e+02	-4.637305e-03
1.690885e+02	-4.691001e-03
1.700651e+02	-4.745317e-03
1.710474e+02	-4.800263e-03
1.720354e+02	-4.855844e-03
1.730291e+02	-4.912068e-03
1.740285e+02	-4.968943e-03
1.750337e+02	-5.026476e-03
1.760446e+02	-5.084675e-03
1.770615e+02	-5.143547e-03
1.780842e+02	-5.203101e-03
1.791128e+02	-5.263344e-03
1.801473e+02	-5.324283e-03
1.811878e+02	-5.385928e-03
1.822344e+02	-5.448286e-03
1.832870e+02	-5.511366e-03
1.843456e+02	-5.575175e-03
1.854104e+02	-5.639723e-03
1.864813e+02	-5.705018e-03
1.875584e+02	-5.771068e-03
1.886418e+02	-5.837882e-03
1.897313e+02	-5.905470e-03
1.908272e+02	-5.973839e-03
1.919294e+02	-6.042999e-03
1.930380e+02	-6.112959e-03
1.941530e+02	-6.183729e-03
1.952744e+02	-6.255317e-03
1.964023e+02	-6.327734e-03
1.975367e+02	-6.400988e-03
1.986777e+02	-6.475090e-03
1.998252e+02	-6.550049e-03
2.009794e+02	-6.625875e-03
2.021403e+02	-6.702578e-03
2.033078e+02	-6.780168e-03
2.044821e+02	-6.858656e-03
2.056632e+02	-6.938052e-03
2.068511e+02	-7.018366e-03
2.080459e+02	-7.099609e-03
2.092475e+02	-7.181791e-03
2.104561e+02	-7.264924e-03
2.116717e+02	-7.349019e-03
2.128943e+02	-7.434086e-03
2.141240e+02	-7.520137e-03
2.153608e+02	-7.607183e-03
2.166047e+02	-7.695236e-03
2.178558e+02	-7.784307e-03
2.191141e+02	-7.874409e-03
2.203797e+02	-7.965552e-03
2.216526e+02	-8.057749e-03
2.229329e+02	-8.151012e-03
2.242205e+02	-8.245354e-03
2.255156e+02	-8.340786e-03
2.268182e+02	-8.437322e-03
2.281283e+02	-8.534975e-03
2.294459e+02	-8.633756e-03
2.307712e+02	-8.733679e-03
2.321041e+02	-8.834758e-03
2.334447e+02	-8.937005e-03
2.347931e+02	-9.040435e-03
2.361493e+02	-9.145060e-03
2.375133e+02	-9.250895e-03
2.388851e+02	-9.357953e-03
2.402649e+02	-9.466249e-03
2.416527e+02	-9.575796e-03
2.430484e+02	-9.686610e-03
2.444523e+02	-9.798705e-03
2.458642e+02	-9.912096e-03
2.472843e+02	-1.002680e-02
2.487126e+02	-1.014282e-02
2.501492e+02	-1.026019e-02
2.515940e+02	-1.037892e-02
2.530472e+02	-1.049901e-02
2.545088e+02	-1.062050e-02
2.559789e+02	-1.074339e-02
2.574574e+02	-1.086769e-02
2.589444e+02	-1.099344e-02
2.604401e+02	-1.112064e-02
2.619444e+02	-1.124931e-02
2.634574e+02	-1.137946e-02
2.649791e+02	-1.151112e-02
2.665096e+02	-1.164430e-02
2.680489e+02	-1.177902e-02
2.695972e+02	-1.191529e-02
2.711544e+02	-1.205314e-02
2.727205e+02	-1.219259e-02
2.742958e+02	-1.233364e-02
2.758801e+02	-1.247632e-02
2.774736e+02	-1.262065e-02
2.790762e+02	-1.276665e-02
2.806882e+02	-1.291433e-02
2.823094e+02	-1.306372e-02
2.839400e+02	-1.321484e-02
2.855800e+02	-1.336770e-02
2.872295e+02	-1.352233e-02
2.888886e+02	-1.367874e-02
2.905572e+02	-1.383696e-02
2.922354e+02	-1.399700e-02
2.939234e+02	-1.415890e-02
2.956211e+02	-1.432266e-02
2.973286e+02	-1.448831e-02
2.990459e+02	-1.465588e-02
3.007732e+02	-1.482538e-02
3.025104e+02	-1.499684e-02
3.042577e+02	-1.517028e-02
3.060151e+02	-1.534572e-02
3.077826e+02	-1.552318e-02
3.095604e+02	-1.570270e-02
3.113484e+02	-1.588428e-02
3.131467e+02	-1.606796e-02
3.149554e+02	-1.625377e-02
3.167746e+02	-1.644171e-02
3.186043e+02	-1.663183e-02
3.204445e+02	-1.682414e-02
3.222954e+02	-1.701867e-02
3.241570e+02	-1.721544e-02
3.260293e+02	-1.741448e-02
3.279124e+02	-1.761583e-02
3.298064e+02	-1.781949e-02
3.317114e+02	-1.802550e-02
3.336273e+02	-1.823389e-02
3.355544e+02	-1.844469e-02
3.374925e+02	-1.865791e-02
3.394418e+02	-1.887360e-02
3.414024e+02	-1.909177e-02
3.433744e+02	-1.931246e-02
3.453577e+02	-1.953570e-02
3.473525e+02	-1.976151e-02
3.493588e+02	-1.998992e-02
3.513766e+02	-2.022097e-02
3.534062e+02	-2.045468e-02
3.554474e+02	-2.069109e-02
3.575005e+02	-2.093022e-02
3.595654e+02	-2.117211e-02
3.616422e+02	-2.141678e-02
3.637311e+02	-2.166428e-02
3.658320e+02	-2.191463e-02
3.679450e+02	-2.216787e-02
3.700702e+02	-2.242403e-02
3.722077e+02	-2.268313e-02
3.743576e+02	-2.294523e-02
3.765199e+02	-2.321034e-02
3.786946e+02	-2.347851e-02
3.808820e+02	-2.374977e-02
3.830819e+02	-2.402415e-02
3.852946e+02	-2.430170e-02
3.875200e+02	-2.458244e-02
3.897583e+02	-2.486642e-02
3.920096e+02	-2.515366e-02
3.942738e+02	-2.544422e-02
3.965511e+02	-2.573812e-02
3.988416e+02	-2.603541e-02
4.011452e+02	-2.633612e-02
4.034622e+02	-2.664029e-02
4.057926e+02	-2.694796e-02
4.081365e+02	-2.725918e-02
4.104938e+02	-2.757398e-02
4.128648e+02	-2.789240e-02
4.152495e+02	-2.821449e-02
4.176480e+02	-2.854028e-02
4.200603e+02	-2.886983e-02
4.224866e+02	-2.920317e-02
4.249268e+02	-2.954034e-02
4.273812e+02	-2.988139e-02
4.298497e+02	-3.022637e-02
4.323325e+02	-3.057531e-02
4.348297e+02	-3.092827e-02
4.373412e+02	-3.128529e-02
4.398673e+02	-3.164641e-02
4.424079e+02	-3.201169e-02
4.449633e+02	-3.238116e-02
4.475334e+02	-3.275489e-02
4.501183e+02	-3.313291e-02
4.527182e+02	-3.351528e-02
4.553330e+02	-3.390205e-02
4.579630e+02	-3.429325e-02
4.606082e+02	-3.468896e-02
4.632687e+02	-3.508921e-02
4.659445e+02	-3.549407e-02
4.686358e+02	-3.590357e-02
4.713426e+02	-3.631778e-02
4.740650e+02	-3.673675e-02
4.768032e+02	-3.716053e-02
4.795572e+02	-3.758917e-02
4.823271e+02	-3.802274e-02
4.851130e+02	-3.846129e-02
4.879150e+02	-3.890487e-02
4.907332e+02	-3.935355e-02
4.935676e+02	-3.980738e-02
4.964185e+02	-4.026641e-02
4.992858e+02	-4.073072e-02
5.021696e+02	-4.120035e-02
5.050701e+02	-4.167537e-02
5.079874e+02	-4.215585e-02
5.109215e+02	-4.264183e-02
5.138726e+02	-4.313339e-02
5.168407e+02	-4.363059e-02
5.198259e+02	-4.413348e-02
5.228284e+02	-4.464215e-02
5.258482e+02	-4.515665e-02
5.288855e+02	-4.567704e-02
5.319403e+02	-4.620340e-02
5.350128e+02	-4.673580e-02
5.381030e+02	-4.727429e-02
5.412111e+02	-4.781896e-02
5.443371e+02	-4.836986e-02
5.474812e+02	-4.892708e-02
5.506434e+02	-4.949067e-02
5.538239e+02	-5.006073e-02
5.570228e+02	-5.063731e-02
5.602401e+02	-5.122049e-02
5.634760e+02	-5.181035e-02
5.667306e+02	-5.240696e-02
5.700040e+02	-5.301040e-02
5.732964e+02	-5.362074e-02
5.766077e+02	-5.423807e-02
5.799382e+02	-5.486246e-02
5.832879e+02	-5.549399e-02
5.866569e+02	-5.613274e-02
5.900454e+02	-5.677880e-02
5.934535e+02	-5.743224e-02
5.968813e+02	-5.809315e-02
6.003288e+02	-5.876162e-02
6.037963e+02	-5.943773e-02
6.072838e+02	-6.012156e-02
6.107914e+02	-6.081320e-02
6.143194e+02	-6.151275e-02
6.178676e+02	-6.222028e-02
6.214364e+02	-6.293589e-02
6.250258e+02	-6.365968e-02
6.286359e+02	-6.439172e-02
6.322669e+02	-6.513212e-02
6.359189e+02	-6.588097e-02
6.395919e+02	-6.663836e-02
6.432862e+02	-6.740439e-02
6.470017e+02	-6.817915e-02
6.507388e+02	-6.896275e-02
6.544974e+02	-6.975529e-02
6.582778e+02	-7.055686e-02
6.620800e+02	-7.136756e-02
6.659041e+02	-7.218750e-02
6.697504e+02	-7.301678e-02
6.736188e+02	-7.385551e-02
6.775096e+02	-7.470379e-02
6.814229e+02	-7.556173e-02
6.853587e+02	-7.642943e-02
6.893173e+02	-7.730701e-02
6.932988e+02	-7.819457e-02
6.973033e+02	-7.909223e-02
7.013309e+02	-8.000010e-02
