Frequency(Hz)	Magnitude(dB)
1.000000e+01	-1.609490e-05
1.005776e+01	-1.628137e-05
1.011585e+01	-1.646999e-05
1.017428e+01	-1.666080e-05
1.023305e+01	-1.685382e-05
1.029215e+01	-1.704908e-05
1.035160e+01	-1.724659e-05
1.041139e+01	-1.744640e-05
1.047153e+01	-1.764852e-05
1.053201e+01	-1.785298e-05
1.059284e+01	-1.805982e-05
1.065403e+01	-1.826904e-05
1.071556e+01	-1.848069e-05
1.077746e+01	-1.869480e-05
1.083971e+01	-1.891138e-05
1.090232e+01	-1.913047e-05
1.096529e+01	-1.935211e-05
1.102862e+01	-1.957631e-05
1.109232e+01	-1.980310e-05
1.115639e+01	-2.003253e-05
1.122083e+01	-2.026461e-05
1.128564e+01	-2.049938e-05
1.135083e+01	-2.073687e-05
1.141639e+01	-2.097711e-05
1.148233e+01	-2.122014e-05
1.154865e+01	-2.146598e-05
1.161536e+01	-2.171467e-05
1.168245e+01	-2.196623e-05
1.174992e+01	-2.222072e-05
1.181779e+01	-2.247815e-05
1.188605e+01	-2.273857e-05
1.195470e+01	-2.300200e-05
1.202375e+01	-2.326848e-05
1.209320e+01	-2.353805e-05
1.216305e+01	-2.381075e-05
1.223330e+01	-2.408660e-05
1.230396e+01	-2.436565e-05
1.237503e+01	-2.464793e-05
1.244651e+01	-2.493349e-05
1.251840e+01	-2.522235e-05
1.259070e+01	-2.551455e-05
1.266343e+01	-2.581015e-05
1.273657e+01	-2.610916e-05
1.281014e+01	-2.641164e-05
1.288413e+01	-2.671763e-05
1.295855e+01	-2.702716e-05
1.303339e+01	-2.734027e-05
1.310867e+01	-2.765702e-05
1.318439e+01	-2.797743e-05
1.326054e+01	-2.830156e-05
1.333713e+01	-2.862944e-05
1.341417e+01	-2.896112e-05
1.349165e+01	-2.929664e-05
1.356958e+01	-2.963605e-05
1.364795e+01	-2.997939e-05
1.372678e+01	-3.032671e-05
1.380607e+01	-3.067805e-05
1.388581e+01	-3.103346e-05
1.396602e+01	-3.139299e-05
1.404668e+01	-3.175669e-05
1.412782e+01	-3.212459e-05
1.420942e+01	-3.249677e-05
1.429149e+01	-3.287325e-05
1.437404e+01	-3.325409e-05
1.445706e+01	-3.363935e-05
1.454057e+01	-3.402907e-05
1.462455e+01	-3.442330e-05
1.470902e+01	-3.482211e-05
1.479398e+01	-3.522553e-05
1.487943e+01	-3.563362e-05
1.496537e+01	-3.604645e-05
1.505181e+01	-3.646405e-05
1.513875e+01	-3.688650e-05
1.522619e+01	-3.731384e-05
1.531414e+01	-3.774613e-05
1.540259e+01	-3.818342e-05
1.549156e+01	-3.862579e-05
1.558103e+01	-3.907328e-05
1.567103e+01	-3.952595e-05
1.576155e+01	-3.998387e-05
1.585258e+01	-4.044709e-05
1.594415e+01	-4.091568e-05
1.603624e+01	-4.138969e-05
1.612886e+01	-4.186920e-05
1.622202e+01	-4.235427e-05
1.631572e+01	-4.284495e-05
1.640996e+01	-4.334132e-05
1.650474e+01	-4.384344e-05
1.660008e+01	-4.435137e-05
1.669596e+01	-4.486519e-05
1.679239e+01	-4.538497e-05
1.688938e+01	-4.591076e-05
1.698694e+01	-4.644265e-05
1.708505e+01	-4.698070e-05
1.718373e+01	-4.752498e-05
1.728299e+01	-4.807557e-05
1.738281e+01	-4.863253e-05
1.748322e+01	-4.919595e-05
1.758420e+01	-4.976589e-05
1.768576e+01	-5.034244e-05
1.778792e+01	-5.092567e-05
1.789066e+01	-5.151566e-05
1.799399e+01	-5.211248e-05
1.809793e+01	-5.271621e-05
1.820246e+01	-5.332694e-05
1.830760e+01	-5.394474e-05
1.841334e+01	-5.456970e-05
1.851969e+01	-5.520190e-05
1.862666e+01	-5.584143e-05
1.873425e+01	-5.648836e-05
1.884246e+01	-5.714279e-05
1.895129e+01	-5.780480e-05
1.906075e+01	-5.847448e-05
1.917085e+01	-5.915192e-05
1.928158e+01	-5.983721e-05
1.939295e+01	-6.053044e-05
1.950496e+01	-6.123169e-05
1.961762e+01	-6.194107e-05
1.973093e+01	-6.265867e-05
1.984490e+01	-6.338459e-05
1.995952e+01	-6.411891e-05
2.007480e+01	-6.486174e-05
2.019076e+01	-6.561317e-05
2.030738e+01	-6.637332e-05
2.042467e+01	-6.714226e-05
2.054264e+01	-6.792012e-05
2.066130e+01	-6.870699e-05
2.078064e+01	-6.950297e-05
2.090066e+01	-7.030817e-05
2.102139e+01	-7.112271e-05
2.114280e+01	-7.194668e-05
2.126492e+01	-7.278019e-05
2.138775e+01	-7.362336e-05
2.151128e+01	-7.447630e-05
2.163553e+01	-7.533913e-05
2.176050e+01	-7.621194e-05
2.188619e+01	-7.709487e-05
2.201260e+01	-7.798803e-05
2.213974e+01	-7.889153e-05
2.226762e+01	-7.980551e-05
2.239624e+01	-8.073007e-05
2.252560e+01	-8.166534e-05
2.265571e+01	-8.261144e-05
2.278656e+01	-8.356851e-05
2.291818e+01	-8.453667e-05
2.305055e+01	-8.551604e-05
2.318369e+01	-8.650676e-05
2.331760e+01	-8.750895e-05
2.345228e+01	-8.852276e-05
2.358774e+01	-8.954831e-05
2.372398e+01	-9.058574e-05
2.386101e+01	-9.163519e-05
2.399883e+01	-9.269680e-05
2.413745e+01	-9.377070e-05
2.427686e+01	-9.485705e-05
2.441709e+01	-9.595598e-05
2.455812e+01	-9.706765e-05
2.469997e+01	-9.819219e-05
2.484263e+01	-9.932976e-05
2.498612e+01	-1.004805e-04
2.513044e+01	-1.016446e-04
2.527559e+01	-1.028222e-04
2.542158e+01	-1.040134e-04
2.556842e+01	-1.052184e-04
2.571610e+01	-1.064373e-04
2.586463e+01	-1.076704e-04
2.601403e+01	-1.089178e-04
2.616428e+01	-1.101796e-04
2.631541e+01	-1.114561e-04
2.646740e+01	-1.127473e-04
2.662028e+01	-1.140535e-04
2.677404e+01	-1.153748e-04
2.692868e+01	-1.167115e-04
2.708422e+01	-1.180636e-04
2.724066e+01	-1.194314e-04
2.739800e+01	-1.208150e-04
2.755625e+01	-1.222146e-04
2.771541e+01	-1.236305e-04
2.787550e+01	-1.250628e-04
2.803650e+01	-1.265117e-04
2.819844e+01	-1.279773e-04
2.836131e+01	-1.294599e-04
2.852513e+01	-1.309597e-04
2.868989e+01	-1.324769e-04
2.885560e+01	-1.340117e-04
2.902227e+01	-1.355642e-04
2.918990e+01	-1.371348e-04
2.935850e+01	-1.387235e-04
2.952807e+01	-1.403306e-04
2.969863e+01	-1.419563e-04
2.987016e+01	-1.436009e-04
3.004269e+01	-1.452645e-04
3.021622e+01	-1.469474e-04
3.039075e+01	-1.486498e-04
3.056628e+01	-1.503720e-04
3.074283e+01	-1.521140e-04
3.092040e+01	-1.538763e-04
3.109900e+01	-1.556590e-04
3.127862e+01	-1.574623e-04
3.145929e+01	-1.592865e-04
3.164099e+01	-1.611318e-04
3.182375e+01	-1.629986e-04
3.200756e+01	-1.648869e-04
3.219244e+01	-1.667971e-04
3.237838e+01	-1.687295e-04
3.256540e+01	-1.706842e-04
3.275349e+01	-1.726616e-04
3.294268e+01	-1.746619e-04
3.313295e+01	-1.766854e-04
3.332433e+01	-1.787323e-04
3.351681e+01	-1.808029e-04
3.371040e+01	-1.828975e-04
3.390511e+01	-1.850164e-04
3.410094e+01	-1.871598e-04
3.429791e+01	-1.893280e-04
3.449601e+01	-1.915214e-04
3.469526e+01	-1.937402e-04
3.489566e+01	-1.959847e-04
3.509721e+01	-1.982552e-04
3.529993e+01	-2.005519e-04
3.550382e+01	-2.028753e-04
3.570889e+01	-2.052257e-04
3.591515e+01	-2.076032e-04
3.612259e+01	-2.100083e-04
3.633123e+01	-2.124412e-04
3.654108e+01	-2.149024e-04
3.675214e+01	-2.173920e-04
3.696442e+01	-2.199105e-04
3.717792e+01	-2.224581e-04
3.739266e+01	-2.250353e-04
3.760864e+01	-2.276423e-04
3.782587e+01	-2.302796e-04
3.804435e+01	-2.329473e-04
3.826409e+01	-2.356460e-04
3.848510e+01	-2.383760e-04
3.870739e+01	-2.411376e-04
3.893096e+01	-2.439311e-04
3.915583e+01	-2.467571e-04
3.938199e+01	-2.496157e-04
3.960946e+01	-2.525075e-04
3.983824e+01	-2.554328e-04
4.006834e+01	-2.583920e-04
4.029978e+01	-2.613854e-04
4.053255e+01	-2.644135e-04
4.076666e+01	-2.674768e-04
4.100213e+01	-2.705755e-04
4.123896e+01	-2.737100e-04
4.147715e+01	-2.768810e-04
4.171672e+01	-2.800886e-04
4.195767e+01	-2.833334e-04
4.220002e+01	-2.866158e-04
4.244377e+01	-2.899362e-04
4.268892e+01	-2.932951e-04
4.293549e+01	-2.966929e-04
4.318348e+01	-3.001300e-04
4.343291e+01	-3.036070e-04
4.368377e+01	-3.071242e-04
4.393609e+01	-3.106822e-04
4.418986e+01	-3.142814e-04
4.444510e+01	-3.179223e-04
4.470182e+01	-3.216054e-04
4.496001e+01	-3.253312e-04
4.521970e+01	-3.291001e-04
4.548089e+01	-3.329126e-04
4.574358e+01	-3.367694e-04
4.600779e+01	-3.406708e-04
4.627353e+01	-3.446174e-04
4.654081e+01	-3.486097e-04
4.680963e+01	-3.526483e-04
4.708000e+01	-3.567337e-04
4.735193e+01	-3.608663e-04
4.762543e+01	-3.650469e-04
4.790051e+01	-3.692759e-04
4.817719e+01	-3.735539e-04
4.845545e+01	-3.778814e-04
4.873533e+01	-3.822591e-04
4.901682e+01	-3.866875e-04
4.929994e+01	-3.911671e-04
4.958470e+01	-3.956987e-04
4.987110e+01	-4.002828e-04
5.015915e+01	-4.049200e-04
5.044887e+01	-4.096108e-04
5.074026e+01	-4.143561e-04
5.103333e+01	-4.191563e-04
5.132810e+01	-4.240121e-04
5.162457e+01	-4.289241e-04
5.192275e+01	-4.338931e-04
5.222265e+01	-4.389196e-04
5.252429e+01	-4.440043e-04
5.282767e+01	-4.491480e-04
5.313280e+01	-4.543512e-04
5.343969e+01	-4.596147e-04
5.374836e+01	-4.649392e-04
5.405880e+01	-4.703254e-04
5.437105e+01	-4.757739e-04
5.468509e+01	-4.812856e-04
5.500095e+01	-4.868611e-04
5.531863e+01	-4.925012e-04
5.563815e+01	-4.982066e-04
5.595951e+01	-5.039782e-04
5.628273e+01	-5.098165e-04
5.660782e+01	-5.157226e-04
5.693479e+01	-5.216970e-04
5.726364e+01	-5.277406e-04
5.759439e+01	-5.338543e-04
5.792705e+01	-5.400387e-04
5.826164e+01	-5.462948e-04
5.859815e+01	-5.526234e-04
5.893662e+01	-5.590253e-04
5.927703e+01	-5.655013e-04
5.961941e+01	-5.720524e-04
5.996377e+01	-5.786793e-04
6.031012e+01	-5.853830e-04
6.065847e+01	-5.921644e-04
6.100883e+01	-5.990243e-04
6.136121e+01	-6.059637e-04
6.171563e+01	-6.129835e-04
6.207210e+01	-6.200845e-04
6.243063e+01	-6.272679e-04
6.279122e+01	-6.345344e-04
6.315390e+01	-6.418851e-04
6.351868e+01	-6.493210e-04
6.388556e+01	-6.568430e-04
6.425456e+01	-6.644521e-04
6.462569e+01	-6.721494e-04
6.499897e+01	-6.799358e-04
6.537440e+01	-6.878124e-04
6.575200e+01	-6.957803e-04
6.613178e+01	-7.038404e-04
6.651375e+01	-7.119939e-04
6.689793e+01	-7.202419e-04
6.728433e+01	-7.285854e-04
6.767297e+01	-7.370255e-04
6.806384e+01	-7.455634e-04
6.845698e+01	-7.542003e-04
6.885238e+01	-7.629371e-04
6.925007e+01	-7.717752e-04
6.965005e+01	-7.807156e-04
7.005235e+01	-7.897596e-04
7.045697e+01	-7.989083e-04
7.086393e+01	-8.081630e-04
7.127323e+01	-8.175249e-04
7.168490e+01	-8.269953e-04
7.209895e+01	-8.365753e-04
7.251539e+01	-8.462663e-04
7.293424e+01	-8.560696e-04
7.335551e+01	-8.659864e-04
7.377920e+01	-8.760181e-04
7.420535e+01	-8.861659e-04
7.463396e+01	-8.964314e-04
7.506504e+01	-9.068157e-04
7.549861e+01	-9.173203e-04
7.593469e+01	-9.279465e-04
7.637328e+01	-9.386959e-04
7.681441e+01	-9.495697e-04
7.725809e+01	-9.605696e-04
7.770433e+01	-9.716968e-04
7.815315e+01	-9.829529e-04
7.860456e+01	-9.943393e-04
7.905857e+01	-1.005858e-03
7.951521e+01	-1.017509e-03
7.997449e+01	-1.029296e-03
8.043642e+01	-1.041219e-03
8.090102e+01	-1.053281e-03
8.136830e+01	-1.065482e-03
8.183828e+01	-1.077824e-03
8.231097e+01	-1.090310e-03
8.278640e+01	-1.102939e-03
8.326457e+01	-1.115716e-03
8.374550e+01	-1.128640e-03
8.422921e+01	-1.141714e-03
8.471572e+01	-1.154939e-03
8.520503e+01	-1.168318e-03
8.569717e+01	-1.181851e-03
8.619215e+01	-1.195541e-03
8.669000e+01	-1.209390e-03
8.719071e+01	-1.223399e-03
8.769432e+01	-1.237570e-03
8.820084e+01	-1.251906e-03
8.871029e+01	-1.266407e-03
8.922267e+01	-1.281077e-03
8.973802e+01	-1.295916e-03
9.025634e+01	-1.310928e-03
9.077766e+01	-1.326113e-03
9.130199e+01	-1.341474e-03
9.182935e+01	-1.357013e-03
9.235975e+01	-1.372732e-03
9.289321e+01	-1.388632e-03
9.342976e+01	-1.404718e-03
9.396941e+01	-1.420989e-03
9.451217e+01	-1.437449e-03
9.505807e+01	-1.454099e-03
9.560712e+01	-1.470942e-03
9.615934e+01	-1.487981e-03
9.671476e+01	-1.505216e-03
9.727338e+01	-1.522652e-03
9.783522e+01	-1.540289e-03
9.840032e+01	-1.558130e-03
9.896867e+01	-1.576179e-03
9.954031e+01	-1.594436e-03
1.001153e+02	-1.612904e-03
1.006935e+02	-1.631587e-03
1.012751e+02	-1.650485e-03
1.018601e+02	-1.669603e-03
1.024484e+02	-1.688942e-03
1.030402e+02	-1.708505e-03
1.036353e+02	-1.728295e-03
1.042339e+02	-1.748313e-03
1.048360e+02	-1.768564e-03
1.054415e+02	-1.789049e-03
1.060505e+02	-1.809771e-03
1.066631e+02	-1.830733e-03
1.072791e+02	-1.851938e-03
1.078988e+02	-1.873389e-03
1.085220e+02	-1.895088e-03
1.091488e+02	-1.917038e-03
1.097793e+02	-1.939243e-03
1.104133e+02	-1.961704e-03
1.110511e+02	-1.984426e-03
1.116925e+02	-2.007411e-03
1.123376e+02	-2.030662e-03
1.129865e+02	-2.054182e-03
1.136391e+02	-2.077974e-03
1.142955e+02	-2.102042e-03
1.149556e+02	-2.126389e-03
1.156196e+02	-2.151018e-03
1.162874e+02	-2.175932e-03
1.169591e+02	-2.201134e-03
1.176347e+02	-2.226628e-03
1.183141e+02	-2.252418e-03
1.189975e+02	-2.278506e-03
1.196848e+02	-2.304896e-03
1.203761e+02	-2.331591e-03
1.210714e+02	-2.358596e-03
1.217707e+02	-2.385914e-03
1.224740e+02	-2.413547e-03
1.231814e+02	-2.441501e-03
1.238929e+02	-2.469778e-03
1.246085e+02	-2.498383e-03
1.253283e+02	-2.527319e-03
1.260522e+02	-2.556590e-03
1.267802e+02	-2.586200e-03
1.275125e+02	-2.616153e-03
1.282490e+02	-2.646453e-03
1.289898e+02	-2.677103e-03
1.297348e+02	-2.708108e-03
1.304842e+02	-2.739472e-03
1.312378e+02	-2.771200e-03
1.319959e+02	-2.803295e-03
1.327583e+02	-2.835761e-03
1.335251e+02	-2.868603e-03
1.342963e+02	-2.901825e-03
1.350720e+02	-2.935432e-03
1.358522e+02	-2.969429e-03
1.366368e+02	-3.003818e-03
1.374260e+02	-3.038606e-03
1.382198e+02	-3.073797e-03
1.390182e+02	-3.109395e-03
1.398211e+02	-3.145405e-03
1.406287e+02	-3.181832e-03
1.414410e+02	-3.218680e-03
1.422579e+02	-3.255956e-03
1.430796e+02	-3.293662e-03
1.439060e+02	-3.331806e-03
1.447372e+02	-3.370390e-03
1.455732e+02	-3.409422e-03
1.464141e+02	-3.448905e-03
1.472597e+02	-3.488846e-03
1.481103e+02	-3.529248e-03
1.489658e+02	-3.570119e-03
1.498262e+02	-3.611462e-03
1.506916e+02	-3.653285e-03
1.515620e+02	-3.695591e-03
1.524374e+02	-3.738387e-03
1.533179e+02	-3.781678e-03
1.542034e+02	-3.825470e-03
1.550941e+02	-3.869770e-03
1.559899e+02	-3.914582e-03
1.568909e+02	-3.959912e-03
1.577971e+02	-4.005768e-03
1.587085e+02	-4.052154e-03
1.596252e+02	-4.099077e-03
1.605472e+02	-4.146543e-03
1.614745e+02	-4.194559e-03
1.624072e+02	-4.243130e-03
1.633453e+02	-4.292263e-03
1.642887e+02	-4.341965e-03
1.652377e+02	-4.392243e-03
1.661921e+02	-4.443102e-03
1.671520e+02	-4.494550e-03
1.681175e+02	-4.546593e-03
1.690885e+02	-4.599238e-03
1.700651e+02	-4.652493e-03
1.710474e+02	-4.706364e-03
1.720354e+02	-4.760859e-03
1.730291e+02	-4.815984e-03
1.740285e+02	-4.871747e-03
1.750337e+02	-4.928155e-03
1.760446e+02	-4.985216e-03
1.770615e+02	-5.042938e-03
1.780842e+02	-5.101327e-03
1.791128e+02	-5.160392e-03
1.801473e+02	-5.220141e-03
1.811878e+02	-5.280580e-03
1.822344e+02	-5.341720e-03
1.832870e+02	-5.403566e-03
1.843456e+02	-5.466128e-03
1.854104e+02	-5.529414e-03
1.864813e+02	-5.593433e-03
1.875584e+02	-5.658192e-03
1.886418e+02	-5.723700e-03
1.897313e+02	-5.789966e-03
1.908272e+02	-5.856999e-03
1.919294e+02	-5.924808e-03
1.930380e+02	-5.993401e-03
1.941530e+02	-6.062787e-03
1.952744e+02	-6.132976e-03
1.964023e+02	-6.203978e-03
1.975367e+02	-6.275800e-03
1.986777e+02	-6.348454e-03
1.998252e+02	-6.421948e-03
2.009794e+02	-6.496292e-03
2.021403e+02	-6.571496e-03
2.033078e+02	-6.647570e-03
2.044821e+02	-6.724524e-03
2.056632e+02	-6.802368e-03
2.068511e+02	-6.881112e-03
2.080459e+02	-6.960768e-03
2.092475e+02	-7.041345e-03
2.104561e+02	-7.122853e-03
2.116717e+02	-7.205305e-03
2.128943e+02	-7.288710e-03
2.141240e+02	-7.373079e-03
2.153608e+02	-7.458425e-03
2.166047e+02	-7.544757e-03
2.178558e+02	-7.632088e-03
2.191141e+02	-7.720429e-03
2.203797e+02	-7.809792e-03
2.216526e+02	-7.900187e-03
2.229329e+02	-7.991629e-03
2.242205e+02	-8.084127e-03
2.255156e+02	-8.177695e-03
2.268182e+02	-8.272346e-03
2.281283e+02	-8.368090e-03
2.294459e+02	-8.464942e-03
2.307712e+02	-8.562913e-03
2.321041e+02	-8.662018e-03
2.334447e+02	-8.762268e-03
2.347931e+02	-8.863677e-03
2.361493e+02	-8.966259e-03
2.375133e+02	-9.070026e-03
2.388851e+02	-9.174993e-03
2.402649e+02	-9.281174e-03
2.416527e+02	-9.388582e-03
2.430484e+02	-9.497232e-03
2.444523e+02	-9.607138e-03
2.458642e+02	-9.718314e-03
2.472843e+02	-9.830775e-03
2.487126e+02	-9.944536e-03
2.501492e+02	-1.005961e-02
2.515940e+02	-1.017602e-02
2.530472e+02	-1.029377e-02
2.545088e+02	-1.041288e-02
2.559789e+02	-1.053337e-02
2.574574e+02	-1.065525e-02
2.589444e+02	-1.077854e-02
2.604401e+02	-1.090326e-02
2.619444e+02	-1.102941e-02
2.634574e+02	-1.115703e-02
2.649791e+02	-1.128612e-02
2.665096e+02	-1.141670e-02
2.680489e+02	-1.154879e-02
2.695972e+02	-1.168240e-02
2.711544e+02	-1.181756e-02
2.727205e+02	-1.195428e-02
2.742958e+02	-1.209258e-02
2.758801e+02	-1.223248e-02
2.774736e+02	-1.237399e-02
2.790762e+02	-1.251714e-02
2.806882e+02	-1.266194e-02
2.823094e+02	-1.280842e-02
2.839400e+02	-1.295658e-02
2.855800e+02	-1.310646e-02
2.872295e+02	-1.325807e-02
2.888886e+02	-1.341143e-02
2.905572e+02	-1.356656e-02
2.922354e+02	-1.372348e-02
2.939234e+02	-1.388222e-02
2.956211e+02	-1.404279e-02
2.973286e+02	-1.420521e-02
2.990459e+02	-1.436951e-02
3.007732e+02	-1.453570e-02
3.025104e+02	-1.470382e-02
3.042577e+02	-1.487387e-02
3.060151e+02	-1.504589e-02
3.077826e+02	-1.521989e-02
3.095604e+02	-1.539591e-02
3.113484e+02	-1.557395e-02
3.131467e+02	-1.575405e-02
3.149554e+02	-1.593623e-02
3.167746e+02	-1.612051e-02
3.186043e+02	-1.630692e-02
3.204445e+02	-1.649548e-02
3.222954e+02	-1.668621e-02
3.241570e+02	-1.687915e-02
3.260293e+02	-1.707431e-02
3.279124e+02	-1.727173e-02
3.298064e+02	-1.747142e-02
3.317114e+02	-1.767342e-02
3.336273e+02	-1.787775e-02
3.355544e+02	-1.808443e-02
3.374925e+02	-1.829350e-02
3.394418e+02	-1.850499e-02
3.414024e+02	-1.871891e-02
3.433744e+02	-1.893530e-02
3.453577e+02	-1.915418e-02
3.473525e+02	-1.937559e-02
3.493588e+02	-1.959955e-02
3.513766e+02	-1.982610e-02
3.534062e+02	-2.005526e-02
3.554474e+02	-2.028706e-02
3.575005e+02	-2.052153e-02
3.595654e+02	-2.075871e-02
3.616422e+02	-2.099862e-02
3.637311e+02	-2.124130e-02
3.658320e+02	-2.148677e-02
3.679450e+02	-2.173507e-02
3.700702e+02	-2.198624e-02
3.722077e+02	-2.224030e-02
3.743576e+02	-2.249729e-02
3.765199e+02	-2.275724e-02
3.786946e+02	-2.302019e-02
3.808820e+02	-2.328617e-02
3.830819e+02	-2.355521e-02
3.852946e+02	-2.382735e-02
3.875200e+02	-2.410263e-02
3.897583e+02	-2.438108e-02
3.920096e+02	-2.466274e-02
3.942738e+02	-2.494764e-02
3.965511e+02	-2.523582e-02
3.988416e+02	-2.552732e-02
4.011452e+02	-2.582218e-02
4.034622e+02	-2.612043e-02
4.057926e+02	-2.642212e-02
4.081365e+02	-2.672728e-02
4.104938e+02	-2.703596e-02
4.128648e+02	-2.734819e-02
4.152495e+02	-2.766401e-02
4.176480e+02	-2.798347e-02
4.200603e+02	-2.830660e-02
4.224866e+02	-2.863346e-02
4.249268e+02	-2.896407e-02
4.273812e+02	-2.929850e-02
4.298497e+02	-2.963676e-02
4.323325e+02	-2.997892e-02
4.348297e+02	-3.032502e-02
4.373412e+02	-3.067510e-02
4.398673e+02	-3.102921e-02
4.424079e+02	-3.138738e-02
4.449633e+02	-3.174968e-02
4.475334e+02	-3.211615e-02
4.501183e+02	-3.248682e-02
4.527182e+02	-3.286176e-02
4.553330e+02	-3.324101e-02
4.579630e+02	-3.362462e-02
4.606082e+02	-3.401264e-02
4.632687e+02	-3.440512e-02
4.659445e+02	-3.480211e-02
4.686358e+02	-3.520367e-02
4.713426e+02	-3.560983e-02
4.740650e+02	-3.602067e-02
4.768032e+02	-3.643622e-02
4.795572e+02	-3.685655e-02
4.823271e+02	-3.728170e-02
4.851130e+02	-3.771174e-02
4.879150e+02	-3.814671e-02
4.907332e+02	-3.858669e-02
4.935676e+02	-3.903171e-02
4.964185e+02	-3.948184e-02
4.992858e+02	-3.993714e-02
5.021696e+02	-4.039766e-02
5.050701e+02	-4.086347e-02
5.079874e+02	-4.133463e-02
5.109215e+02	-4.181119e-02
5.138726e+02	-4.229322e-02
5.168407e+02	-4.278078e-02
5.198259e+02	-4.327393e-02
5.228284e+02	-4.377274e-02
5.258482e+02	-4.427726e-02
5.288855e+02	-4.478757e-02
5.319403e+02	-4.530374e-02
5.350128e+02	-4.582582e-02
5.381030e+02	-4.635388e-02
5.412111e+02	-4.688800e-02
5.443371e+02	-4.742824e-02
5.474812e+02	-4.797466e-02
5.506434e+02	-4.852735e-02
5.538239e+02	-4.908637e-02
5.570228e+02	-4.965179e-02
5.602401e+02	-5.022369e-02
5.634760e+02	-5.080213e-02
5.667306e+02	-5.138720e-02
5.700040e+02	-5.197896e-02
5.732964e+02	-5.257750e-02
5.766077e+02	-5.318289e-02
5.799382e+02	-5.379520e-02
5.832879e+02	-5.441452e-02
5.866569e+02	-5.504093e-02
5.900454e+02	-5.567450e-02
5.934535e+02	-5.631531e-02
5.968813e+02	-5.696346e-02
6.003288e+02	-5.761901e-02
6.037963e+02	-5.828206e-02
6.072838e+02	-5.895268e-02
6.107914e+02	-5.963097e-02
6.143194e+02	-6.031700e-02
6.178676e+02	-6.101088e-02
6.214364e+02	-6.171268e-02
6.250258e+02	-6.242249e-02
6.286359e+02	-6.314041e-02
6.322669e+02	-6.386652e-02
6.359189e+02	-6.460092e-02
6.395919e+02	-6.534371e-02
6.432862e+02	-6.609497e-02
6.470017e+02	-6.685479e-02
6.507388e+02	-6.762329e-02
6.544974e+02	-6.840055e-02
6.582778e+02	-6.918667e-02
6.620800e+02	-6.998176e-02
6.659041e+02	-7.078590e-02
6.697504e+02	-7.159921e-02
6.736188e+02	-7.242179e-02
6.775096e+02	-7.325374e-02
6.814229e+02	-7.409516e-02
6.853587e+02	-7.494616e-02
6.893173e+02	-7.580685e-02
6.932988e+02	-7.667734e-02
6.973033e+02	-7.755774e-02
7.013309e+02	-7.844815e-02
