Frequency(Hz)	Magnitude(dB)
1.000000e+01	-1.973171e-05
1.005776e+01	-1.996030e-05
1.011585e+01	-2.019155e-05
1.017428e+01	-2.042547e-05
1.023305e+01	-2.066211e-05
1.029215e+01	-2.090148e-05
1.035160e+01	-2.114363e-05
1.041139e+01	-2.138859e-05
1.047153e+01	-2.163638e-05
1.053201e+01	-2.188704e-05
1.059284e+01	-2.214061e-05
1.065403e+01	-2.239711e-05
1.071556e+01	-2.265659e-05
1.077746e+01	-2.291907e-05
1.083971e+01	-2.318459e-05
1.090232e+01	-2.345319e-05
1.096529e+01	-2.372490e-05
1.102862e+01	-2.399976e-05
1.109232e+01	-2.427781e-05
1.115639e+01	-2.455907e-05
1.122083e+01	-2.484359e-05
1.128564e+01	-2.513141e-05
1.135083e+01	-2.542257e-05
1.141639e+01	-2.571709e-05
1.148233e+01	-2.601503e-05
1.154865e+01	-2.631642e-05
1.161536e+01	-2.662130e-05
1.168245e+01	-2.692972e-05
1.174992e+01	-2.724171e-05
1.181779e+01	-2.755731e-05
1.188605e+01	-2.787657e-05
1.195470e+01	-2.819952e-05
1.202375e+01	-2.852622e-05
1.209320e+01	-2.885670e-05
1.216305e+01	-2.919102e-05
1.223330e+01	-2.952920e-05
1.230396e+01	-2.987130e-05
1.237503e+01	-3.021737e-05
1.244651e+01	-3.056745e-05
1.251840e+01	-3.092158e-05
1.259070e+01	-3.127981e-05
1.266343e+01	-3.164220e-05
1.273657e+01	-3.200878e-05
1.281014e+01	-3.237961e-05
1.288413e+01	-3.275473e-05
1.295855e+01	-3.313420e-05
1.303339e+01	-3.351807e-05
1.310867e+01	-3.390639e-05
1.318439e+01	-3.429920e-05
1.326054e+01	-3.469656e-05
1.333713e+01	-3.509853e-05
1.341417e+01	-3.550516e-05
1.349165e+01	-3.591649e-05
1.356958e+01	-3.633259e-05
1.364795e+01	-3.675351e-05
1.372678e+01	-3.717931e-05
1.380607e+01	-3.761004e-05
1.388581e+01	-3.804576e-05
1.396602e+01	-3.848653e-05
1.404668e+01	-3.893241e-05
1.412782e+01	-3.938345e-05
1.420942e+01	-3.983971e-05
1.429149e+01	-4.030127e-05
1.437404e+01	-4.076817e-05
1.445706e+01	-4.124047e-05
1.454057e+01	-4.171825e-05
1.462455e+01	-4.220157e-05
1.470902e+01	-4.269048e-05
1.479398e+01	-4.318506e-05
1.487943e+01	-4.368537e-05
1.496537e+01	-4.419148e-05
1.505181e+01	-4.470344e-05
1.513875e+01	-4.522134e-05
1.522619e+01	-4.574524e-05
1.531414e+01	-4.627521e-05
1.540259e+01	-4.681132e-05
1.549156e+01	-4.735364e-05
1.558103e+01	-4.790224e-05
1.567103e+01	-4.845720e-05
1.576155e+01	-4.901859e-05
1.585258e+01	-4.958648e-05
1.594415e+01	-5.016095e-05
1.603624e+01	-5.074207e-05
1.612886e+01	-5.132993e-05
1.622202e+01	-5.192460e-05
1.631572e+01	-5.252615e-05
1.640996e+01	-5.313468e-05
1.650474e+01	-5.375026e-05
1.660008e+01	-5.437297e-05
1.669596e+01	-5.500289e-05
1.679239e+01	-5.564011e-05
1.688938e+01	-5.628471e-05
1.698694e+01	-5.693678e-05
1.708505e+01	-5.759640e-05
1.718373e+01	-5.826367e-05
1.728299e+01	-5.893867e-05
1.738281e+01	-5.962148e-05
1.748322e+01	-6.031221e-05
1.758420e+01	-6.101094e-05
1.768576e+01	-6.171776e-05
1.778792e+01	-6.243277e-05
1.789066e+01	-6.315607e-05
1.799399e+01	-6.388774e-05
1.809793e+01	-6.462790e-05
1.820246e+01	-6.537662e-05
1.830760e+01	-6.613402e-05
1.841334e+01	-6.690020e-05
1.851969e+01	-6.767525e-05
1.862666e+01	-6.845928e-05
1.873425e+01	-6.925239e-05
1.884246e+01	-7.005470e-05
1.895129e+01	-7.086629e-05
1.906075e+01	-7.168729e-05
1.917085e+01	-7.251780e-05
1.928158e+01	-7.335793e-05
1.939295e+01	-7.420780e-05
1.950496e+01	-7.506751e-05
1.961762e+01	-7.593718e-05
1.973093e+01	-7.681693e-05
1.984490e+01	-7.770686e-05
1.995952e+01	-7.860711e-05
2.007480e+01	-7.951779e-05
2.019076e+01	-8.043902e-05
2.030738e+01	-8.137092e-05
2.042467e+01	-8.231361e-05
2.054264e+01	-8.326723e-05
2.066130e+01	-8.423189e-05
2.078064e+01	-8.520773e-05
2.090066e+01	-8.619488e-05
2.102139e+01	-8.719346e-05
2.114280e+01	-8.820361e-05
2.126492e+01	-8.922546e-05
2.138775e+01	-9.025916e-05
2.151128e+01	-9.130482e-05
2.163553e+01	-9.236260e-05
2.176050e+01	-9.343264e-05
2.188619e+01	-9.451507e-05
2.201260e+01	-9.561004e-05
2.213974e+01	-9.671770e-05
2.226762e+01	-9.783819e-05
2.239624e+01	-9.897166e-05
2.252560e+01	-1.001183e-04
2.265571e+01	-1.012781e-04
2.278656e+01	-1.024515e-04
2.291818e+01	-1.036384e-04
2.305055e+01	-1.048390e-04
2.318369e+01	-1.060536e-04
2.331760e+01	-1.072823e-04
2.345228e+01	-1.085251e-04
2.358774e+01	-1.097824e-04
2.372398e+01	-1.110543e-04
2.386101e+01	-1.123408e-04
2.399883e+01	-1.136423e-04
2.413745e+01	-1.149589e-04
2.427686e+01	-1.162907e-04
2.441709e+01	-1.176379e-04
2.455812e+01	-1.190008e-04
2.469997e+01	-1.203794e-04
2.484263e+01	-1.217740e-04
2.498612e+01	-1.231848e-04
2.513044e+01	-1.246119e-04
2.527559e+01	-1.260556e-04
2.542158e+01	-1.275159e-04
2.556842e+01	-1.289932e-04
2.571610e+01	-1.304876e-04
2.586463e+01	-1.319993e-04
2.601403e+01	-1.335286e-04
2.616428e+01	-1.350755e-04
2.631541e+01	-1.366404e-04
2.646740e+01	-1.382233e-04
2.662028e+01	-1.398247e-04
2.677404e+01	-1.414446e-04
2.692868e+01	-1.430832e-04
2.708422e+01	-1.447408e-04
2.724066e+01	-1.464177e-04
2.739800e+01	-1.481139e-04
2.755625e+01	-1.498298e-04
2.771541e+01	-1.515656e-04
2.787550e+01	-1.533215e-04
2.803650e+01	-1.550978e-04
2.819844e+01	-1.568946e-04
2.836131e+01	-1.587122e-04
2.852513e+01	-1.605509e-04
2.868989e+01	-1.624109e-04
2.885560e+01	-1.642925e-04
2.902227e+01	-1.661958e-04
2.918990e+01	-1.681212e-04
2.935850e+01	-1.700689e-04
2.952807e+01	-1.720391e-04
2.969863e+01	-1.740322e-04
2.987016e+01	-1.760484e-04
3.004269e+01	-1.780879e-04
3.021622e+01	-1.801511e-04
3.039075e+01	-1.822381e-04
3.056628e+01	-1.843494e-04
3.074283e+01	-1.864850e-04
3.092040e+01	-1.886455e-04
3.109900e+01	-1.908309e-04
3.127862e+01	-1.930417e-04
3.145929e+01	-1.952781e-04
3.164099e+01	-1.975404e-04
3.182375e+01	-1.998289e-04
3.200756e+01	-2.021439e-04
3.219244e+01	-2.044858e-04
3.237838e+01	-2.068547e-04
3.256540e+01	-2.092512e-04
3.275349e+01	-2.116753e-04
3.294268e+01	-2.141276e-04
3.313295e+01	-2.166083e-04
3.332433e+01	-2.191177e-04
3.351681e+01	-2.216561e-04
3.371040e+01	-2.242240e-04
3.390511e+01	-2.268216e-04
3.410094e+01	-2.294494e-04
3.429791e+01	-2.321075e-04
3.449601e+01	-2.347965e-04
3.469526e+01	-2.375166e-04
3.489566e+01	-2.402682e-04
3.509721e+01	-2.430517e-04
3.529993e+01	-2.458675e-04
3.550382e+01	-2.487158e-04
3.570889e+01	-2.515972e-04
3.591515e+01	-2.545119e-04
3.612259e+01	-2.574604e-04
3.633123e+01	-2.604431e-04
3.654108e+01	-2.634603e-04
3.675214e+01	-2.665125e-04
3.696442e+01	-2.696000e-04
3.717792e+01	-2.727233e-04
3.739266e+01	-2.758828e-04
3.760864e+01	-2.790788e-04
3.782587e+01	-2.823119e-04
3.804435e+01	-2.855825e-04
3.826409e+01	-2.888909e-04
3.848510e+01	-2.922377e-04
3.870739e+01	-2.956232e-04
3.893096e+01	-2.990480e-04
3.915583e+01	-3.025124e-04
3.938199e+01	-3.060170e-04
3.960946e+01	-3.095622e-04
3.983824e+01	-3.131484e-04
4.006834e+01	-3.167762e-04
4.029978e+01	-3.204460e-04
4.053255e+01	-3.241583e-04
4.076666e+01	-3.279136e-04
4.100213e+01	-3.317124e-04
4.123896e+01	-3.355553e-04
4.147715e+01	-3.394426e-04
4.171672e+01	-3.433750e-04
4.195767e+01	-3.473529e-04
4.220002e+01	-3.513770e-04
4.244377e+01	-3.554476e-04
4.268892e+01	-3.595654e-04
4.293549e+01	-3.637309e-04
4.318348e+01	-3.679446e-04
4.343291e+01	-3.722072e-04
4.368377e+01	-3.765191e-04
4.393609e+01	-3.808810e-04
4.418986e+01	-3.852934e-04
4.444510e+01	-3.897569e-04
4.470182e+01	-3.942722e-04
4.496001e+01	-3.988397e-04
4.521970e+01	-4.034602e-04
4.548089e+01	-4.081342e-04
4.574358e+01	-4.128623e-04
4.600779e+01	-4.176452e-04
4.627353e+01	-4.224835e-04
4.654081e+01	-4.273778e-04
4.680963e+01	-4.323289e-04
4.708000e+01	-4.373373e-04
4.735193e+01	-4.424037e-04
4.762543e+01	-4.475288e-04
4.790051e+01	-4.527133e-04
4.817719e+01	-4.579578e-04
4.845545e+01	-4.632631e-04
4.873533e+01	-4.686298e-04
4.901682e+01	-4.740587e-04
4.929994e+01	-4.795505e-04
4.958470e+01	-4.851059e-04
4.987110e+01	-4.907257e-04
5.015915e+01	-4.964106e-04
5.044887e+01	-5.021613e-04
5.074026e+01	-5.079786e-04
5.103333e+01	-5.138634e-04
5.132810e+01	-5.198163e-04
5.162457e+01	-5.258381e-04
5.192275e+01	-5.319297e-04
5.222265e+01	-5.380919e-04
5.252429e+01	-5.443254e-04
5.282767e+01	-5.506312e-04
5.313280e+01	-5.570100e-04
5.343969e+01	-5.634627e-04
5.374836e+01	-5.699901e-04
5.405880e+01	-5.765932e-04
5.437105e+01	-5.832727e-04
5.468509e+01	-5.900297e-04
5.500095e+01	-5.968648e-04
5.531863e+01	-6.037792e-04
5.563815e+01	-6.107737e-04
5.595951e+01	-6.178491e-04
5.628273e+01	-6.250066e-04
5.660782e+01	-6.322469e-04
5.693479e+01	-6.395711e-04
5.726364e+01	-6.469802e-04
5.759439e+01	-6.544751e-04
5.792705e+01	-6.620568e-04
5.826164e+01	-6.697263e-04
5.859815e+01	-6.774846e-04
5.893662e+01	-6.853329e-04
5.927703e+01	-6.932720e-04
5.961941e+01	-7.013031e-04
5.996377e+01	-7.094272e-04
6.031012e+01	-7.176455e-04
6.065847e+01	-7.259589e-04
6.100883e+01	-7.343686e-04
6.136121e+01	-7.428757e-04
6.171563e+01	-7.514814e-04
6.207210e+01	-7.601868e-04
6.243063e+01	-7.689930e-04
6.279122e+01	-7.779012e-04
6.315390e+01	-7.869125e-04
6.351868e+01	-7.960283e-04
6.388556e+01	-8.052497e-04
6.425456e+01	-8.145778e-04
6.462569e+01	-8.240140e-04
6.499897e+01	-8.335595e-04
6.537440e+01	-8.432156e-04
6.575200e+01	-8.529835e-04
6.613178e+01	-8.628646e-04
6.651375e+01	-8.728601e-04
6.689793e+01	-8.829714e-04
6.728433e+01	-8.931998e-04
6.767297e+01	-9.035467e-04
6.806384e+01	-9.140135e-04
6.845698e+01	-9.246014e-04
6.885238e+01	-9.353120e-04
6.925007e+01	-9.461467e-04
6.965005e+01	-9.571069e-04
7.005235e+01	-9.681940e-04
7.045697e+01	-9.794095e-04
7.086393e+01	-9.907549e-04
7.127323e+01	-1.002232e-03
7.168490e+01	-1.013842e-03
7.209895e+01	-1.025586e-03
7.251539e+01	-1.037466e-03
7.293424e+01	-1.049484e-03
7.335551e+01	-1.061641e-03
7.377920e+01	-1.073939e-03
7.420535e+01	-1.086379e-03
7.463396e+01	-1.098964e-03
7.506504e+01	-1.111694e-03
7.549861e+01	-1.124571e-03
7.593469e+01	-1.137598e-03
7.637328e+01	-1.150776e-03
7.681441e+01	-1.164106e-03
7.725809e+01	-1.177591e-03
7.770433e+01	-1.191232e-03
7.815315e+01	-1.205030e-03
7.860456e+01	-1.218989e-03
7.905857e+01	-1.233109e-03
7.951521e+01	-1.247393e-03
7.997449e+01	-1.261842e-03
8.043642e+01	-1.276459e-03
8.090102e+01	-1.291245e-03
8.136830e+01	-1.306202e-03
8.183828e+01	-1.321333e-03
8.231097e+01	-1.336638e-03
8.278640e+01	-1.352121e-03
8.326457e+01	-1.367783e-03
8.374550e+01	-1.383627e-03
8.422921e+01	-1.399654e-03
8.471572e+01	-1.415867e-03
8.520503e+01	-1.432267e-03
8.569717e+01	-1.448858e-03
8.619215e+01	-1.465640e-03
8.669000e+01	-1.482617e-03
8.719071e+01	-1.499791e-03
8.769432e+01	-1.517163e-03
8.820084e+01	-1.534737e-03
8.871029e+01	-1.552514e-03
8.922267e+01	-1.570497e-03
8.973802e+01	-1.588688e-03
9.025634e+01	-1.607090e-03
9.077766e+01	-1.625705e-03
9.130199e+01	-1.644536e-03
9.182935e+01	-1.663585e-03
9.235975e+01	-1.682854e-03
9.289321e+01	-1.702347e-03
9.342976e+01	-1.722065e-03
9.396941e+01	-1.742011e-03
9.451217e+01	-1.762189e-03
9.505807e+01	-1.782600e-03
9.560712e+01	-1.803248e-03
9.615934e+01	-1.824135e-03
9.671476e+01	-1.845263e-03
9.727338e+01	-1.866637e-03
9.783522e+01	-1.888257e-03
9.840032e+01	-1.910128e-03
9.896867e+01	-1.932253e-03
9.954031e+01	-1.954633e-03
1.001153e+02	-1.977273e-03
1.006935e+02	-2.000175e-03
1.012751e+02	-2.023342e-03
1.018601e+02	-2.046778e-03
1.024484e+02	-2.070485e-03
1.030402e+02	-2.094466e-03
1.036353e+02	-2.118725e-03
1.042339e+02	-2.143265e-03
1.048360e+02	-2.168089e-03
1.054415e+02	-2.193201e-03
1.060505e+02	-2.218603e-03
1.066631e+02	-2.244299e-03
1.072791e+02	-2.270293e-03
1.078988e+02	-2.296588e-03
1.085220e+02	-2.323188e-03
1.091488e+02	-2.350095e-03
1.097793e+02	-2.377314e-03
1.104133e+02	-2.404848e-03
1.110511e+02	-2.432701e-03
1.116925e+02	-2.460877e-03
1.123376e+02	-2.489379e-03
1.129865e+02	-2.518210e-03
1.136391e+02	-2.547376e-03
1.142955e+02	-2.576879e-03
1.149556e+02	-2.606724e-03
1.156196e+02	-2.636915e-03
1.162874e+02	-2.667454e-03
1.169591e+02	-2.698348e-03
1.176347e+02	-2.729599e-03
1.183141e+02	-2.761212e-03
1.189975e+02	-2.793191e-03
1.196848e+02	-2.825541e-03
1.203761e+02	-2.858265e-03
1.210714e+02	-2.891367e-03
1.217707e+02	-2.924853e-03
1.224740e+02	-2.958727e-03
1.231814e+02	-2.992993e-03
1.238929e+02	-3.027655e-03
1.246085e+02	-3.062719e-03
1.253283e+02	-3.098189e-03
1.260522e+02	-3.134069e-03
1.267802e+02	-3.170365e-03
1.275125e+02	-3.207081e-03
1.282490e+02	-3.244222e-03
1.289898e+02	-3.281793e-03
1.297348e+02	-3.319799e-03
1.304842e+02	-3.358244e-03
1.312378e+02	-3.397135e-03
1.319959e+02	-3.436476e-03
1.327583e+02	-3.476273e-03
1.335251e+02	-3.516530e-03
1.342963e+02	-3.557253e-03
1.350720e+02	-3.598448e-03
1.358522e+02	-3.640119e-03
1.366368e+02	-3.682273e-03
1.374260e+02	-3.724915e-03
1.382198e+02	-3.768050e-03
1.390182e+02	-3.811685e-03
1.398211e+02	-3.855825e-03
1.406287e+02	-3.900475e-03
1.414410e+02	-3.945643e-03
1.422579e+02	-3.991333e-03
1.430796e+02	-4.037552e-03
1.439060e+02	-4.084306e-03
1.447372e+02	-4.131601e-03
1.455732e+02	-4.179444e-03
1.464141e+02	-4.227840e-03
1.472597e+02	-4.276797e-03
1.481103e+02	-4.326320e-03
1.489658e+02	-4.376416e-03
1.498262e+02	-4.427092e-03
1.506916e+02	-4.478355e-03
1.515620e+02	-4.530210e-03
1.524374e+02	-4.582666e-03
1.533179e+02	-4.635729e-03
1.542034e+02	-4.689406e-03
1.550941e+02	-4.743705e-03
1.559899e+02	-4.798631e-03
1.568909e+02	-4.854194e-03
1.577971e+02	-4.910399e-03
1.587085e+02	-4.967254e-03
1.596252e+02	-5.024768e-03
1.605472e+02	-5.082947e-03
1.614745e+02	-5.141799e-03
1.624072e+02	-5.201333e-03
1.633453e+02	-5.261555e-03
1.642887e+02	-5.322474e-03
1.652377e+02	-5.384098e-03
1.661921e+02	-5.446435e-03
1.671520e+02	-5.509493e-03
1.681175e+02	-5.573281e-03
1.690885e+02	-5.637807e-03
1.700651e+02	-5.703079e-03
1.710474e+02	-5.769107e-03
1.720354e+02	-5.835899e-03
1.730291e+02	-5.903463e-03
1.740285e+02	-5.971809e-03
1.750337e+02	-6.040946e-03
1.760446e+02	-6.110882e-03
1.770615e+02	-6.181628e-03
1.780842e+02	-6.253192e-03
1.791128e+02	-6.325584e-03
1.801473e+02	-6.398813e-03
1.811878e+02	-6.472890e-03
1.822344e+02	-6.547823e-03
1.832870e+02	-6.623623e-03
1.843456e+02	-6.700300e-03
1.854104e+02	-6.777864e-03
1.864813e+02	-6.856325e-03
1.875584e+02	-6.935694e-03
1.886418e+02	-7.015981e-03
1.897313e+02	-7.097196e-03
1.908272e+02	-7.179351e-03
1.919294e+02	-7.262456e-03
1.930380e+02	-7.346522e-03
1.941530e+02	-7.431560e-03
1.952744e+02	-7.517582e-03
1.964023e+02	-7.604598e-03
1.975367e+02	-7.692621e-03
1.986777e+02	-7.781662e-03
1.998252e+02	-7.871733e-03
2.009794e+02	-7.962845e-03
2.021403e+02	-8.055011e-03
2.033078e+02	-8.148242e-03
2.044821e+02	-8.242552e-03
2.056632e+02	-8.337952e-03
2.068511e+02	-8.434455e-03
2.080459e+02	-8.532075e-03
2.092475e+02	-8.630822e-03
2.104561e+02	-8.730712e-03
2.116717e+02	-8.831756e-03
2.128943e+02	-8.933969e-03
2.141240e+02	-9.037363e-03
2.153608e+02	-9.141953e-03
2.166047e+02	-9.247751e-03
2.178558e+02	-9.354773e-03
2.191141e+02	-9.463032e-03
2.203797e+02	-9.572543e-03
2.216526e+02	-9.683319e-03
2.229329e+02	-9.795376e-03
2.242205e+02	-9.908728e-03
2.255156e+02	-1.002339e-02
2.268182e+02	-1.013938e-02
2.281283e+02	-1.025671e-02
2.294459e+02	-1.037539e-02
2.307712e+02	-1.049545e-02
2.321041e+02	-1.061689e-02
2.334447e+02	-1.073974e-02
2.347931e+02	-1.086400e-02
2.361493e+02	-1.098970e-02
2.375133e+02	-1.111686e-02
2.388851e+02	-1.124548e-02
2.402649e+02	-1.137559e-02
2.416527e+02	-1.150721e-02
2.430484e+02	-1.164034e-02
2.444523e+02	-1.177502e-02
2.458642e+02	-1.191125e-02
2.472843e+02	-1.204905e-02
2.487126e+02	-1.218844e-02
2.501492e+02	-1.232945e-02
2.515940e+02	-1.247208e-02
2.530472e+02	-1.261636e-02
2.545088e+02	-1.276231e-02
2.559789e+02	-1.290995e-02
2.574574e+02	-1.305929e-02
2.589444e+02	-1.321035e-02
2.604401e+02	-1.336316e-02
2.619444e+02	-1.351773e-02
2.634574e+02	-1.367409e-02
2.649791e+02	-1.383226e-02
2.665096e+02	-1.399225e-02
2.680489e+02	-1.415409e-02
2.695972e+02	-1.431779e-02
2.711544e+02	-1.448339e-02
2.727205e+02	-1.465090e-02
2.742958e+02	-1.482034e-02
2.758801e+02	-1.499174e-02
2.774736e+02	-1.516512e-02
2.790762e+02	-1.534050e-02
2.806882e+02	-1.551791e-02
2.823094e+02	-1.569736e-02
2.839400e+02	-1.587889e-02
2.855800e+02	-1.606251e-02
2.872295e+02	-1.624825e-02
2.888886e+02	-1.643613e-02
2.905572e+02	-1.662618e-02
2.922354e+02	-1.681842e-02
2.939234e+02	-1.701289e-02
2.956211e+02	-1.720959e-02
2.973286e+02	-1.740857e-02
2.990459e+02	-1.760984e-02
3.007732e+02	-1.781344e-02
3.025104e+02	-1.801938e-02
3.042577e+02	-1.822770e-02
3.060151e+02	-1.843842e-02
3.077826e+02	-1.865158e-02
3.095604e+02	-1.886719e-02
3.113484e+02	-1.908529e-02
3.131467e+02	-1.930590e-02
3.149554e+02	-1.952906e-02
3.167746e+02	-1.975479e-02
3.186043e+02	-1.998313e-02
3.204445e+02	-2.021410e-02
3.222954e+02	-2.044773e-02
3.241570e+02	-2.068406e-02
3.260293e+02	-2.092311e-02
3.279124e+02	-2.116492e-02
3.298064e+02	-2.140951e-02
3.317114e+02	-2.165692e-02
3.336273e+02	-2.190719e-02
3.355544e+02	-2.216034e-02
3.374925e+02	-2.241641e-02
3.394418e+02	-2.267543e-02
3.414024e+02	-2.293743e-02
3.433744e+02	-2.320246e-02
3.453577e+02	-2.347054e-02
3.473525e+02	-2.374170e-02
3.493588e+02	-2.401599e-02
3.513766e+02	-2.429344e-02
3.534062e+02	-2.457409e-02
3.554474e+02	-2.485797e-02
3.575005e+02	-2.514512e-02
3.595654e+02	-2.543558e-02
3.616422e+02	-2.572938e-02
3.637311e+02	-2.602656e-02
3.658320e+02	-2.632717e-02
3.679450e+02	-2.663124e-02
3.700702e+02	-2.693881e-02
3.722077e+02	-2.724992e-02
3.743576e+02	-2.756461e-02
3.765199e+02	-2.788293e-02
3.786946e+02	-2.820491e-02
3.808820e+02	-2.853059e-02
3.830819e+02	-2.886002e-02
3.852946e+02	-2.919325e-02
3.875200e+02	-2.953031e-02
3.897583e+02	-2.987124e-02
3.920096e+02	-3.021610e-02
3.942738e+02	-3.056493e-02
3.965511e+02	-3.091777e-02
3.988416e+02	-3.127466e-02
4.011452e+02	-3.163566e-02
4.034622e+02	-3.200082e-02
4.057926e+02	-3.237017e-02
4.081365e+02	-3.274377e-02
4.104938e+02	-3.312166e-02
4.128648e+02	-3.350390e-02
4.152495e+02	-3.389053e-02
4.176480e+02	-3.428161e-02
4.200603e+02	-3.467718e-02
4.224866e+02	-3.507730e-02
4.249268e+02	-3.548201e-02
4.273812e+02	-3.589138e-02
4.298497e+02	-3.630545e-02
4.323325e+02	-3.672427e-02
4.348297e+02	-3.714791e-02
4.373412e+02	-3.757641e-02
4.398673e+02	-3.800983e-02
4.424079e+02	-3.844823e-02
4.449633e+02	-3.889167e-02
4.475334e+02	-3.934019e-02
4.501183e+02	-3.979386e-02
4.527182e+02	-4.025274e-02
4.553330e+02	-4.071689e-02
4.579630e+02	-4.118637e-02
4.606082e+02	-4.166123e-02
4.632687e+02	-4.214154e-02
4.659445e+02	-4.262736e-02
4.686358e+02	-4.311875e-02
4.713426e+02	-4.361578e-02
4.740650e+02	-4.411850e-02
4.768032e+02	-4.462700e-02
4.795572e+02	-4.514132e-02
4.823271e+02	-4.566154e-02
4.851130e+02	-4.618772e-02
4.879150e+02	-4.671993e-02
4.907332e+02	-4.725825e-02
4.935676e+02	-4.780273e-02
4.964185e+02	-4.835344e-02
4.992858e+02	-4.891047e-02
5.021696e+02	-4.947388e-02
5.050701e+02	-5.004374e-02
5.079874e+02	-5.062012e-02
5.109215e+02	-5.120311e-02
5.138726e+02	-5.179277e-02
5.168407e+02	-5.238917e-02
5.198259e+02	-5.299241e-02
5.228284e+02	-5.360254e-02
5.258482e+02	-5.421966e-02
5.288855e+02	-5.484384e-02
5.319403e+02	-5.547516e-02
5.350128e+02	-5.611369e-02
5.381030e+02	-5.675953e-02
5.412111e+02	-5.741275e-02
5.443371e+02	-5.807344e-02
5.474812e+02	-5.874168e-02
5.506434e+02	-5.941756e-02
5.538239e+02	-6.010116e-02
5.570228e+02	-6.079257e-02
5.602401e+02	-6.149188e-02
5.634760e+02	-6.219917e-02
5.667306e+02	-6.291454e-02
5.700040e+02	-6.363808e-02
5.732964e+02	-6.436987e-02
5.766077e+02	-6.511002e-02
5.799382e+02	-6.585862e-02
5.832879e+02	-6.661575e-02
5.866569e+02	-6.738152e-02
5.900454e+02	-6.815603e-02
5.934535e+02	-6.893936e-02
5.968813e+02	-6.973163e-02
6.003288e+02	-7.053293e-02
6.037963e+02	-7.134336e-02
6.072838e+02	-7.216302e-02
6.107914e+02	-7.299202e-02
6.143194e+02	-7.383046e-02
6.178676e+02	-7.467845e-02
6.214364e+02	-7.553610e-02
6.250258e+02	-7.640351e-02
6.286359e+02	-7.728079e-02
6.322669e+02	-7.816805e-02
6.359189e+02	-7.906541e-02
6.395919e+02	-7.997297e-02
6.432862e+02	-8.089086e-02
6.470017e+02	-8.181918e-02
6.507388e+02	-8.275805e-02
6.544974e+02	-8.370759e-02
6.582778e+02	-8.466792e-02
6.620800e+02	-8.563915e-02
6.659041e+02	-8.662142e-02
6.697504e+02	-8.761484e-02
6.736188e+02	-8.861953e-02
6.775096e+02	-8.963563e-02
6.814229e+02	-9.066326e-02
6.853587e+02	-9.170254e-02
6.893173e+02	-9.275361e-02
6.932988e+02	-9.381659e-02
6.973033e+02	-9.489163e-02
7.013309e+02	-9.597884e-02
