Frequency(Hz)	Magnitude(dB)
1.000000e+01	-2.069564e+00
1.005776e+01	-2.088724e+00
1.011585e+01	-2.107668e+00
1.017428e+01	-2.127104e+00
1.023305e+01	-2.146545e+00
1.029215e+01	-2.165965e+00
1.035160e+01	-2.185718e+00
1.041139e+01	-2.205971e+00
1.047153e+01	-2.225547e+00
1.053201e+01	-2.245822e+00
1.059284e+01	-2.266113e+00
1.065403e+01	-2.286476e+00
1.071556e+01	-2.306948e+00
1.077746e+01	-2.327718e+00
1.083971e+01	-2.348726e+00
1.090232e+01	-2.369462e+00
1.096529e+01	-2.390514e+00
1.102862e+01	-2.411904e+00
1.109232e+01	-2.433120e+00
1.115639e+01	-2.454714e+00
1.122083e+01	-2.476245e+00
1.128564e+01	-2.498117e+00
1.135083e+01	-2.520132e+00
1.141639e+01	-2.542222e+00
1.148233e+01	-2.564487e+00
1.154865e+01	-2.587018e+00
1.161536e+01	-2.609322e+00
1.168245e+01	-2.632247e+00
1.174992e+01	-2.654884e+00
1.181779e+01	-2.677697e+00
1.188605e+01	-2.700668e+00
1.195470e+01	-2.724266e+00
1.202375e+01	-2.747536e+00
1.209320e+01	-2.771101e+00
1.216305e+01	-2.794474e+00
1.223330e+01	-2.818591e+00
1.230396e+01	-2.842253e+00
1.237503e+01	-2.866397e+00
1.244651e+01	-2.891007e+00
1.251840e+01	-2.915065e+00
1.259070e+01	-2.939687e+00
1.266343e+01	-2.964280e+00
1.273657e+01	-2.989341e+00
1.281014e+01	-3.014368e+00
1.288413e+01	-3.039249e+00
1.295855e+01	-3.064523e+00
1.303339e+01	-3.090168e+00
1.310867e+01	-3.115388e+00
1.318439e+01	-3.141296e+00
1.326054e+01	-3.167023e+00
1.333713e+01	-3.193142e+00
1.341417e+01	-3.219023e+00
1.349165e+01	-3.245282e+00
1.356958e+01	-3.271754e+00
1.364795e+01	-3.298306e+00
1.372678e+01	-3.325223e+00
1.380607e+01	-3.351890e+00
1.388581e+01	-3.378892e+00
1.396602e+01	-3.405893e+00
1.404668e+01	-3.433011e+00
1.412782e+01	-3.460441e+00
1.420942e+01	-3.488122e+00
1.429149e+01	-3.515827e+00
1.437404e+01	-3.543565e+00
1.445706e+01	-3.571671e+00
1.454057e+01	-3.599745e+00
1.462455e+01	-3.628094e+00
1.470902e+01	-3.656504e+00
1.479398e+01	-3.685086e+00
1.487943e+01	-3.713771e+00
1.496537e+01	-3.742370e+00
1.505181e+01	-3.771429e+00
1.513875e+01	-3.800578e+00
1.522619e+01	-3.829773e+00
1.531414e+01	-3.859153e+00
1.540259e+01	-3.888866e+00
1.549156e+01	-3.918415e+00
1.558103e+01	-3.948249e+00
1.567103e+01	-3.977749e+00
1.576155e+01	-4.008059e+00
1.585258e+01	-4.038195e+00
1.594415e+01	-4.068577e+00
1.603624e+01	-4.099038e+00
1.612886e+01	-4.129658e+00
1.622202e+01	-4.160580e+00
1.631572e+01	-4.191644e+00
1.640996e+01	-4.222439e+00
1.650474e+01	-4.253677e+00
1.660008e+01	-4.285078e+00
1.669596e+01	-4.316431e+00
1.679239e+01	-4.348168e+00
1.688938e+01	-4.379846e+00
1.698694e+01	-4.411272e+00
1.708505e+01	-4.443371e+00
1.718373e+01	-4.475891e+00
1.728299e+01	-4.507753e+00
1.738281e+01	-4.540187e+00
1.748322e+01	-4.572969e+00
1.758420e+01	-4.605839e+00
1.768576e+01	-4.638108e+00
1.778792e+01	-4.671326e+00
1.789066e+01	-4.704061e+00
1.799399e+01	-4.737109e+00
1.809793e+01	-4.770780e+00
1.820246e+01	-4.803897e+00
1.830760e+01	-4.837903e+00
1.841334e+01	-4.871057e+00
1.851969e+01	-4.905194e+00
1.862666e+01	-4.939065e+00
1.873425e+01	-4.973119e+00
1.884246e+01	-5.007108e+00
1.895129e+01	-5.041071e+00
1.906075e+01	-5.075822e+00
1.917085e+01	-5.110527e+00
1.928158e+01	-5.145340e+00
1.939295e+01	-5.180012e+00
1.950496e+01	-5.214889e+00
1.961762e+01	-5.249703e+00
1.973093e+01	-5.284589e+00
1.984490e+01	-5.320412e+00
1.995952e+01	-5.355359e+00
2.007480e+01	-5.390975e+00
2.019076e+01	-5.426610e+00
2.030738e+01	-5.462539e+00
2.042467e+01	-5.498473e+00
2.054264e+01	-5.534396e+00
2.066130e+01	-5.570313e+00
2.078064e+01	-5.606799e+00
2.090066e+01	-5.643202e+00
2.102139e+01	-5.679492e+00
2.114280e+01	-5.715979e+00
2.126492e+01	-5.752786e+00
2.138775e+01	-5.789135e+00
2.151128e+01	-5.826329e+00
2.163553e+01	-5.863092e+00
2.176050e+01	-5.900599e+00
2.188619e+01	-5.937827e+00
2.201260e+01	-5.974920e+00
2.213974e+01	-6.012498e+00
2.226762e+01	-6.049932e+00
2.239624e+01	-6.087665e+00
2.252560e+01	-6.125380e+00
2.265571e+01	-6.163124e+00
2.278656e+01	-6.201096e+00
2.291818e+01	-6.238964e+00
2.305055e+01	-6.277699e+00
2.318369e+01	-6.315703e+00
2.331760e+01	-6.354259e+00
2.345228e+01	-6.392693e+00
2.358774e+01	-6.431334e+00
2.372398e+01	-6.469974e+00
2.386101e+01	-6.508790e+00
2.399883e+01	-6.547784e+00
2.413745e+01	-6.586932e+00
2.427686e+01	-6.625967e+00
2.441709e+01	-6.664818e+00
2.455812e+01	-6.704304e+00
2.469997e+01	-6.743814e+00
2.484263e+01	-6.783040e+00
2.498612e+01	-6.822742e+00
2.513044e+01	-6.862388e+00
2.527559e+01	-6.902084e+00
2.542158e+01	-6.941776e+00
2.556842e+01	-6.982198e+00
2.571610e+01	-7.021793e+00
2.586463e+01	-7.062444e+00
2.601403e+01	-7.102290e+00
2.616428e+01	-7.142387e+00
2.631541e+01	-7.183158e+00
2.646740e+01	-7.223545e+00
2.662028e+01	-7.264133e+00
2.677404e+01	-7.304922e+00
2.692868e+01	-7.345663e+00
2.708422e+01	-7.386240e+00
2.724066e+01	-7.427962e+00
2.739800e+01	-7.468669e+00
2.755625e+01	-7.509479e+00
2.771541e+01	-7.550514e+00
2.787550e+01	-7.591882e+00
2.803650e+01	-7.633245e+00
2.819844e+01	-7.675083e+00
2.836131e+01	-7.716539e+00
2.852513e+01	-7.757849e+00
2.868989e+01	-7.799551e+00
2.885560e+01	-7.841428e+00
2.902227e+01	-7.883105e+00
2.918990e+01	-7.924916e+00
2.935850e+01	-7.967245e+00
2.952807e+01	-8.009324e+00
2.969863e+01	-8.051479e+00
2.987016e+01	-8.093428e+00
3.004269e+01	-8.136028e+00
3.021622e+01	-8.178320e+00
3.039075e+01	-8.220523e+00
3.056628e+01	-8.263258e+00
3.074283e+01	-8.305722e+00
3.092040e+01	-8.348758e+00
3.109900e+01	-8.391270e+00
3.127862e+01	-8.434235e+00
3.145929e+01	-8.476464e+00
3.164099e+01	-8.520265e+00
3.182375e+01	-8.562949e+00
3.200756e+01	-8.606234e+00
3.219244e+01	-8.649006e+00
3.237838e+01	-8.692531e+00
3.256540e+01	-8.735678e+00
3.275349e+01	-8.779170e+00
3.294268e+01	-8.822657e+00
3.313295e+01	-8.866264e+00
3.332433e+01	-8.909747e+00
3.351681e+01	-8.953054e+00
3.371040e+01	-8.997282e+00
3.390511e+01	-9.041218e+00
3.410094e+01	-9.084667e+00
3.429791e+01	-9.128011e+00
3.449601e+01	-9.171987e+00
3.469526e+01	-9.216417e+00
3.489566e+01	-9.260586e+00
3.509721e+01	-9.304219e+00
3.529993e+01	-9.348704e+00
3.550382e+01	-9.392847e+00
3.570889e+01	-9.437842e+00
3.591515e+01	-9.481213e+00
3.612259e+01	-9.525863e+00
3.633123e+01	-9.570490e+00
3.654108e+01	-9.614739e+00
3.675214e+01	-9.659879e+00
3.696442e+01	-9.704292e+00
3.717792e+01	-9.748904e+00
3.739266e+01	-9.793703e+00
3.760864e+01	-9.838625e+00
3.782587e+01	-9.883376e+00
3.804435e+01	-9.928143e+00
3.826409e+01	-9.973361e+00
3.848510e+01	-1.001800e+01
3.870739e+01	-1.006341e+01
3.893096e+01	-1.010875e+01
3.915583e+01	-1.015368e+01
3.938199e+01	-1.019852e+01
3.960946e+01	-1.024415e+01
3.983824e+01	-1.028952e+01
4.006834e+01	-1.033515e+01
4.029978e+01	-1.037984e+01
4.053255e+01	-1.042574e+01
4.076666e+01	-1.047137e+01
4.100213e+01	-1.051710e+01
4.123896e+01	-1.056233e+01
4.147715e+01	-1.060808e+01
4.171672e+01	-1.065384e+01
4.195767e+01	-1.069981e+01
4.220002e+01	-1.074563e+01
4.244377e+01	-1.079065e+01
4.268892e+01	-1.083692e+01
4.293549e+01	-1.088279e+01
4.318348e+01	-1.092871e+01
4.343291e+01	-1.097547e+01
4.368377e+01	-1.102091e+01
4.393609e+01	-1.106657e+01
4.418986e+01	-1.111309e+01
4.444510e+01	-1.115942e+01
4.470182e+01	-1.120584e+01
4.496001e+01	-1.125190e+01
4.521970e+01	-1.129783e+01
4.548089e+01	-1.134484e+01
4.574358e+01	-1.139100e+01
4.600779e+01	-1.143703e+01
4.627353e+01	-1.148359e+01
4.654081e+01	-1.153014e+01
4.680963e+01	-1.157700e+01
4.708000e+01	-1.162310e+01
4.735193e+01	-1.167026e+01
4.762543e+01	-1.171598e+01
4.790051e+01	-1.176321e+01
4.817719e+01	-1.181003e+01
4.845545e+01	-1.185656e+01
4.873533e+01	-1.190403e+01
4.901682e+01	-1.194981e+01
4.929994e+01	-1.199715e+01
4.958470e+01	-1.204423e+01
4.987110e+01	-1.209120e+01
5.015915e+01	-1.213750e+01
5.044887e+01	-1.218517e+01
5.074026e+01	-1.223154e+01
5.103333e+01	-1.227945e+01
5.132810e+01	-1.232641e+01
5.162457e+01	-1.237328e+01
5.192275e+01	-1.242064e+01
5.222265e+01	-1.246776e+01
5.252429e+01	-1.251425e+01
5.282767e+01	-1.256221e+01
5.313280e+01	-1.260940e+01
5.343969e+01	-1.265698e+01
5.374836e+01	-1.270407e+01
5.405880e+01	-1.275100e+01
5.437105e+01	-1.279907e+01
5.468509e+01	-1.284641e+01
5.500095e+01	-1.289359e+01
5.531863e+01	-1.294066e+01
5.563815e+01	-1.298843e+01
5.595951e+01	-1.303508e+01
5.628273e+01	-1.308311e+01
5.660782e+01	-1.313134e+01
5.693479e+01	-1.317892e+01
5.726364e+01	-1.322623e+01
5.759439e+01	-1.327473e+01
5.792705e+01	-1.332187e+01
5.826164e+01	-1.336937e+01
5.859815e+01	-1.341679e+01
5.893662e+01	-1.346444e+01
5.927703e+01	-1.351247e+01
5.961941e+01	-1.356120e+01
5.996377e+01	-1.360859e+01
6.031012e+01	-1.365609e+01
6.065847e+01	-1.370465e+01
6.100883e+01	-1.375145e+01
6.136121e+01	-1.379938e+01
6.171563e+01	-1.384775e+01
6.207210e+01	-1.389553e+01
6.243063e+01	-1.394478e+01
6.279122e+01	-1.399102e+01
6.315390e+01	-1.403949e+01
6.351868e+01	-1.408850e+01
6.388556e+01	-1.413682e+01
6.425456e+01	-1.418441e+01
6.462569e+01	-1.423250e+01
6.499897e+01	-1.428037e+01
6.537440e+01	-1.432830e+01
6.575200e+01	-1.437652e+01
6.613178e+01	-1.442531e+01
6.651375e+01	-1.447317e+01
6.689793e+01	-1.452187e+01
6.728433e+01	-1.456970e+01
6.767297e+01	-1.461828e+01
6.806384e+01	-1.466651e+01
6.845698e+01	-1.471528e+01
6.885238e+01	-1.476209e+01
6.925007e+01	-1.481088e+01
6.965005e+01	-1.486059e+01
7.005235e+01	-1.490814e+01
7.045697e+01	-1.495591e+01
7.086393e+01	-1.500529e+01
7.127323e+01	-1.505356e+01
7.168490e+01	-1.510239e+01
7.209895e+01	-1.515031e+01
7.251539e+01	-1.519883e+01
7.293424e+01	-1.524791e+01
7.335551e+01	-1.529589e+01
7.377920e+01	-1.534436e+01
7.420535e+01	-1.539329e+01
7.463396e+01	-1.544089e+01
7.506504e+01	-1.549111e+01
7.549861e+01	-1.553918e+01
7.593469e+01	-1.558824e+01
7.637328e+01	-1.563665e+01
7.681441e+01	-1.568465e+01
7.725809e+01	-1.573367e+01
7.770433e+01	-1.578202e+01
7.815315e+01	-1.583117e+01
7.860456e+01	-1.587936e+01
7.905857e+01	-1.592858e+01
7.951521e+01	-1.597650e+01
7.997449e+01	-1.602539e+01
8.043642e+01	-1.607390e+01
8.090102e+01	-1.612306e+01
8.136830e+01	-1.617280e+01
8.183828e+01	-1.622015e+01
8.231097e+01	-1.627018e+01
8.278640e+01	-1.631777e+01
8.326457e+01	-1.636735e+01
8.374550e+01	-1.641706e+01
8.422921e+01	-1.646582e+01
8.471572e+01	-1.651371e+01
8.520503e+01	-1.656397e+01
8.569717e+01	-1.661290e+01
8.619215e+01	-1.666143e+01
8.669000e+01	-1.671045e+01
8.719071e+01	-1.675883e+01
8.769432e+01	-1.680790e+01
8.820084e+01	-1.685667e+01
8.871029e+01	-1.690557e+01
8.922267e+01	-1.695465e+01
8.973802e+01	-1.700354e+01
9.025634e+01	-1.705351e+01
9.077766e+01	-1.710309e+01
9.130199e+01	-1.715179e+01
9.182935e+01	-1.720129e+01
9.235975e+01	-1.724961e+01
9.289321e+01	-1.729862e+01
9.342976e+01	-1.734687e+01
9.396941e+01	-1.739674e+01
9.451217e+01	-1.744653e+01
9.505807e+01	-1.749574e+01
9.560712e+01	-1.754355e+01
9.615934e+01	-1.759328e+01
9.671476e+01	-1.764288e+01
9.727338e+01	-1.769041e+01
9.783522e+01	-1.774195e+01
9.840032e+01	-1.779148e+01
9.896867e+01	-1.783983e+01
9.954031e+01	-1.788698e+01
1.001153e+02	-1.793807e+01
1.006935e+02	-1.798881e+01
1.012751e+02	-1.803706e+01
1.018601e+02	-1.808632e+01
1.024484e+02	-1.813547e+01
1.030402e+02	-1.818296e+01
1.036353e+02	-1.823412e+01
1.042339e+02	-1.828390e+01
1.048360e+02	-1.833314e+01
1.054415e+02	-1.838064e+01
1.060505e+02	-1.843006e+01
1.066631e+02	-1.847982e+01
1.072791e+02	-1.852887e+01
1.078988e+02	-1.857869e+01
1.085220e+02	-1.862734e+01
1.091488e+02	-1.867735e+01
1.097793e+02	-1.872614e+01
1.104133e+02	-1.877667e+01
1.110511e+02	-1.882544e+01
1.116925e+02	-1.887511e+01
1.123376e+02	-1.892392e+01
1.129865e+02	-1.897372e+01
1.136391e+02	-1.902282e+01
1.142955e+02	-1.907294e+01
1.149556e+02	-1.912273e+01
1.156196e+02	-1.917167e+01
1.162874e+02	-1.922090e+01
1.169591e+02	-1.927062e+01
1.176347e+02	-1.932005e+01
1.183141e+02	-1.936912e+01
1.189975e+02	-1.941886e+01
1.196848e+02	-1.946683e+01
1.203761e+02	-1.951756e+01
1.210714e+02	-1.956809e+01
1.217707e+02	-1.961634e+01
1.224740e+02	-1.966686e+01
1.231814e+02	-1.971555e+01
1.238929e+02	-1.976461e+01
1.246085e+02	-1.981380e+01
1.253283e+02	-1.986426e+01
1.260522e+02	-1.991302e+01
1.267802e+02	-1.996282e+01
1.275125e+02	-2.001395e+01
1.282490e+02	-2.006202e+01
1.289898e+02	-2.011146e+01
1.297348e+02	-2.016004e+01
1.304842e+02	-2.020982e+01
1.312378e+02	-2.025988e+01
1.319959e+02	-2.030867e+01
1.327583e+02	-2.036106e+01
1.335251e+02	-2.040948e+01
1.342963e+02	-2.046015e+01
1.350720e+02	-2.050744e+01
1.358522e+02	-2.055711e+01
1.366368e+02	-2.060782e+01
1.374260e+02	-2.065735e+01
1.382198e+02	-2.070665e+01
1.390182e+02	-2.075682e+01
1.398211e+02	-2.080573e+01
1.406287e+02	-2.085475e+01
1.414410e+02	-2.090470e+01
1.422579e+02	-2.095444e+01
1.430796e+02	-2.100400e+01
1.439060e+02	-2.105516e+01
1.447372e+02	-2.110305e+01
1.455732e+02	-2.115406e+01
1.464141e+02	-2.120268e+01
1.472597e+02	-2.125275e+01
1.481103e+02	-2.130113e+01
1.489658e+02	-2.135278e+01
1.498262e+02	-2.140442e+01
1.506916e+02	-2.144988e+01
1.515620e+02	-2.149955e+01
1.524374e+02	-2.155052e+01
1.533179e+02	-2.159786e+01
1.542034e+02	-2.164925e+01
1.550941e+02	-2.169990e+01
1.559899e+02	-2.174848e+01
1.568909e+02	-2.180020e+01
1.577971e+02	-2.184950e+01
1.587085e+02	-2.190065e+01
1.596252e+02	-2.195022e+01
1.605472e+02	-2.199807e+01
1.614745e+02	-2.204961e+01
1.624072e+02	-2.209704e+01
1.633453e+02	-2.214754e+01
1.642887e+02	-2.219765e+01
1.652377e+02	-2.224575e+01
1.661921e+02	-2.229593e+01
1.671520e+02	-2.234714e+01
1.681175e+02	-2.239507e+01
1.690885e+02	-2.244716e+01
1.700651e+02	-2.249828e+01
1.710474e+02	-2.254592e+01
1.720354e+02	-2.259537e+01
1.730291e+02	-2.264430e+01
1.740285e+02	-2.269497e+01
1.750337e+02	-2.274570e+01
1.760446e+02	-2.279417e+01
1.770615e+02	-2.284449e+01
1.780842e+02	-2.289429e+01
1.791128e+02	-2.294185e+01
1.801473e+02	-2.299295e+01
1.811878e+02	-2.304216e+01
1.822344e+02	-2.309323e+01
1.832870e+02	-2.314348e+01
1.843456e+02	-2.319307e+01
1.854104e+02	-2.324228e+01
1.864813e+02	-2.329238e+01
1.875584e+02	-2.334136e+01
1.886418e+02	-2.339090e+01
1.897313e+02	-2.344218e+01
1.908272e+02	-2.349232e+01
1.919294e+02	-2.353998e+01
1.930380e+02	-2.359318e+01
1.941530e+02	-2.364080e+01
1.952744e+02	-2.369147e+01
1.964023e+02	-2.374019e+01
1.975367e+02	-2.379014e+01
1.986777e+02	-2.384028e+01
1.998252e+02	-2.389005e+01
2.009794e+02	-2.393922e+01
2.021403e+02	-2.398890e+01
2.033078e+02	-2.404016e+01
2.044821e+02	-2.409037e+01
2.056632e+02	-2.414247e+01
2.068511e+02	-2.418900e+01
2.080459e+02	-2.423991e+01
2.092475e+02	-2.428758e+01
2.104561e+02	-2.433935e+01
2.116717e+02	-2.438883e+01
2.128943e+02	-2.444213e+01
2.141240e+02	-2.448940e+01
2.153608e+02	-2.454175e+01
2.166047e+02	-2.458689e+01
2.178558e+02	-2.463876e+01
2.191141e+02	-2.468853e+01
2.203797e+02	-2.473592e+01
2.216526e+02	-2.479032e+01
2.229329e+02	-2.483776e+01
2.242205e+02	-2.488526e+01
2.255156e+02	-2.493823e+01
2.268182e+02	-2.498777e+01
2.281283e+02	-2.503653e+01
2.294459e+02	-2.508548e+01
2.307712e+02	-2.513877e+01
2.321041e+02	-2.518635e+01
2.334447e+02	-2.523652e+01
2.347931e+02	-2.528668e+01
2.361493e+02	-2.533737e+01
2.375133e+02	-2.538797e+01
2.388851e+02	-2.543589e+01
2.402649e+02	-2.548456e+01
2.416527e+02	-2.553681e+01
2.430484e+02	-2.558676e+01
2.444523e+02	-2.563619e+01
2.458642e+02	-2.568753e+01
2.472843e+02	-2.573532e+01
2.487126e+02	-2.578579e+01
2.501492e+02	-2.583494e+01
2.515940e+02	-2.588605e+01
2.530472e+02	-2.593540e+01
2.545088e+02	-2.598862e+01
2.559789e+02	-2.603700e+01
2.574574e+02	-2.608625e+01
2.589444e+02	-2.613400e+01
2.604401e+02	-2.618519e+01
2.619444e+02	-2.623707e+01
2.634574e+02	-2.628689e+01
2.649791e+02	-2.633471e+01
2.665096e+02	-2.638617e+01
2.680489e+02	-2.643295e+01
2.695972e+02	-2.648713e+01
2.711544e+02	-2.653613e+01
2.727205e+02	-2.658587e+01
2.742958e+02	-2.663709e+01
2.758801e+02	-2.668546e+01
2.774736e+02	-2.673315e+01
2.790762e+02	-2.678831e+01
2.806882e+02	-2.683429e+01
2.823094e+02	-2.688735e+01
2.839400e+02	-2.693758e+01
2.855800e+02	-2.698158e+01
2.872295e+02	-2.703501e+01
2.888886e+02	-2.708763e+01
2.905572e+02	-2.713744e+01
2.922354e+02	-2.718633e+01
2.939234e+02	-2.723411e+01
2.956211e+02	-2.728590e+01
2.973286e+02	-2.733286e+01
2.990459e+02	-2.738736e+01
3.007732e+02	-2.743614e+01
3.025104e+02	-2.748277e+01
3.042577e+02	-2.753547e+01
3.060151e+02	-2.758464e+01
3.077826e+02	-2.763455e+01
3.095604e+02	-2.768751e+01
3.113484e+02	-2.773341e+01
3.131467e+02	-2.778728e+01
3.149554e+02	-2.783836e+01
3.167746e+02	-2.788127e+01
3.186043e+02	-2.793772e+01
3.204445e+02	-2.798603e+01
3.222954e+02	-2.803476e+01
3.241570e+02	-2.808682e+01
3.260293e+02	-2.813393e+01
3.279124e+02	-2.818603e+01
3.298064e+02	-2.823642e+01
3.317114e+02	-2.828357e+01
3.336273e+02	-2.833633e+01
3.355544e+02	-2.838819e+01
3.374925e+02	-2.843618e+01
3.394418e+02	-2.848713e+01
3.414024e+02	-2.853954e+01
3.433744e+02	-2.858571e+01
3.453577e+02	-2.864041e+01
3.473525e+02	-2.868444e+01
3.493588e+02	-2.873960e+01
3.513766e+02	-2.878612e+01
3.534062e+02	-2.883460e+01
3.554474e+02	-2.888716e+01
3.575005e+02	-2.893361e+01
3.595654e+02	-2.898997e+01
3.616422e+02	-2.903513e+01
3.637311e+02	-2.908705e+01
3.658320e+02	-2.913557e+01
3.679450e+02	-2.918701e+01
3.700702e+02	-2.923713e+01
3.722077e+02	-2.928390e+01
3.743576e+02	-2.933638e+01
3.765199e+02	-2.938855e+01
3.786946e+02	-2.943539e+01
3.808820e+02	-2.948713e+01
3.830819e+02	-2.953532e+01
3.852946e+02	-2.959021e+01
3.875200e+02	-2.964240e+01
3.897583e+02	-2.968905e+01
3.920096e+02	-2.973284e+01
3.942738e+02	-2.978839e+01
3.965511e+02	-2.983731e+01
3.988416e+02	-2.989244e+01
4.011452e+02	-2.993664e+01
4.034622e+02	-2.998672e+01
4.057926e+02	-3.003633e+01
4.081365e+02	-3.007963e+01
4.104938e+02	-3.013448e+01
4.128648e+02	-3.018618e+01
4.152495e+02	-3.023640e+01
4.176480e+02	-3.029139e+01
4.200603e+02	-3.033672e+01
4.224866e+02	-3.038610e+01
4.249268e+02	-3.043984e+01
4.273812e+02	-3.048872e+01
4.298497e+02	-3.054321e+01
4.323325e+02	-3.059428e+01
4.348297e+02	-3.064095e+01
4.373412e+02	-3.068999e+01
4.398673e+02	-3.073348e+01
4.424079e+02	-3.078773e+01
4.449633e+02	-3.084379e+01
4.475334e+02	-3.089096e+01
4.501183e+02	-3.094034e+01
4.527182e+02	-3.099164e+01
4.553330e+02	-3.104291e+01
4.579630e+02	-3.108567e+01
4.606082e+02	-3.114380e+01
4.632687e+02	-3.119258e+01
4.659445e+02	-3.123948e+01
4.686358e+02	-3.128970e+01
4.713426e+02	-3.133857e+01
4.740650e+02	-3.138483e+01
4.768032e+02	-3.143942e+01
4.795572e+02	-3.149076e+01
4.823271e+02	-3.154680e+01
4.851130e+02	-3.159183e+01
4.879150e+02	-3.163601e+01
4.907332e+02	-3.168779e+01
4.935676e+02	-3.174393e+01
4.964185e+02	-3.179748e+01
4.992858e+02	-3.184140e+01
5.021696e+02	-3.188841e+01
5.050701e+02	-3.194685e+01
5.079874e+02	-3.198524e+01
5.109215e+02	-3.204669e+01
5.138726e+02	-3.209028e+01
5.168407e+02	-3.214007e+01
5.198259e+02	-3.219223e+01
5.228284e+02	-3.224860e+01
5.258482e+02	-3.228989e+01
5.288855e+02	-3.234322e+01
5.319403e+02	-3.239551e+01
5.350128e+02	-3.244247e+01
5.381030e+02	-3.250183e+01
5.412111e+02	-3.254503e+01
5.443371e+02	-3.259703e+01
5.474812e+02	-3.264715e+01
5.506434e+02	-3.270211e+01
5.538239e+02	-3.274986e+01
5.570228e+02	-3.279239e+01
5.602401e+02	-3.285019e+01
5.634760e+02	-3.288793e+01
5.667306e+02	-3.295601e+01
5.700040e+02	-3.299472e+01
5.732964e+02	-3.304945e+01
5.766077e+02	-3.309537e+01
5.799382e+02	-3.315024e+01
5.832879e+02	-3.319131e+01
5.866569e+02	-3.324971e+01
5.900454e+02	-3.330288e+01
5.934535e+02	-3.335366e+01
5.968813e+02	-3.340291e+01
6.003288e+02	-3.344880e+01
6.037963e+02	-3.349991e+01
6.072838e+02	-3.355156e+01
6.107914e+02	-3.360040e+01
6.143194e+02	-3.364999e+01
6.178676e+02	-3.370007e+01
6.214364e+02	-3.374637e+01
6.250258e+02	-3.380029e+01
6.286359e+02	-3.385581e+01
6.322669e+02	-3.390655e+01
6.359189e+02	-3.394644e+01
6.395919e+02	-3.400221e+01
6.432862e+02	-3.404869e+01
6.470017e+02	-3.409810e+01
6.507388e+02	-3.416022e+01
6.544974e+02	-3.420075e+01
6.582778e+02	-3.425443e+01
6.620800e+02	-3.431004e+01
6.659041e+02	-3.435828e+01
6.697504e+02	-3.441143e+01
6.736188e+02	-3.445122e+01
6.775096e+02	-3.451333e+01
6.814229e+02	-3.456064e+01
6.853587e+02	-3.461045e+01
6.893173e+02	-3.465598e+01
6.932988e+02	-3.471109e+01
6.973033e+02	-3.475819e+01
7.013309e+02	-3.480434e+01
