Frequency(Hz)	Magnitude(dB)
1.000000e+01	-2.151965e+00
1.005776e+01	-2.171154e+00
1.011585e+01	-2.191085e+00
1.017428e+01	-2.211188e+00
1.023305e+01	-2.231124e+00
1.029215e+01	-2.251316e+00
1.035160e+01	-2.271539e+00
1.041139e+01	-2.291956e+00
1.047153e+01	-2.312775e+00
1.053201e+01	-2.333193e+00
1.059284e+01	-2.354065e+00
1.065403e+01	-2.375226e+00
1.071556e+01	-2.396213e+00
1.077746e+01	-2.417670e+00
1.083971e+01	-2.438982e+00
1.090232e+01	-2.460604e+00
1.096529e+01	-2.482116e+00
1.102862e+01	-2.504175e+00
1.109232e+01	-2.526144e+00
1.115639e+01	-2.548532e+00
1.122083e+01	-2.570553e+00
1.128564e+01	-2.592984e+00
1.135083e+01	-2.615564e+00
1.141639e+01	-2.638150e+00
1.148233e+01	-2.661029e+00
1.154865e+01	-2.684145e+00
1.161536e+01	-2.707037e+00
1.168245e+01	-2.730566e+00
1.174992e+01	-2.753943e+00
1.181779e+01	-2.777169e+00
1.188605e+01	-2.801174e+00
1.195470e+01	-2.824918e+00
1.202375e+01	-2.849027e+00
1.209320e+01	-2.873100e+00
1.216305e+01	-2.897532e+00
1.223330e+01	-2.921787e+00
1.230396e+01	-2.946356e+00
1.237503e+01	-2.970983e+00
1.244651e+01	-2.995986e+00
1.251840e+01	-3.021243e+00
1.259070e+01	-3.046062e+00
1.266343e+01	-3.071450e+00
1.273657e+01	-3.096809e+00
1.281014e+01	-3.122170e+00
1.288413e+01	-3.148185e+00
1.295855e+01	-3.174010e+00
1.303339e+01	-3.200078e+00
1.310867e+01	-3.226355e+00
1.318439e+01	-3.252802e+00
1.326054e+01	-3.279167e+00
1.333713e+01	-3.305570e+00
1.341417e+01	-3.332233e+00
1.349165e+01	-3.359169e+00
1.356958e+01	-3.386170e+00
1.364795e+01	-3.413554e+00
1.372678e+01	-3.440657e+00
1.380607e+01	-3.467967e+00
1.388581e+01	-3.495745e+00
1.396602e+01	-3.523355e+00
1.404668e+01	-3.551208e+00
1.412782e+01	-3.579482e+00
1.420942e+01	-3.607437e+00
1.429149e+01	-3.635369e+00
1.437404e+01	-3.664161e+00
1.445706e+01	-3.692599e+00
1.454057e+01	-3.721326e+00
1.462455e+01	-3.749992e+00
1.470902e+01	-3.779032e+00
1.479398e+01	-3.808541e+00
1.487943e+01	-3.837558e+00
1.496537e+01	-3.867173e+00
1.505181e+01	-3.896794e+00
1.513875e+01	-3.926672e+00
1.522619e+01	-3.956196e+00
1.531414e+01	-3.986263e+00
1.540259e+01	-4.016372e+00
1.549156e+01	-4.046866e+00
1.558103e+01	-4.076888e+00
1.567103e+01	-4.107443e+00
1.576155e+01	-4.138171e+00
1.585258e+01	-4.168849e+00
1.594415e+01	-4.199814e+00
1.603624e+01	-4.230934e+00
1.612886e+01	-4.262203e+00
1.622202e+01	-4.293600e+00
1.631572e+01	-4.325040e+00
1.640996e+01	-4.356419e+00
1.650474e+01	-4.388376e+00
1.660008e+01	-4.420209e+00
1.669596e+01	-4.452343e+00
1.679239e+01	-4.484401e+00
1.688938e+01	-4.516639e+00
1.698694e+01	-4.549239e+00
1.708505e+01	-4.581742e+00
1.718373e+01	-4.614281e+00
1.728299e+01	-4.647086e+00
1.738281e+01	-4.680021e+00
1.748322e+01	-4.713364e+00
1.758420e+01	-4.746453e+00
1.768576e+01	-4.779719e+00
1.778792e+01	-4.812955e+00
1.789066e+01	-4.846814e+00
1.799399e+01	-4.880344e+00
1.809793e+01	-4.914028e+00
1.820246e+01	-4.948195e+00
1.830760e+01	-4.982384e+00
1.841334e+01	-5.016427e+00
1.851969e+01	-5.050842e+00
1.862666e+01	-5.085092e+00
1.873425e+01	-5.119679e+00
1.884246e+01	-5.154699e+00
1.895129e+01	-5.189372e+00
1.906075e+01	-5.224165e+00
1.917085e+01	-5.259243e+00
1.928158e+01	-5.294377e+00
1.939295e+01	-5.329683e+00
1.950496e+01	-5.365304e+00
1.961762e+01	-5.400686e+00
1.973093e+01	-5.436372e+00
1.984490e+01	-5.472271e+00
1.995952e+01	-5.507763e+00
2.007480e+01	-5.544112e+00
2.019076e+01	-5.580385e+00
2.030738e+01	-5.616688e+00
2.042467e+01	-5.652920e+00
2.054264e+01	-5.689032e+00
2.066130e+01	-5.726028e+00
2.078064e+01	-5.762444e+00
2.090066e+01	-5.799359e+00
2.102139e+01	-5.836121e+00
2.114280e+01	-5.873242e+00
2.126492e+01	-5.910221e+00
2.138775e+01	-5.947362e+00
2.151128e+01	-5.984934e+00
2.163553e+01	-6.022519e+00
2.176050e+01	-6.059915e+00
2.188619e+01	-6.097904e+00
2.201260e+01	-6.135590e+00
2.213974e+01	-6.173492e+00
2.226762e+01	-6.211694e+00
2.239624e+01	-6.249258e+00
2.252560e+01	-6.288000e+00
2.265571e+01	-6.326249e+00
2.278656e+01	-6.364643e+00
2.291818e+01	-6.403356e+00
2.305055e+01	-6.441792e+00
2.318369e+01	-6.480584e+00
2.331760e+01	-6.519224e+00
2.345228e+01	-6.558019e+00
2.358774e+01	-6.597165e+00
2.372398e+01	-6.636399e+00
2.386101e+01	-6.675548e+00
2.399883e+01	-6.714795e+00
2.413745e+01	-6.754435e+00
2.427686e+01	-6.793722e+00
2.441709e+01	-6.833405e+00
2.455812e+01	-6.873215e+00
2.469997e+01	-6.913109e+00
2.484263e+01	-6.952748e+00
2.498612e+01	-6.992642e+00
2.513044e+01	-7.032857e+00
2.527559e+01	-7.072819e+00
2.542158e+01	-7.113145e+00
2.556842e+01	-7.153701e+00
2.571610e+01	-7.193829e+00
2.586463e+01	-7.234610e+00
2.601403e+01	-7.275220e+00
2.616428e+01	-7.315768e+00
2.631541e+01	-7.356618e+00
2.646740e+01	-7.397727e+00
2.662028e+01	-7.438450e+00
2.677404e+01	-7.479609e+00
2.692868e+01	-7.520587e+00
2.708422e+01	-7.562058e+00
2.724066e+01	-7.603104e+00
2.739800e+01	-7.644613e+00
2.755625e+01	-7.686008e+00
2.771541e+01	-7.727414e+00
2.787550e+01	-7.769178e+00
2.803650e+01	-7.810598e+00
2.819844e+01	-7.852904e+00
2.836131e+01	-7.894344e+00
2.852513e+01	-7.936422e+00
2.868989e+01	-7.978757e+00
2.885560e+01	-8.020231e+00
2.902227e+01	-8.062421e+00
2.918990e+01	-8.105188e+00
2.935850e+01	-8.147346e+00
2.952807e+01	-8.189715e+00
2.969863e+01	-8.232228e+00
2.987016e+01	-8.275216e+00
3.004269e+01	-8.317715e+00
3.021622e+01	-8.360036e+00
3.039075e+01	-8.402923e+00
3.056628e+01	-8.445797e+00
3.074283e+01	-8.488773e+00
3.092040e+01	-8.531777e+00
3.109900e+01	-8.574307e+00
3.127862e+01	-8.617431e+00
3.145929e+01	-8.661263e+00
3.164099e+01	-8.704281e+00
3.182375e+01	-8.747397e+00
3.200756e+01	-8.791045e+00
3.219244e+01	-8.834202e+00
3.237838e+01	-8.877816e+00
3.256540e+01	-8.921614e+00
3.275349e+01	-8.965034e+00
3.294268e+01	-9.008680e+00
3.313295e+01	-9.052312e+00
3.332433e+01	-9.096067e+00
3.351681e+01	-9.140233e+00
3.371040e+01	-9.184481e+00
3.390511e+01	-9.227932e+00
3.410094e+01	-9.272780e+00
3.429791e+01	-9.316281e+00
3.449601e+01	-9.360484e+00
3.469526e+01	-9.404990e+00
3.489566e+01	-9.449281e+00
3.509721e+01	-9.493744e+00
3.529993e+01	-9.538237e+00
3.550382e+01	-9.582366e+00
3.570889e+01	-9.627328e+00
3.591515e+01	-9.671928e+00
3.612259e+01	-9.716518e+00
3.633123e+01	-9.760799e+00
3.654108e+01	-9.805542e+00
3.675214e+01	-9.850668e+00
3.696442e+01	-9.895225e+00
3.717792e+01	-9.940495e+00
3.739266e+01	-9.985567e+00
3.760864e+01	-1.003039e+01
3.782587e+01	-1.007534e+01
3.804435e+01	-1.012064e+01
3.826409e+01	-1.016624e+01
3.848510e+01	-1.021140e+01
3.870739e+01	-1.025642e+01
3.893096e+01	-1.030168e+01
3.915583e+01	-1.034663e+01
3.938199e+01	-1.039295e+01
3.960946e+01	-1.043837e+01
3.983824e+01	-1.048356e+01
4.006834e+01	-1.052967e+01
4.029978e+01	-1.057447e+01
4.053255e+01	-1.062014e+01
4.076666e+01	-1.066621e+01
4.100213e+01	-1.071127e+01
4.123896e+01	-1.075756e+01
4.147715e+01	-1.080339e+01
4.171672e+01	-1.084993e+01
4.195767e+01	-1.089457e+01
4.220002e+01	-1.094078e+01
4.244377e+01	-1.098748e+01
4.268892e+01	-1.103316e+01
4.293549e+01	-1.107933e+01
4.318348e+01	-1.112564e+01
4.343291e+01	-1.117181e+01
4.368377e+01	-1.121850e+01
4.393609e+01	-1.126360e+01
4.418986e+01	-1.131061e+01
4.444510e+01	-1.135691e+01
4.470182e+01	-1.140344e+01
4.496001e+01	-1.144983e+01
4.521970e+01	-1.149616e+01
4.548089e+01	-1.154278e+01
4.574358e+01	-1.158939e+01
4.600779e+01	-1.163595e+01
4.627353e+01	-1.168279e+01
4.654081e+01	-1.172894e+01
4.680963e+01	-1.177590e+01
4.708000e+01	-1.182242e+01
4.735193e+01	-1.186952e+01
4.762543e+01	-1.191582e+01
4.790051e+01	-1.196267e+01
4.817719e+01	-1.201020e+01
4.845545e+01	-1.205645e+01
4.873533e+01	-1.210300e+01
4.901682e+01	-1.215010e+01
4.929994e+01	-1.219767e+01
4.958470e+01	-1.224484e+01
4.987110e+01	-1.229090e+01
5.015915e+01	-1.233890e+01
5.044887e+01	-1.238549e+01
5.074026e+01	-1.243317e+01
5.103333e+01	-1.248035e+01
5.132810e+01	-1.252810e+01
5.162457e+01	-1.257441e+01
5.192275e+01	-1.262262e+01
5.222265e+01	-1.266915e+01
5.252429e+01	-1.271668e+01
5.282767e+01	-1.276419e+01
5.313280e+01	-1.281089e+01
5.343969e+01	-1.285863e+01
5.374836e+01	-1.290637e+01
5.405880e+01	-1.295402e+01
5.437105e+01	-1.300149e+01
5.468509e+01	-1.304912e+01
5.500095e+01	-1.309566e+01
5.531863e+01	-1.314375e+01
5.563815e+01	-1.319117e+01
5.595951e+01	-1.323890e+01
5.628273e+01	-1.328682e+01
5.660782e+01	-1.333472e+01
5.693479e+01	-1.338304e+01
5.726364e+01	-1.342996e+01
5.759439e+01	-1.347812e+01
5.792705e+01	-1.352635e+01
5.826164e+01	-1.357382e+01
5.859815e+01	-1.362105e+01
5.893662e+01	-1.366920e+01
5.927703e+01	-1.371707e+01
5.961941e+01	-1.376489e+01
5.996377e+01	-1.381256e+01
6.031012e+01	-1.386069e+01
6.065847e+01	-1.390867e+01
6.100883e+01	-1.395742e+01
6.136121e+01	-1.400584e+01
6.171563e+01	-1.405260e+01
6.207210e+01	-1.410052e+01
6.243063e+01	-1.414880e+01
6.279122e+01	-1.419703e+01
6.315390e+01	-1.424446e+01
6.351868e+01	-1.429391e+01
6.388556e+01	-1.434151e+01
6.425456e+01	-1.438905e+01
6.462569e+01	-1.443828e+01
6.499897e+01	-1.448651e+01
6.537440e+01	-1.453477e+01
6.575200e+01	-1.458323e+01
6.613178e+01	-1.463140e+01
6.651375e+01	-1.467954e+01
6.689793e+01	-1.472780e+01
6.728433e+01	-1.477638e+01
6.767297e+01	-1.482436e+01
6.806384e+01	-1.487312e+01
6.845698e+01	-1.492154e+01
6.885238e+01	-1.496949e+01
6.925007e+01	-1.501807e+01
6.965005e+01	-1.506688e+01
7.005235e+01	-1.511504e+01
7.045697e+01	-1.516411e+01
7.086393e+01	-1.521205e+01
7.127323e+01	-1.526038e+01
7.168490e+01	-1.530933e+01
7.209895e+01	-1.535744e+01
7.251539e+01	-1.540581e+01
7.293424e+01	-1.545510e+01
7.335551e+01	-1.550391e+01
7.377920e+01	-1.555161e+01
7.420535e+01	-1.560028e+01
7.463396e+01	-1.564859e+01
7.506504e+01	-1.569852e+01
7.549861e+01	-1.574723e+01
7.593469e+01	-1.579522e+01
7.637328e+01	-1.584455e+01
7.681441e+01	-1.589322e+01
7.725809e+01	-1.594144e+01
7.770433e+01	-1.599048e+01
7.815315e+01	-1.603829e+01
7.860456e+01	-1.608902e+01
7.905857e+01	-1.613698e+01
7.951521e+01	-1.618568e+01
7.997449e+01	-1.623460e+01
8.043642e+01	-1.628323e+01
8.090102e+01	-1.633194e+01
8.136830e+01	-1.638115e+01
8.183828e+01	-1.643010e+01
8.231097e+01	-1.647863e+01
8.278640e+01	-1.652910e+01
8.326457e+01	-1.657660e+01
8.374550e+01	-1.662657e+01
8.422921e+01	-1.667399e+01
8.471572e+01	-1.672384e+01
8.520503e+01	-1.677232e+01
8.569717e+01	-1.682165e+01
8.619215e+01	-1.686935e+01
8.669000e+01	-1.691948e+01
8.719071e+01	-1.696929e+01
8.769432e+01	-1.701804e+01
8.820084e+01	-1.706607e+01
8.871029e+01	-1.711552e+01
8.922267e+01	-1.716483e+01
8.973802e+01	-1.721320e+01
9.025634e+01	-1.726286e+01
9.077766e+01	-1.731166e+01
9.130199e+01	-1.736057e+01
9.182935e+01	-1.741057e+01
9.235975e+01	-1.745938e+01
9.289321e+01	-1.750857e+01
9.342976e+01	-1.755692e+01
9.396941e+01	-1.760570e+01
9.451217e+01	-1.765546e+01
9.505807e+01	-1.770491e+01
9.560712e+01	-1.775405e+01
9.615934e+01	-1.780397e+01
9.671476e+01	-1.785217e+01
9.727338e+01	-1.790273e+01
9.783522e+01	-1.795179e+01
9.840032e+01	-1.800022e+01
9.896867e+01	-1.804927e+01
9.954031e+01	-1.809779e+01
1.001153e+02	-1.814782e+01
1.006935e+02	-1.819832e+01
1.012751e+02	-1.824665e+01
1.018601e+02	-1.829670e+01
1.024484e+02	-1.834442e+01
1.030402e+02	-1.839436e+01
1.036353e+02	-1.844346e+01
1.042339e+02	-1.849341e+01
1.048360e+02	-1.854301e+01
1.054415e+02	-1.859097e+01
1.060505e+02	-1.864203e+01
1.066631e+02	-1.869083e+01
1.072791e+02	-1.873995e+01
1.078988e+02	-1.878884e+01
1.085220e+02	-1.883906e+01
1.091488e+02	-1.888850e+01
1.097793e+02	-1.893743e+01
1.104133e+02	-1.898766e+01
1.110511e+02	-1.903619e+01
1.116925e+02	-1.908683e+01
1.123376e+02	-1.913671e+01
1.129865e+02	-1.918323e+01
1.136391e+02	-1.923363e+01
1.142955e+02	-1.928322e+01
1.149556e+02	-1.933166e+01
1.156196e+02	-1.938220e+01
1.162874e+02	-1.943015e+01
1.169591e+02	-1.948239e+01
1.176347e+02	-1.953047e+01
1.183141e+02	-1.958048e+01
1.189975e+02	-1.962898e+01
1.196848e+02	-1.967903e+01
1.203761e+02	-1.972652e+01
1.210714e+02	-1.977806e+01
1.217707e+02	-1.982718e+01
1.224740e+02	-1.987726e+01
1.231814e+02	-1.992603e+01
1.238929e+02	-1.997536e+01
1.246085e+02	-2.002593e+01
1.253283e+02	-2.007588e+01
1.260522e+02	-2.012512e+01
1.267802e+02	-2.017415e+01
1.275125e+02	-2.022468e+01
1.282490e+02	-2.027463e+01
1.289898e+02	-2.032281e+01
1.297348e+02	-2.037433e+01
1.304842e+02	-2.042435e+01
1.312378e+02	-2.047240e+01
1.319959e+02	-2.052189e+01
1.327583e+02	-2.057167e+01
1.335251e+02	-2.062216e+01
1.342963e+02	-2.067002e+01
1.350720e+02	-2.071915e+01
1.358522e+02	-2.076885e+01
1.366368e+02	-2.081897e+01
1.374260e+02	-2.086964e+01
1.382198e+02	-2.091876e+01
1.390182e+02	-2.096806e+01
1.398211e+02	-2.102045e+01
1.406287e+02	-2.106755e+01
1.414410e+02	-2.111643e+01
1.422579e+02	-2.116660e+01
1.430796e+02	-2.121543e+01
1.439060e+02	-2.126661e+01
1.447372e+02	-2.131570e+01
1.455732e+02	-2.136573e+01
1.464141e+02	-2.141493e+01
1.472597e+02	-2.146401e+01
1.481103e+02	-2.151362e+01
1.489658e+02	-2.156529e+01
1.498262e+02	-2.161323e+01
1.506916e+02	-2.166547e+01
1.515620e+02	-2.171344e+01
1.524374e+02	-2.176366e+01
1.533179e+02	-2.181325e+01
1.542034e+02	-2.186360e+01
1.550941e+02	-2.191059e+01
1.559899e+02	-2.195871e+01
1.568909e+02	-2.200954e+01
1.577971e+02	-2.206086e+01
1.587085e+02	-2.211062e+01
1.596252e+02	-2.216217e+01
1.605472e+02	-2.220832e+01
1.614745e+02	-2.226045e+01
1.624072e+02	-2.230956e+01
1.633453e+02	-2.235879e+01
1.642887e+02	-2.240942e+01
1.652377e+02	-2.246144e+01
1.661921e+02	-2.250842e+01
1.671520e+02	-2.255774e+01
1.681175e+02	-2.260757e+01
1.690885e+02	-2.265837e+01
1.700651e+02	-2.270890e+01
1.710474e+02	-2.275781e+01
1.720354e+02	-2.280775e+01
1.730291e+02	-2.285671e+01
1.740285e+02	-2.290406e+01
1.750337e+02	-2.295827e+01
1.760446e+02	-2.300740e+01
1.770615e+02	-2.305705e+01
1.780842e+02	-2.310676e+01
1.791128e+02	-2.315715e+01
1.801473e+02	-2.320613e+01
1.811878e+02	-2.325689e+01
1.822344e+02	-2.330417e+01
1.832870e+02	-2.335625e+01
1.843456e+02	-2.340704e+01
1.854104e+02	-2.345697e+01
1.864813e+02	-2.350542e+01
1.875584e+02	-2.355655e+01
1.886418e+02	-2.360492e+01
1.897313e+02	-2.365431e+01
1.908272e+02	-2.370447e+01
1.919294e+02	-2.375290e+01
1.930380e+02	-2.380413e+01
1.941530e+02	-2.385473e+01
1.952744e+02	-2.390132e+01
1.964023e+02	-2.395260e+01
1.975367e+02	-2.400369e+01
1.986777e+02	-2.405685e+01
1.998252e+02	-2.410501e+01
2.009794e+02	-2.415245e+01
2.021403e+02	-2.420236e+01
2.033078e+02	-2.425465e+01
2.044821e+02	-2.430223e+01
2.056632e+02	-2.435360e+01
2.068511e+02	-2.440441e+01
2.080459e+02	-2.445027e+01
2.092475e+02	-2.450222e+01
2.104561e+02	-2.455378e+01
2.116717e+02	-2.460165e+01
2.128943e+02	-2.465063e+01
2.141240e+02	-2.470055e+01
2.153608e+02	-2.475148e+01
2.166047e+02	-2.479926e+01
2.178558e+02	-2.485389e+01
2.191141e+02	-2.490043e+01
2.203797e+02	-2.495172e+01
2.216526e+02	-2.500124e+01
2.229329e+02	-2.505071e+01
2.242205e+02	-2.509915e+01
2.255156e+02	-2.515300e+01
2.268182e+02	-2.519732e+01
2.281283e+02	-2.524958e+01
2.294459e+02	-2.529826e+01
2.307712e+02	-2.534875e+01
2.321041e+02	-2.540154e+01
2.334447e+02	-2.545245e+01
2.347931e+02	-2.549961e+01
2.361493e+02	-2.554941e+01
2.375133e+02	-2.559784e+01
2.388851e+02	-2.565350e+01
2.402649e+02	-2.569944e+01
2.416527e+02	-2.574896e+01
2.430484e+02	-2.580185e+01
2.444523e+02	-2.584970e+01
2.458642e+02	-2.589952e+01
2.472843e+02	-2.594979e+01
2.487126e+02	-2.599950e+01
2.501492e+02	-2.605101e+01
2.515940e+02	-2.609694e+01
2.530472e+02	-2.614557e+01
2.545088e+02	-2.620451e+01
2.559789e+02	-2.625077e+01
2.574574e+02	-2.629628e+01
2.589444e+02	-2.634755e+01
2.604401e+02	-2.639948e+01
2.619444e+02	-2.645076e+01
2.634574e+02	-2.650175e+01
2.649791e+02	-2.655011e+01
2.665096e+02	-2.660156e+01
2.680489e+02	-2.664610e+01
2.695972e+02	-2.669785e+01
2.711544e+02	-2.675184e+01
2.727205e+02	-2.679822e+01
2.742958e+02	-2.684608e+01
2.758801e+02	-2.689854e+01
2.774736e+02	-2.695094e+01
2.790762e+02	-2.700108e+01
2.806882e+02	-2.705078e+01
2.823094e+02	-2.710083e+01
2.839400e+02	-2.714824e+01
2.855800e+02	-2.720223e+01
2.872295e+02	-2.724665e+01
2.888886e+02	-2.729834e+01
2.905572e+02	-2.734815e+01
2.922354e+02	-2.739798e+01
2.939234e+02	-2.745184e+01
2.956211e+02	-2.749314e+01
2.973286e+02	-2.754780e+01
2.990459e+02	-2.759674e+01
3.007732e+02	-2.764939e+01
3.025104e+02	-2.769784e+01
3.042577e+02	-2.774802e+01
3.060151e+02	-2.779724e+01
3.077826e+02	-2.784989e+01
3.095604e+02	-2.789919e+01
3.113484e+02	-2.794922e+01
3.131467e+02	-2.800301e+01
3.149554e+02	-2.805021e+01
3.167746e+02	-2.809899e+01
3.186043e+02	-2.814937e+01
3.204445e+02	-2.819965e+01
3.222954e+02	-2.825315e+01
3.241570e+02	-2.829933e+01
3.260293e+02	-2.834668e+01
3.279124e+02	-2.840337e+01
3.298064e+02	-2.845107e+01
3.317114e+02	-2.849895e+01
3.336273e+02	-2.855217e+01
3.355544e+02	-2.860083e+01
3.374925e+02	-2.864770e+01
3.394418e+02	-2.869802e+01
3.414024e+02	-2.875127e+01
3.433744e+02	-2.879753e+01
3.453577e+02	-2.884928e+01
3.473525e+02	-2.889606e+01
3.493588e+02	-2.895085e+01
3.513766e+02	-2.899697e+01
3.534062e+02	-2.905270e+01
3.554474e+02	-2.909988e+01
3.575005e+02	-2.914677e+01
3.595654e+02	-2.920130e+01
3.616422e+02	-2.924939e+01
3.637311e+02	-2.929710e+01
3.658320e+02	-2.935124e+01
3.679450e+02	-2.939845e+01
3.700702e+02	-2.945017e+01
3.722077e+02	-2.949980e+01
3.743576e+02	-2.954727e+01
3.765199e+02	-2.960051e+01
3.786946e+02	-2.965115e+01
3.808820e+02	-2.970497e+01
3.830819e+02	-2.975288e+01
3.852946e+02	-2.979959e+01
3.875200e+02	-2.985269e+01
3.897583e+02	-2.989788e+01
3.920096e+02	-2.995595e+01
3.942738e+02	-3.000940e+01
3.965511e+02	-3.005031e+01
3.988416e+02	-3.010262e+01
4.011452e+02	-3.015731e+01
4.034622e+02	-3.019792e+01
4.057926e+02	-3.025307e+01
4.081365e+02	-3.030079e+01
4.104938e+02	-3.035421e+01
4.128648e+02	-3.040248e+01
4.152495e+02	-3.045309e+01
4.176480e+02	-3.050339e+01
4.200603e+02	-3.055456e+01
4.224866e+02	-3.060312e+01
4.249268e+02	-3.064833e+01
4.273812e+02	-3.070205e+01
4.298497e+02	-3.075104e+01
4.323325e+02	-3.080473e+01
4.348297e+02	-3.085400e+01
4.373412e+02	-3.090722e+01
4.398673e+02	-3.095629e+01
4.424079e+02	-3.100484e+01
4.449633e+02	-3.105388e+01
4.475334e+02	-3.110365e+01
4.501183e+02	-3.115651e+01
4.527182e+02	-3.120681e+01
4.553330e+02	-3.125565e+01
4.579630e+02	-3.130872e+01
4.606082e+02	-3.135359e+01
4.632687e+02	-3.140887e+01
4.659445e+02	-3.145150e+01
4.686358e+02	-3.150439e+01
4.713426e+02	-3.155584e+01
4.740650e+02	-3.159978e+01
4.768032e+02	-3.165782e+01
4.795572e+02	-3.170616e+01
4.823271e+02	-3.176167e+01
4.851130e+02	-3.180780e+01
4.879150e+02	-3.186130e+01
4.907332e+02	-3.190739e+01
4.935676e+02	-3.196067e+01
4.964185e+02	-3.199763e+01
4.992858e+02	-3.205726e+01
5.021696e+02	-3.211159e+01
5.050701e+02	-3.215898e+01
5.079874e+02	-3.220421e+01
5.109215e+02	-3.226071e+01
5.138726e+02	-3.230953e+01
5.168407e+02	-3.235980e+01
5.198259e+02	-3.240051e+01
5.228284e+02	-3.246212e+01
5.258482e+02	-3.250795e+01
5.288855e+02	-3.255527e+01
5.319403e+02	-3.260978e+01
5.350128e+02	-3.265687e+01
5.381030e+02	-3.271366e+01
5.412111e+02	-3.275757e+01
5.443371e+02	-3.280753e+01
5.474812e+02	-3.285915e+01
5.506434e+02	-3.290767e+01
5.538239e+02	-3.296243e+01
5.570228e+02	-3.301324e+01
5.602401e+02	-3.305842e+01
5.634760e+02	-3.311500e+01
5.667306e+02	-3.315907e+01
5.700040e+02	-3.321556e+01
5.732964e+02	-3.326579e+01
5.766077e+02	-3.330718e+01
5.799382e+02	-3.336614e+01
5.832879e+02	-3.341056e+01
5.866569e+02	-3.345928e+01
5.900454e+02	-3.351286e+01
5.934535e+02	-3.356762e+01
5.968813e+02	-3.360809e+01
6.003288e+02	-3.366226e+01
6.037963e+02	-3.371052e+01
6.072838e+02	-3.376120e+01
6.107914e+02	-3.381521e+01
6.143194e+02	-3.386672e+01
6.178676e+02	-3.391415e+01
6.214364e+02	-3.397740e+01
6.250258e+02	-3.402579e+01
6.286359e+02	-3.407465e+01
6.322669e+02	-3.411550e+01
6.359189e+02	-3.417199e+01
6.395919e+02	-3.421403e+01
6.432862e+02	-3.427118e+01
6.470017e+02	-3.432559e+01
6.507388e+02	-3.436689e+01
6.544974e+02	-3.441817e+01
6.582778e+02	-3.447676e+01
6.620800e+02	-3.452003e+01
6.659041e+02	-3.457524e+01
6.697504e+02	-3.462219e+01
6.736188e+02	-3.466662e+01
6.775096e+02	-3.472600e+01
6.814229e+02	-3.476124e+01
6.853587e+02	-3.482000e+01
6.893173e+02	-3.487953e+01
6.932988e+02	-3.491868e+01
6.973033e+02	-3.498454e+01
7.013309e+02	-3.503067e+01
