Frequency(Hz)	Magnitude(dB)
1.000000e+01	-2.035395e+00
1.005776e+01	-2.054055e+00
1.011585e+01	-2.073069e+00
1.017428e+01	-2.091998e+00
1.023305e+01	-2.111491e+00
1.029215e+01	-2.130639e+00
1.035160e+01	-2.150049e+00
1.041139e+01	-2.169691e+00
1.047153e+01	-2.189527e+00
1.053201e+01	-2.209275e+00
1.059284e+01	-2.229366e+00
1.065403e+01	-2.249340e+00
1.071556e+01	-2.269715e+00
1.077746e+01	-2.290052e+00
1.083971e+01	-2.310853e+00
1.090232e+01	-2.331463e+00
1.096529e+01	-2.352395e+00
1.102862e+01	-2.373423e+00
1.109232e+01	-2.394515e+00
1.115639e+01	-2.415935e+00
1.122083e+01	-2.437005e+00
1.128564e+01	-2.458784e+00
1.135083e+01	-2.480542e+00
1.141639e+01	-2.502350e+00
1.148233e+01	-2.524421e+00
1.154865e+01	-2.546239e+00
1.161536e+01	-2.568632e+00
1.168245e+01	-2.591148e+00
1.174992e+01	-2.613535e+00
1.181779e+01	-2.636258e+00
1.188605e+01	-2.659015e+00
1.195470e+01	-2.682024e+00
1.202375e+01	-2.705242e+00
1.209320e+01	-2.728499e+00
1.216305e+01	-2.751817e+00
1.223330e+01	-2.775325e+00
1.230396e+01	-2.799123e+00
1.237503e+01	-2.822964e+00
1.244651e+01	-2.846848e+00
1.251840e+01	-2.871113e+00
1.259070e+01	-2.895485e+00
1.266343e+01	-2.919676e+00
1.273657e+01	-2.944292e+00
1.281014e+01	-2.968992e+00
1.288413e+01	-2.993711e+00
1.295855e+01	-3.018779e+00
1.303339e+01	-3.043905e+00
1.310867e+01	-3.069297e+00
1.318439e+01	-3.094855e+00
1.326054e+01	-3.120389e+00
1.333713e+01	-3.146105e+00
1.341417e+01	-3.171919e+00
1.349165e+01	-3.197662e+00
1.356958e+01	-3.223994e+00
1.364795e+01	-3.250340e+00
1.372678e+01	-3.276539e+00
1.380607e+01	-3.303033e+00
1.388581e+01	-3.330113e+00
1.396602e+01	-3.356957e+00
1.404668e+01	-3.384036e+00
1.412782e+01	-3.411095e+00
1.420942e+01	-3.438368e+00
1.429149e+01	-3.465630e+00
1.437404e+01	-3.493277e+00
1.445706e+01	-3.520906e+00
1.454057e+01	-3.548902e+00
1.462455e+01	-3.576733e+00
1.470902e+01	-3.604844e+00
1.479398e+01	-3.633322e+00
1.487943e+01	-3.661580e+00
1.496537e+01	-3.690355e+00
1.505181e+01	-3.719210e+00
1.513875e+01	-3.747825e+00
1.522619e+01	-3.776731e+00
1.531414e+01	-3.806065e+00
1.540259e+01	-3.835269e+00
1.549156e+01	-3.864737e+00
1.558103e+01	-3.894287e+00
1.567103e+01	-3.923852e+00
1.576155e+01	-3.953640e+00
1.585258e+01	-3.983873e+00
1.594415e+01	-4.013606e+00
1.603624e+01	-4.044059e+00
1.612886e+01	-4.074469e+00
1.622202e+01	-4.104965e+00
1.631572e+01	-4.135620e+00
1.640996e+01	-4.166196e+00
1.650474e+01	-4.197290e+00
1.660008e+01	-4.228501e+00
1.669596e+01	-4.259496e+00
1.679239e+01	-4.290898e+00
1.688938e+01	-4.322187e+00
1.698694e+01	-4.353912e+00
1.708505e+01	-4.385644e+00
1.718373e+01	-4.417412e+00
1.728299e+01	-4.449482e+00
1.738281e+01	-4.481550e+00
1.748322e+01	-4.513784e+00
1.758420e+01	-4.546446e+00
1.768576e+01	-4.578890e+00
1.778792e+01	-4.611491e+00
1.789066e+01	-4.644183e+00
1.799399e+01	-4.677347e+00
1.809793e+01	-4.710468e+00
1.820246e+01	-4.743135e+00
1.830760e+01	-4.776441e+00
1.841334e+01	-4.810012e+00
1.851969e+01	-4.843741e+00
1.862666e+01	-4.877322e+00
1.873425e+01	-4.911080e+00
1.884246e+01	-4.945154e+00
1.895129e+01	-4.979112e+00
1.906075e+01	-5.013541e+00
1.917085e+01	-5.047766e+00
1.928158e+01	-5.082167e+00
1.939295e+01	-5.116867e+00
1.950496e+01	-5.151641e+00
1.961762e+01	-5.186312e+00
1.973093e+01	-5.221125e+00
1.984490e+01	-5.256453e+00
1.995952e+01	-5.291281e+00
2.007480e+01	-5.326985e+00
2.019076e+01	-5.362006e+00
2.030738e+01	-5.397686e+00
2.042467e+01	-5.433353e+00
2.054264e+01	-5.468921e+00
2.066130e+01	-5.505089e+00
2.078064e+01	-5.540867e+00
2.090066e+01	-5.577028e+00
2.102139e+01	-5.613330e+00
2.114280e+01	-5.649393e+00
2.126492e+01	-5.686264e+00
2.138775e+01	-5.722767e+00
2.151128e+01	-5.759185e+00
2.163553e+01	-5.796388e+00
2.176050e+01	-5.832927e+00
2.188619e+01	-5.870127e+00
2.201260e+01	-5.907345e+00
2.213974e+01	-5.944153e+00
2.226762e+01	-5.981753e+00
2.239624e+01	-6.019079e+00
2.252560e+01	-6.056880e+00
2.265571e+01	-6.094534e+00
2.278656e+01	-6.132554e+00
2.291818e+01	-6.170426e+00
2.305055e+01	-6.208012e+00
2.318369e+01	-6.246228e+00
2.331760e+01	-6.284506e+00
2.345228e+01	-6.322560e+00
2.358774e+01	-6.361345e+00
2.372398e+01	-6.399633e+00
2.386101e+01	-6.438385e+00
2.399883e+01	-6.476607e+00
2.413745e+01	-6.516274e+00
2.427686e+01	-6.554967e+00
2.441709e+01	-6.593801e+00
2.455812e+01	-6.632723e+00
2.469997e+01	-6.672187e+00
2.484263e+01	-6.711460e+00
2.498612e+01	-6.750919e+00
2.513044e+01	-6.790272e+00
2.527559e+01	-6.829834e+00
2.542158e+01	-6.869827e+00
2.556842e+01	-6.909600e+00
2.571610e+01	-6.949371e+00
2.586463e+01	-6.989215e+00
2.601403e+01	-7.029457e+00
2.616428e+01	-7.069462e+00
2.631541e+01	-7.109886e+00
2.646740e+01	-7.149864e+00
2.662028e+01	-7.190567e+00
2.677404e+01	-7.230816e+00
2.692868e+01	-7.272023e+00
2.708422e+01	-7.312427e+00
2.724066e+01	-7.352971e+00
2.739800e+01	-7.393846e+00
2.755625e+01	-7.434775e+00
2.771541e+01	-7.475715e+00
2.787550e+01	-7.517059e+00
2.803650e+01	-7.558303e+00
2.819844e+01	-7.599862e+00
2.836131e+01	-7.640787e+00
2.852513e+01	-7.682599e+00
2.868989e+01	-7.724181e+00
2.885560e+01	-7.765813e+00
2.902227e+01	-7.807112e+00
2.918990e+01	-7.849023e+00
2.935850e+01	-7.891058e+00
2.952807e+01	-7.932740e+00
2.969863e+01	-7.975215e+00
2.987016e+01	-8.016952e+00
3.004269e+01	-8.059305e+00
3.021622e+01	-8.101497e+00
3.039075e+01	-8.143855e+00
3.056628e+01	-8.186360e+00
3.074283e+01	-8.228593e+00
3.092040e+01	-8.271157e+00
3.109900e+01	-8.313302e+00
3.127862e+01	-8.356337e+00
3.145929e+01	-8.399260e+00
3.164099e+01	-8.441638e+00
3.182375e+01	-8.484629e+00
3.200756e+01	-8.527680e+00
3.219244e+01	-8.570774e+00
3.237838e+01	-8.614043e+00
3.256540e+01	-8.657225e+00
3.275349e+01	-8.700182e+00
3.294268e+01	-8.744003e+00
3.313295e+01	-8.787112e+00
3.332433e+01	-8.830921e+00
3.351681e+01	-8.874351e+00
3.371040e+01	-8.917967e+00
3.390511e+01	-8.961516e+00
3.410094e+01	-9.005113e+00
3.429791e+01	-9.049043e+00
3.449601e+01	-9.092319e+00
3.469526e+01	-9.136584e+00
3.489566e+01	-9.180338e+00
3.509721e+01	-9.224589e+00
3.529993e+01	-9.268840e+00
3.550382e+01	-9.312346e+00
3.570889e+01	-9.356834e+00
3.591515e+01	-9.400799e+00
3.612259e+01	-9.445477e+00
3.633123e+01	-9.489916e+00
3.654108e+01	-9.534169e+00
3.675214e+01	-9.578646e+00
3.696442e+01	-9.623472e+00
3.717792e+01	-9.667778e+00
3.739266e+01	-9.712029e+00
3.760864e+01	-9.757437e+00
3.782587e+01	-9.801586e+00
3.804435e+01	-9.847233e+00
3.826409e+01	-9.891255e+00
3.848510e+01	-9.936737e+00
3.870739e+01	-9.981516e+00
3.893096e+01	-1.002666e+01
3.915583e+01	-1.007166e+01
3.938199e+01	-1.011673e+01
3.960946e+01	-1.016214e+01
3.983824e+01	-1.020731e+01
4.006834e+01	-1.025276e+01
4.029978e+01	-1.029777e+01
4.053255e+01	-1.034300e+01
4.076666e+01	-1.038860e+01
4.100213e+01	-1.043343e+01
4.123896e+01	-1.048007e+01
4.147715e+01	-1.052504e+01
4.171672e+01	-1.057124e+01
4.195767e+01	-1.061700e+01
4.220002e+01	-1.066198e+01
4.244377e+01	-1.070789e+01
4.268892e+01	-1.075383e+01
4.293549e+01	-1.079949e+01
4.318348e+01	-1.084508e+01
4.343291e+01	-1.089163e+01
4.368377e+01	-1.093692e+01
4.393609e+01	-1.098355e+01
4.418986e+01	-1.102925e+01
4.444510e+01	-1.107562e+01
4.470182e+01	-1.112129e+01
4.496001e+01	-1.116760e+01
4.521970e+01	-1.121378e+01
4.548089e+01	-1.126019e+01
4.574358e+01	-1.130652e+01
4.600779e+01	-1.135260e+01
4.627353e+01	-1.139979e+01
4.654081e+01	-1.144593e+01
4.680963e+01	-1.149186e+01
4.708000e+01	-1.153830e+01
4.735193e+01	-1.158520e+01
4.762543e+01	-1.163122e+01
4.790051e+01	-1.167841e+01
4.817719e+01	-1.172501e+01
4.845545e+01	-1.177237e+01
4.873533e+01	-1.181818e+01
4.901682e+01	-1.186533e+01
4.929994e+01	-1.191226e+01
4.958470e+01	-1.195989e+01
4.987110e+01	-1.200639e+01
5.015915e+01	-1.205278e+01
5.044887e+01	-1.209936e+01
5.074026e+01	-1.214622e+01
5.103333e+01	-1.219332e+01
5.132810e+01	-1.224039e+01
5.162457e+01	-1.228699e+01
5.192275e+01	-1.233426e+01
5.222265e+01	-1.238203e+01
5.252429e+01	-1.242941e+01
5.282767e+01	-1.247608e+01
5.313280e+01	-1.252344e+01
5.343969e+01	-1.257040e+01
5.374836e+01	-1.261795e+01
5.405880e+01	-1.266491e+01
5.437105e+01	-1.271245e+01
5.468509e+01	-1.275942e+01
5.500095e+01	-1.280736e+01
5.531863e+01	-1.285483e+01
5.563815e+01	-1.290246e+01
5.595951e+01	-1.294920e+01
5.628273e+01	-1.299701e+01
5.660782e+01	-1.304515e+01
5.693479e+01	-1.309208e+01
5.726364e+01	-1.313912e+01
5.759439e+01	-1.318690e+01
5.792705e+01	-1.323447e+01
5.826164e+01	-1.328290e+01
5.859815e+01	-1.333019e+01
5.893662e+01	-1.337804e+01
5.927703e+01	-1.342503e+01
5.961941e+01	-1.347353e+01
5.996377e+01	-1.352091e+01
6.031012e+01	-1.356903e+01
6.065847e+01	-1.361756e+01
6.100883e+01	-1.366560e+01
6.136121e+01	-1.371254e+01
6.171563e+01	-1.376071e+01
6.207210e+01	-1.380848e+01
6.243063e+01	-1.385607e+01
6.279122e+01	-1.390535e+01
6.315390e+01	-1.395232e+01
6.351868e+01	-1.400029e+01
6.388556e+01	-1.404903e+01
6.425456e+01	-1.409652e+01
6.462569e+01	-1.414529e+01
6.499897e+01	-1.419236e+01
6.537440e+01	-1.424069e+01
6.575200e+01	-1.428870e+01
6.613178e+01	-1.433710e+01
6.651375e+01	-1.438519e+01
6.689793e+01	-1.443403e+01
6.728433e+01	-1.448209e+01
6.767297e+01	-1.453088e+01
6.806384e+01	-1.457888e+01
6.845698e+01	-1.462712e+01
6.885238e+01	-1.467577e+01
6.925007e+01	-1.472425e+01
6.965005e+01	-1.477097e+01
7.005235e+01	-1.481964e+01
7.045697e+01	-1.486770e+01
7.086393e+01	-1.491720e+01
7.127323e+01	-1.496596e+01
7.168490e+01	-1.501434e+01
7.209895e+01	-1.506158e+01
7.251539e+01	-1.511045e+01
7.293424e+01	-1.515967e+01
7.335551e+01	-1.520787e+01
7.377920e+01	-1.525650e+01
7.420535e+01	-1.530463e+01
7.463396e+01	-1.535441e+01
7.506504e+01	-1.540219e+01
7.549861e+01	-1.545096e+01
7.593469e+01	-1.549874e+01
7.637328e+01	-1.554725e+01
7.681441e+01	-1.559682e+01
7.725809e+01	-1.564560e+01
7.770433e+01	-1.569391e+01
7.815315e+01	-1.574354e+01
7.860456e+01	-1.579154e+01
7.905857e+01	-1.584056e+01
7.951521e+01	-1.588848e+01
7.997449e+01	-1.593735e+01
8.043642e+01	-1.598633e+01
8.090102e+01	-1.603509e+01
8.136830e+01	-1.608355e+01
8.183828e+01	-1.613219e+01
8.231097e+01	-1.618088e+01
8.278640e+01	-1.623166e+01
8.326457e+01	-1.627946e+01
8.374550e+01	-1.632820e+01
8.422921e+01	-1.637734e+01
8.471572e+01	-1.642567e+01
8.520503e+01	-1.647472e+01
8.569717e+01	-1.652331e+01
8.619215e+01	-1.657174e+01
8.669000e+01	-1.662156e+01
8.719071e+01	-1.667059e+01
8.769432e+01	-1.671922e+01
8.820084e+01	-1.676915e+01
8.871029e+01	-1.681719e+01
8.922267e+01	-1.686595e+01
8.973802e+01	-1.691647e+01
9.025634e+01	-1.696491e+01
9.077766e+01	-1.701308e+01
9.130199e+01	-1.706209e+01
9.182935e+01	-1.711173e+01
9.235975e+01	-1.716095e+01
9.289321e+01	-1.720924e+01
9.342976e+01	-1.725862e+01
9.396941e+01	-1.730749e+01
9.451217e+01	-1.735645e+01
9.505807e+01	-1.740663e+01
9.560712e+01	-1.745485e+01
9.615934e+01	-1.750382e+01
9.671476e+01	-1.755324e+01
9.727338e+01	-1.760246e+01
9.783522e+01	-1.765126e+01
9.840032e+01	-1.769993e+01
9.896867e+01	-1.774980e+01
9.954031e+01	-1.779954e+01
1.001153e+02	-1.784987e+01
1.006935e+02	-1.789824e+01
1.012751e+02	-1.794545e+01
1.018601e+02	-1.799621e+01
1.024484e+02	-1.804458e+01
1.030402e+02	-1.809533e+01
1.036353e+02	-1.814386e+01
1.042339e+02	-1.819334e+01
1.048360e+02	-1.824385e+01
1.054415e+02	-1.829192e+01
1.060505e+02	-1.834164e+01
1.066631e+02	-1.839080e+01
1.072791e+02	-1.843945e+01
1.078988e+02	-1.848888e+01
1.085220e+02	-1.853788e+01
1.091488e+02	-1.858790e+01
1.097793e+02	-1.863665e+01
1.104133e+02	-1.868619e+01
1.110511e+02	-1.873689e+01
1.116925e+02	-1.878638e+01
1.123376e+02	-1.883476e+01
1.129865e+02	-1.888438e+01
1.136391e+02	-1.893333e+01
1.142955e+02	-1.898246e+01
1.149556e+02	-1.903287e+01
1.156196e+02	-1.908090e+01
1.162874e+02	-1.913038e+01
1.169591e+02	-1.917985e+01
1.176347e+02	-1.923072e+01
1.183141e+02	-1.927902e+01
1.189975e+02	-1.932935e+01
1.196848e+02	-1.937876e+01
1.203761e+02	-1.942564e+01
1.210714e+02	-1.947763e+01
1.217707e+02	-1.952780e+01
1.224740e+02	-1.957551e+01
1.231814e+02	-1.962590e+01
1.238929e+02	-1.967502e+01
1.246085e+02	-1.972618e+01
1.253283e+02	-1.977303e+01
1.260522e+02	-1.982365e+01
1.267802e+02	-1.987433e+01
1.275125e+02	-1.992272e+01
1.282490e+02	-1.997170e+01
1.289898e+02	-2.002138e+01
1.297348e+02	-2.007249e+01
1.304842e+02	-2.012200e+01
1.312378e+02	-2.017007e+01
1.319959e+02	-2.021917e+01
1.327583e+02	-2.026779e+01
1.335251e+02	-2.031816e+01
1.342963e+02	-2.036830e+01
1.350720e+02	-2.041937e+01
1.358522e+02	-2.046731e+01
1.366368e+02	-2.051593e+01
1.374260e+02	-2.056726e+01
1.382198e+02	-2.061742e+01
1.390182e+02	-2.066461e+01
1.398211e+02	-2.071509e+01
1.406287e+02	-2.076471e+01
1.414410e+02	-2.081570e+01
1.422579e+02	-2.086458e+01
1.430796e+02	-2.091334e+01
1.439060e+02	-2.096401e+01
1.447372e+02	-2.101191e+01
1.455732e+02	-2.106425e+01
1.464141e+02	-2.111191e+01
1.472597e+02	-2.116135e+01
1.481103e+02	-2.121128e+01
1.489658e+02	-2.126147e+01
1.498262e+02	-2.131090e+01
1.506916e+02	-2.136234e+01
1.515620e+02	-2.140969e+01
1.524374e+02	-2.146021e+01
1.533179e+02	-2.151029e+01
1.542034e+02	-2.156105e+01
1.550941e+02	-2.161017e+01
1.559899e+02	-2.165745e+01
1.568909e+02	-2.171056e+01
1.577971e+02	-2.175889e+01
1.587085e+02	-2.181040e+01
1.596252e+02	-2.185816e+01
1.605472e+02	-2.190714e+01
1.614745e+02	-2.195943e+01
1.624072e+02	-2.200554e+01
1.633453e+02	-2.205745e+01
1.642887e+02	-2.210572e+01
1.652377e+02	-2.215648e+01
1.661921e+02	-2.220510e+01
1.671520e+02	-2.225476e+01
1.681175e+02	-2.230513e+01
1.690885e+02	-2.235565e+01
1.700651e+02	-2.240545e+01
1.710474e+02	-2.245586e+01
1.720354e+02	-2.250634e+01
1.730291e+02	-2.255325e+01
1.740285e+02	-2.260305e+01
1.750337e+02	-2.265361e+01
1.760446e+02	-2.270139e+01
1.770615e+02	-2.275510e+01
1.780842e+02	-2.280286e+01
1.791128e+02	-2.285386e+01
1.801473e+02	-2.290325e+01
1.811878e+02	-2.295459e+01
1.822344e+02	-2.300270e+01
1.832870e+02	-2.305304e+01
1.843456e+02	-2.310131e+01
1.854104e+02	-2.315306e+01
1.864813e+02	-2.320011e+01
1.875584e+02	-2.325156e+01
1.886418e+02	-2.330199e+01
1.897313e+02	-2.335240e+01
1.908272e+02	-2.340247e+01
1.919294e+02	-2.345156e+01
1.930380e+02	-2.349818e+01
1.941530e+02	-2.355167e+01
1.952744e+02	-2.360010e+01
1.964023e+02	-2.365005e+01
1.975367e+02	-2.369938e+01
1.986777e+02	-2.375017e+01
1.998252e+02	-2.380108e+01
2.009794e+02	-2.385152e+01
2.021403e+02	-2.389906e+01
2.033078e+02	-2.395119e+01
2.044821e+02	-2.399793e+01
2.056632e+02	-2.405034e+01
2.068511e+02	-2.409906e+01
2.080459e+02	-2.415039e+01
2.092475e+02	-2.419999e+01
2.104561e+02	-2.424795e+01
2.116717e+02	-2.429933e+01
2.128943e+02	-2.434856e+01
2.141240e+02	-2.439687e+01
2.153608e+02	-2.444720e+01
2.166047e+02	-2.449875e+01
2.178558e+02	-2.454887e+01
2.191141e+02	-2.459638e+01
2.203797e+02	-2.465004e+01
2.216526e+02	-2.469866e+01
2.229329e+02	-2.474674e+01
2.242205e+02	-2.479837e+01
2.255156e+02	-2.484959e+01
2.268182e+02	-2.489590e+01
2.281283e+02	-2.494769e+01
2.294459e+02	-2.499667e+01
2.307712e+02	-2.504697e+01
2.321041e+02	-2.509481e+01
2.334447e+02	-2.514578e+01
2.347931e+02	-2.519748e+01
2.361493e+02	-2.524677e+01
2.375133e+02	-2.529828e+01
2.388851e+02	-2.534558e+01
2.402649e+02	-2.539492e+01
2.416527e+02	-2.544764e+01
2.430484e+02	-2.549659e+01
2.444523e+02	-2.554457e+01
2.458642e+02	-2.559968e+01
2.472843e+02	-2.564795e+01
2.487126e+02	-2.569710e+01
2.501492e+02	-2.574454e+01
2.515940e+02	-2.579620e+01
2.530472e+02	-2.584701e+01
2.545088e+02	-2.589636e+01
2.559789e+02	-2.594940e+01
2.574574e+02	-2.599407e+01
2.589444e+02	-2.604582e+01
2.604401e+02	-2.609543e+01
2.619444e+02	-2.614513e+01
2.634574e+02	-2.619417e+01
2.649791e+02	-2.624375e+01
2.665096e+02	-2.629539e+01
2.680489e+02	-2.634607e+01
2.695972e+02	-2.639528e+01
2.711544e+02	-2.644398e+01
2.727205e+02	-2.649511e+01
2.742958e+02	-2.654681e+01
2.758801e+02	-2.659445e+01
2.774736e+02	-2.664614e+01
2.790762e+02	-2.669249e+01
2.806882e+02	-2.674629e+01
2.823094e+02	-2.679737e+01
2.839400e+02	-2.684576e+01
2.855800e+02	-2.689810e+01
2.872295e+02	-2.694759e+01
2.888886e+02	-2.699243e+01
2.905572e+02	-2.704325e+01
2.922354e+02	-2.709324e+01
2.939234e+02	-2.714518e+01
2.956211e+02	-2.719679e+01
2.973286e+02	-2.724367e+01
2.990459e+02	-2.729871e+01
3.007732e+02	-2.734425e+01
3.025104e+02	-2.739443e+01
3.042577e+02	-2.744244e+01
3.060151e+02	-2.749265e+01
3.077826e+02	-2.754784e+01
3.095604e+02	-2.759855e+01
3.113484e+02	-2.764228e+01
3.131467e+02	-2.769446e+01
3.149554e+02	-2.774523e+01
3.167746e+02	-2.779494e+01
3.186043e+02	-2.784719e+01
3.204445e+02	-2.789388e+01
3.222954e+02	-2.794249e+01
3.241570e+02	-2.799692e+01
3.260293e+02	-2.804420e+01
3.279124e+02	-2.809531e+01
3.298064e+02	-2.814601e+01
3.317114e+02	-2.819406e+01
3.336273e+02	-2.824238e+01
3.355544e+02	-2.829739e+01
3.374925e+02	-2.834511e+01
3.394418e+02	-2.840197e+01
3.414024e+02	-2.844671e+01
3.433744e+02	-2.849527e+01
3.453577e+02	-2.854710e+01
3.473525e+02	-2.859547e+01
3.493588e+02	-2.864197e+01
3.513766e+02	-2.869635e+01
3.534062e+02	-2.874621e+01
3.554474e+02	-2.879333e+01
3.575005e+02	-2.884718e+01
3.595654e+02	-2.889589e+01
3.616422e+02	-2.894886e+01
3.637311e+02	-2.899663e+01
3.658320e+02	-2.904861e+01
3.679450e+02	-2.909670e+01
3.700702e+02	-2.914511e+01
3.722077e+02	-2.919525e+01
3.743576e+02	-2.924640e+01
3.765199e+02	-2.929748e+01
3.786946e+02	-2.934326e+01
3.808820e+02	-2.940350e+01
3.830819e+02	-2.944710e+01
3.852946e+02	-2.949500e+01
3.875200e+02	-2.954559e+01
3.897583e+02	-2.959632e+01
3.920096e+02	-2.965000e+01
3.942738e+02	-2.969763e+01
3.965511e+02	-2.975190e+01
3.988416e+02	-2.979749e+01
4.011452e+02	-2.984812e+01
4.034622e+02	-2.989733e+01
4.057926e+02	-2.994865e+01
4.081365e+02	-2.999657e+01
4.104938e+02	-3.004717e+01
4.128648e+02	-3.009588e+01
4.152495e+02	-3.014699e+01
4.176480e+02	-3.019735e+01
4.200603e+02	-3.024810e+01
4.224866e+02	-3.029828e+01
4.249268e+02	-3.034741e+01
4.273812e+02	-3.039515e+01
4.298497e+02	-3.044680e+01
4.323325e+02	-3.050030e+01
4.348297e+02	-3.055288e+01
4.373412e+02	-3.060043e+01
4.398673e+02	-3.064713e+01
4.424079e+02	-3.069674e+01
4.449633e+02	-3.075334e+01
4.475334e+02	-3.080627e+01
4.501183e+02	-3.085267e+01
4.527182e+02	-3.090014e+01
4.553330e+02	-3.095097e+01
4.579630e+02	-3.100400e+01
4.606082e+02	-3.105227e+01
4.632687e+02	-3.110023e+01
4.659445e+02	-3.115033e+01
4.686358e+02	-3.119349e+01
4.713426e+02	-3.125079e+01
4.740650e+02	-3.129757e+01
4.768032e+02	-3.135064e+01
4.795572e+02	-3.139987e+01
4.823271e+02	-3.145398e+01
4.851130e+02	-3.149656e+01
4.879150e+02	-3.155330e+01
4.907332e+02	-3.160177e+01
4.935676e+02	-3.165550e+01
4.964185e+02	-3.170204e+01
4.992858e+02	-3.175077e+01
5.021696e+02	-3.180488e+01
5.050701e+02	-3.185446e+01
5.079874e+02	-3.189914e+01
5.109215e+02	-3.195591e+01
5.138726e+02	-3.200381e+01
5.168407e+02	-3.205478e+01
5.198259e+02	-3.210699e+01
5.228284e+02	-3.216117e+01
5.258482e+02	-3.220411e+01
5.288855e+02	-3.225453e+01
5.319403e+02	-3.230798e+01
5.350128e+02	-3.235420e+01
5.381030e+02	-3.240211e+01
5.412111e+02	-3.245697e+01
5.443371e+02	-3.250370e+01
5.474812e+02	-3.255656e+01
5.506434e+02	-3.261039e+01
5.538239e+02	-3.265449e+01
5.570228e+02	-3.271678e+01
5.602401e+02	-3.275426e+01
5.634760e+02	-3.280392e+01
5.667306e+02	-3.285792e+01
5.700040e+02	-3.290851e+01
5.732964e+02	-3.295509e+01
5.766077e+02	-3.301497e+01
5.799382e+02	-3.306335e+01
5.832879e+02	-3.310886e+01
5.866569e+02	-3.315381e+01
5.900454e+02	-3.321679e+01
5.934535e+02	-3.326504e+01
5.968813e+02	-3.330951e+01
6.003288e+02	-3.335979e+01
6.037963e+02	-3.341370e+01
6.072838e+02	-3.346517e+01
6.107914e+02	-3.351064e+01
6.143194e+02	-3.356013e+01
6.178676e+02	-3.361508e+01
6.214364e+02	-3.366820e+01
6.250258e+02	-3.371676e+01
6.286359e+02	-3.376140e+01
6.322669e+02	-3.382020e+01
6.359189e+02	-3.386476e+01
6.395919e+02	-3.391209e+01
6.432862e+02	-3.396475e+01
6.470017e+02	-3.402140e+01
6.507388e+02	-3.407037e+01
6.544974e+02	-3.412723e+01
6.582778e+02	-3.416025e+01
6.620800e+02	-3.421581e+01
6.659041e+02	-3.426283e+01
6.697504e+02	-3.431885e+01
6.736188e+02	-3.437104e+01
6.775096e+02	-3.441784e+01
6.814229e+02	-3.446587e+01
6.853587e+02	-3.451523e+01
6.893173e+02	-3.457725e+01
6.932988e+02	-3.462622e+01
6.973033e+02	-3.466785e+01
7.013309e+02	-3.472338e+01
