Frequency(Hz)	Magnitude(dB)
1.000000e+01	-2.037542e+00
1.005776e+01	-2.056432e+00
1.011585e+01	-2.075412e+00
1.017428e+01	-2.094327e+00
1.023305e+01	-2.113713e+00
1.029215e+01	-2.133087e+00
1.035160e+01	-2.152261e+00
1.041139e+01	-2.171941e+00
1.047153e+01	-2.191775e+00
1.053201e+01	-2.211671e+00
1.059284e+01	-2.231763e+00
1.065403e+01	-2.252031e+00
1.071556e+01	-2.272326e+00
1.077746e+01	-2.292625e+00
1.083971e+01	-2.313234e+00
1.090232e+01	-2.334003e+00
1.096529e+01	-2.354654e+00
1.102862e+01	-2.375925e+00
1.109232e+01	-2.396959e+00
1.115639e+01	-2.418199e+00
1.122083e+01	-2.439580e+00
1.128564e+01	-2.461155e+00
1.135083e+01	-2.482953e+00
1.141639e+01	-2.504707e+00
1.148233e+01	-2.526715e+00
1.154865e+01	-2.548844e+00
1.161536e+01	-2.571196e+00
1.168245e+01	-2.593577e+00
1.174992e+01	-2.616310e+00
1.181779e+01	-2.638890e+00
1.188605e+01	-2.661799e+00
1.195470e+01	-2.684819e+00
1.202375e+01	-2.707787e+00
1.209320e+01	-2.731267e+00
1.216305e+01	-2.754670e+00
1.223330e+01	-2.778262e+00
1.230396e+01	-2.802003e+00
1.237503e+01	-2.825889e+00
1.244651e+01	-2.849518e+00
1.251840e+01	-2.873897e+00
1.259070e+01	-2.898076e+00
1.266343e+01	-2.922653e+00
1.273657e+01	-2.947187e+00
1.281014e+01	-2.971965e+00
1.288413e+01	-2.996894e+00
1.295855e+01	-3.021864e+00
1.303339e+01	-3.046927e+00
1.310867e+01	-3.072225e+00
1.318439e+01	-3.097746e+00
1.326054e+01	-3.123112e+00
1.333713e+01	-3.149116e+00
1.341417e+01	-3.174874e+00
1.349165e+01	-3.200915e+00
1.356958e+01	-3.226883e+00
1.364795e+01	-3.253478e+00
1.372678e+01	-3.279920e+00
1.380607e+01	-3.306221e+00
1.388581e+01	-3.333015e+00
1.396602e+01	-3.360104e+00
1.404668e+01	-3.387163e+00
1.412782e+01	-3.414316e+00
1.420942e+01	-3.441379e+00
1.429149e+01	-3.468907e+00
1.437404e+01	-3.496422e+00
1.445706e+01	-3.524177e+00
1.454057e+01	-3.552261e+00
1.462455e+01	-3.580025e+00
1.470902e+01	-3.608276e+00
1.479398e+01	-3.636768e+00
1.487943e+01	-3.665159e+00
1.496537e+01	-3.693510e+00
1.505181e+01	-3.722428e+00
1.513875e+01	-3.751217e+00
1.522619e+01	-3.780425e+00
1.531414e+01	-3.809217e+00
1.540259e+01	-3.838803e+00
1.549156e+01	-3.868051e+00
1.558103e+01	-3.897587e+00
1.567103e+01	-3.927303e+00
1.576155e+01	-3.957328e+00
1.585258e+01	-3.987042e+00
1.594415e+01	-4.017178e+00
1.603624e+01	-4.047597e+00
1.612886e+01	-4.077816e+00
1.622202e+01	-4.108341e+00
1.631572e+01	-4.139236e+00
1.640996e+01	-4.169967e+00
1.650474e+01	-4.200791e+00
1.660008e+01	-4.231964e+00
1.669596e+01	-4.263189e+00
1.679239e+01	-4.294848e+00
1.688938e+01	-4.326131e+00
1.698694e+01	-4.357572e+00
1.708505e+01	-4.389393e+00
1.718373e+01	-4.421305e+00
1.728299e+01	-4.453372e+00
1.738281e+01	-4.485476e+00
1.748322e+01	-4.517465e+00
1.758420e+01	-4.550257e+00
1.768576e+01	-4.582860e+00
1.778792e+01	-4.615295e+00
1.789066e+01	-4.648226e+00
1.799399e+01	-4.681276e+00
1.809793e+01	-4.714338e+00
1.820246e+01	-4.747341e+00
1.830760e+01	-4.780440e+00
1.841334e+01	-4.814441e+00
1.851969e+01	-4.847646e+00
1.862666e+01	-4.881416e+00
1.873425e+01	-4.915129e+00
1.884246e+01	-4.949321e+00
1.895129e+01	-4.983100e+00
1.906075e+01	-5.017257e+00
1.917085e+01	-5.051797e+00
1.928158e+01	-5.086230e+00
1.939295e+01	-5.120664e+00
1.950496e+01	-5.155735e+00
1.961762e+01	-5.190436e+00
1.973093e+01	-5.225386e+00
1.984490e+01	-5.260317e+00
1.995952e+01	-5.295642e+00
2.007480e+01	-5.331032e+00
2.019076e+01	-5.366496e+00
2.030738e+01	-5.401591e+00
2.042467e+01	-5.437437e+00
2.054264e+01	-5.473343e+00
2.066130e+01	-5.508982e+00
2.078064e+01	-5.544958e+00
2.090066e+01	-5.581338e+00
2.102139e+01	-5.617416e+00
2.114280e+01	-5.653820e+00
2.126492e+01	-5.690587e+00
2.138775e+01	-5.726890e+00
2.151128e+01	-5.763475e+00
2.163553e+01	-5.800871e+00
2.176050e+01	-5.837704e+00
2.188619e+01	-5.874294e+00
2.201260e+01	-5.911608e+00
2.213974e+01	-5.949263e+00
2.226762e+01	-5.986402e+00
2.239624e+01	-6.023418e+00
2.252560e+01	-6.061166e+00
2.265571e+01	-6.098584e+00
2.278656e+01	-6.137154e+00
2.291818e+01	-6.174695e+00
2.305055e+01	-6.212427e+00
2.318369e+01	-6.250769e+00
2.331760e+01	-6.288786e+00
2.345228e+01	-6.327429e+00
2.358774e+01	-6.365463e+00
2.372398e+01	-6.404669e+00
2.386101e+01	-6.442787e+00
2.399883e+01	-6.481460e+00
2.413745e+01	-6.520516e+00
2.427686e+01	-6.559392e+00
2.441709e+01	-6.598163e+00
2.455812e+01	-6.637577e+00
2.469997e+01	-6.676592e+00
2.484263e+01	-6.716073e+00
2.498612e+01	-6.755829e+00
2.513044e+01	-6.795264e+00
2.527559e+01	-6.834571e+00
2.542158e+01	-6.874129e+00
2.556842e+01	-6.914627e+00
2.571610e+01	-6.953791e+00
2.586463e+01	-6.993866e+00
2.601403e+01	-7.034275e+00
2.616428e+01	-7.074017e+00
2.631541e+01	-7.114648e+00
2.646740e+01	-7.154809e+00
2.662028e+01	-7.195219e+00
2.677404e+01	-7.235890e+00
2.692868e+01	-7.276610e+00
2.708422e+01	-7.317116e+00
2.724066e+01	-7.357945e+00
2.739800e+01	-7.398897e+00
2.755625e+01	-7.439980e+00
2.771541e+01	-7.480281e+00
2.787550e+01	-7.522263e+00
2.803650e+01	-7.563220e+00
2.819844e+01	-7.604465e+00
2.836131e+01	-7.645830e+00
2.852513e+01	-7.687041e+00
2.868989e+01	-7.728926e+00
2.885560e+01	-7.770718e+00
2.902227e+01	-7.812320e+00
2.918990e+01	-7.854300e+00
2.935850e+01	-7.895837e+00
2.952807e+01	-7.937883e+00
2.969863e+01	-7.979956e+00
2.987016e+01	-8.022285e+00
3.004269e+01	-8.064325e+00
3.021622e+01	-8.106492e+00
3.039075e+01	-8.148995e+00
3.056628e+01	-8.190966e+00
3.074283e+01	-8.233376e+00
3.092040e+01	-8.276387e+00
3.109900e+01	-8.318719e+00
3.127862e+01	-8.361451e+00
3.145929e+01	-8.404199e+00
3.164099e+01	-8.447375e+00
3.182375e+01	-8.489899e+00
3.200756e+01	-8.533133e+00
3.219244e+01	-8.575866e+00
3.237838e+01	-8.619454e+00
3.256540e+01	-8.662178e+00
3.275349e+01	-8.705597e+00
3.294268e+01	-8.748580e+00
3.313295e+01	-8.792311e+00
3.332433e+01	-8.835474e+00
3.351681e+01	-8.879045e+00
3.371040e+01	-8.922902e+00
3.390511e+01	-8.966031e+00
3.410094e+01	-9.010274e+00
3.429791e+01	-9.053931e+00
3.449601e+01	-9.097866e+00
3.469526e+01	-9.141787e+00
3.489566e+01	-9.185628e+00
3.509721e+01	-9.230050e+00
3.529993e+01	-9.273636e+00
3.550382e+01	-9.317692e+00
3.570889e+01	-9.362216e+00
3.591515e+01	-9.406093e+00
3.612259e+01	-9.450438e+00
3.633123e+01	-9.494848e+00
3.654108e+01	-9.539200e+00
3.675214e+01	-9.584653e+00
3.696442e+01	-9.628285e+00
3.717792e+01	-9.673152e+00
3.739266e+01	-9.717691e+00
3.760864e+01	-9.762697e+00
3.782587e+01	-9.807049e+00
3.804435e+01	-9.852127e+00
3.826409e+01	-9.897101e+00
3.848510e+01	-9.941587e+00
3.870739e+01	-9.986963e+00
3.893096e+01	-1.003161e+01
3.915583e+01	-1.007745e+01
3.938199e+01	-1.012234e+01
3.960946e+01	-1.016742e+01
3.983824e+01	-1.021238e+01
4.006834e+01	-1.025794e+01
4.029978e+01	-1.030372e+01
4.053255e+01	-1.034865e+01
4.076666e+01	-1.039360e+01
4.100213e+01	-1.043928e+01
4.123896e+01	-1.048521e+01
4.147715e+01	-1.053043e+01
4.171672e+01	-1.057586e+01
4.195767e+01	-1.062200e+01
4.220002e+01	-1.066748e+01
4.244377e+01	-1.071312e+01
4.268892e+01	-1.075921e+01
4.293549e+01	-1.080495e+01
4.318348e+01	-1.085139e+01
4.343291e+01	-1.089724e+01
4.368377e+01	-1.094283e+01
4.393609e+01	-1.098846e+01
4.418986e+01	-1.103532e+01
4.444510e+01	-1.108080e+01
4.470182e+01	-1.112736e+01
4.496001e+01	-1.117323e+01
4.521970e+01	-1.121958e+01
4.548089e+01	-1.126577e+01
4.574358e+01	-1.131225e+01
4.600779e+01	-1.135836e+01
4.627353e+01	-1.140483e+01
4.654081e+01	-1.145144e+01
4.680963e+01	-1.149751e+01
4.708000e+01	-1.154392e+01
4.735193e+01	-1.159047e+01
4.762543e+01	-1.163769e+01
4.790051e+01	-1.168437e+01
4.817719e+01	-1.173095e+01
4.845545e+01	-1.177708e+01
4.873533e+01	-1.182352e+01
4.901682e+01	-1.187062e+01
4.929994e+01	-1.191737e+01
4.958470e+01	-1.196455e+01
4.987110e+01	-1.201124e+01
5.015915e+01	-1.205769e+01
5.044887e+01	-1.210531e+01
5.074026e+01	-1.215208e+01
5.103333e+01	-1.219815e+01
5.132810e+01	-1.224644e+01
5.162457e+01	-1.229277e+01
5.192275e+01	-1.234035e+01
5.222265e+01	-1.238707e+01
5.252429e+01	-1.243464e+01
5.282767e+01	-1.248115e+01
5.313280e+01	-1.252902e+01
5.343969e+01	-1.257632e+01
5.374836e+01	-1.262330e+01
5.405880e+01	-1.267054e+01
5.437105e+01	-1.271832e+01
5.468509e+01	-1.276516e+01
5.500095e+01	-1.281288e+01
5.531863e+01	-1.285995e+01
5.563815e+01	-1.290792e+01
5.595951e+01	-1.295585e+01
5.628273e+01	-1.300233e+01
5.660782e+01	-1.304943e+01
5.693479e+01	-1.309812e+01
5.726364e+01	-1.314461e+01
5.759439e+01	-1.319283e+01
5.792705e+01	-1.324041e+01
5.826164e+01	-1.328824e+01
5.859815e+01	-1.333553e+01
5.893662e+01	-1.338379e+01
5.927703e+01	-1.343143e+01
5.961941e+01	-1.347935e+01
5.996377e+01	-1.352661e+01
6.031012e+01	-1.357540e+01
6.065847e+01	-1.362265e+01
6.100883e+01	-1.367109e+01
6.136121e+01	-1.371896e+01
6.171563e+01	-1.376657e+01
6.207210e+01	-1.381476e+01
6.243063e+01	-1.386191e+01
6.279122e+01	-1.390962e+01
6.315390e+01	-1.395861e+01
6.351868e+01	-1.400659e+01
6.388556e+01	-1.405383e+01
6.425456e+01	-1.410249e+01
6.462569e+01	-1.415047e+01
6.499897e+01	-1.419851e+01
6.537440e+01	-1.424689e+01
6.575200e+01	-1.429486e+01
6.613178e+01	-1.434326e+01
6.651375e+01	-1.439148e+01
6.689793e+01	-1.443986e+01
6.728433e+01	-1.448772e+01
6.767297e+01	-1.453602e+01
6.806384e+01	-1.458427e+01
6.845698e+01	-1.463232e+01
6.885238e+01	-1.468141e+01
6.925007e+01	-1.472833e+01
6.965005e+01	-1.477734e+01
7.005235e+01	-1.482621e+01
7.045697e+01	-1.487444e+01
7.086393e+01	-1.492353e+01
7.127323e+01	-1.497071e+01
7.168490e+01	-1.502016e+01
7.209895e+01	-1.506784e+01
7.251539e+01	-1.511703e+01
7.293424e+01	-1.516497e+01
7.335551e+01	-1.521314e+01
7.377920e+01	-1.526182e+01
7.420535e+01	-1.531202e+01
7.463396e+01	-1.536004e+01
7.506504e+01	-1.540801e+01
7.549861e+01	-1.545731e+01
7.593469e+01	-1.550417e+01
7.637328e+01	-1.555464e+01
7.681441e+01	-1.560280e+01
7.725809e+01	-1.565102e+01
7.770433e+01	-1.570035e+01
7.815315e+01	-1.574909e+01
7.860456e+01	-1.579718e+01
7.905857e+01	-1.584578e+01
7.951521e+01	-1.589483e+01
7.997449e+01	-1.594434e+01
8.043642e+01	-1.599230e+01
8.090102e+01	-1.604048e+01
8.136830e+01	-1.609025e+01
8.183828e+01	-1.613844e+01
8.231097e+01	-1.618818e+01
8.278640e+01	-1.623636e+01
8.326457e+01	-1.628544e+01
8.374550e+01	-1.633390e+01
8.422921e+01	-1.638245e+01
8.471572e+01	-1.643080e+01
8.520503e+01	-1.648004e+01
8.569717e+01	-1.653055e+01
8.619215e+01	-1.657897e+01
8.669000e+01	-1.662792e+01
8.719071e+01	-1.667630e+01
8.769432e+01	-1.672513e+01
8.820084e+01	-1.677421e+01
8.871029e+01	-1.682318e+01
8.922267e+01	-1.687254e+01
8.973802e+01	-1.692202e+01
9.025634e+01	-1.697089e+01
9.077766e+01	-1.701991e+01
9.130199e+01	-1.706803e+01
9.182935e+01	-1.711741e+01
9.235975e+01	-1.716636e+01
9.289321e+01	-1.721667e+01
9.342976e+01	-1.726482e+01
9.396941e+01	-1.731293e+01
9.451217e+01	-1.736198e+01
9.505807e+01	-1.741177e+01
9.560712e+01	-1.746190e+01
9.615934e+01	-1.750936e+01
9.671476e+01	-1.755810e+01
9.727338e+01	-1.760729e+01
9.783522e+01	-1.765758e+01
9.840032e+01	-1.770664e+01
9.896867e+01	-1.775579e+01
9.954031e+01	-1.780532e+01
1.001153e+02	-1.785412e+01
1.006935e+02	-1.790358e+01
1.012751e+02	-1.795077e+01
1.018601e+02	-1.800189e+01
1.024484e+02	-1.805115e+01
1.030402e+02	-1.810014e+01
1.036353e+02	-1.814883e+01
1.042339e+02	-1.819897e+01
1.048360e+02	-1.824903e+01
1.054415e+02	-1.829843e+01
1.060505e+02	-1.834838e+01
1.066631e+02	-1.839584e+01
1.072791e+02	-1.844499e+01
1.078988e+02	-1.849398e+01
1.085220e+02	-1.854494e+01
1.091488e+02	-1.859372e+01
1.097793e+02	-1.864346e+01
1.104133e+02	-1.868975e+01
1.110511e+02	-1.874127e+01
1.116925e+02	-1.879078e+01
1.123376e+02	-1.883989e+01
1.129865e+02	-1.888938e+01
1.136391e+02	-1.893904e+01
1.142955e+02	-1.898768e+01
1.149556e+02	-1.903839e+01
1.156196e+02	-1.908756e+01
1.162874e+02	-1.913592e+01
1.169591e+02	-1.918680e+01
1.176347e+02	-1.923553e+01
1.183141e+02	-1.928469e+01
1.189975e+02	-1.933538e+01
1.196848e+02	-1.938446e+01
1.203761e+02	-1.943450e+01
1.210714e+02	-1.948308e+01
1.217707e+02	-1.953305e+01
1.224740e+02	-1.958074e+01
1.231814e+02	-1.963112e+01
1.238929e+02	-1.968108e+01
1.246085e+02	-1.972890e+01
1.253283e+02	-1.978072e+01
1.260522e+02	-1.983046e+01
1.267802e+02	-1.987777e+01
1.275125e+02	-1.992841e+01
1.282490e+02	-1.997903e+01
1.289898e+02	-2.002750e+01
1.297348e+02	-2.007768e+01
1.304842e+02	-2.012588e+01
1.312378e+02	-2.017745e+01
1.319959e+02	-2.022568e+01
1.327583e+02	-2.027470e+01
1.335251e+02	-2.032475e+01
1.342963e+02	-2.037407e+01
1.350720e+02	-2.042407e+01
1.358522e+02	-2.047251e+01
1.366368e+02	-2.052275e+01
1.374260e+02	-2.057155e+01
1.382198e+02	-2.062256e+01
1.390182e+02	-2.067232e+01
1.398211e+02	-2.072102e+01
1.406287e+02	-2.077179e+01
1.414410e+02	-2.082066e+01
1.422579e+02	-2.087063e+01
1.430796e+02	-2.091972e+01
1.439060e+02	-2.096896e+01
1.447372e+02	-2.102079e+01
1.455732e+02	-2.106717e+01
1.464141e+02	-2.112044e+01
1.472597e+02	-2.117095e+01
1.481103e+02	-2.121682e+01
1.489658e+02	-2.126604e+01
1.498262e+02	-2.131651e+01
1.506916e+02	-2.136764e+01
1.515620e+02	-2.141575e+01
1.524374e+02	-2.146653e+01
1.533179e+02	-2.151663e+01
1.542034e+02	-2.156501e+01
1.550941e+02	-2.161545e+01
1.559899e+02	-2.166544e+01
1.568909e+02	-2.171464e+01
1.577971e+02	-2.176469e+01
1.587085e+02	-2.181515e+01
1.596252e+02	-2.186587e+01
1.605472e+02	-2.191382e+01
1.614745e+02	-2.196278e+01
1.624072e+02	-2.201219e+01
1.633453e+02	-2.206377e+01
1.642887e+02	-2.211413e+01
1.652377e+02	-2.216284e+01
1.661921e+02	-2.221169e+01
1.671520e+02	-2.226202e+01
1.681175e+02	-2.231296e+01
1.690885e+02	-2.236209e+01
1.700651e+02	-2.241217e+01
1.710474e+02	-2.246183e+01
1.720354e+02	-2.251014e+01
1.730291e+02	-2.255961e+01
1.740285e+02	-2.261307e+01
1.750337e+02	-2.265909e+01
1.760446e+02	-2.271116e+01
1.770615e+02	-2.275663e+01
1.780842e+02	-2.281003e+01
1.791128e+02	-2.285701e+01
1.801473e+02	-2.291125e+01
1.811878e+02	-2.295916e+01
1.822344e+02	-2.300733e+01
1.832870e+02	-2.305810e+01
1.843456e+02	-2.310805e+01
1.854104e+02	-2.315978e+01
1.864813e+02	-2.320879e+01
1.875584e+02	-2.325758e+01
1.886418e+02	-2.330820e+01
1.897313e+02	-2.335614e+01
1.908272e+02	-2.340777e+01
1.919294e+02	-2.345605e+01
1.930380e+02	-2.350684e+01
1.941530e+02	-2.355566e+01
1.952744e+02	-2.360743e+01
1.964023e+02	-2.365674e+01
1.975367e+02	-2.370762e+01
1.986777e+02	-2.375549e+01
1.998252e+02	-2.380286e+01
2.009794e+02	-2.385775e+01
2.021403e+02	-2.390499e+01
2.033078e+02	-2.395448e+01
2.044821e+02	-2.400408e+01
2.056632e+02	-2.405521e+01
2.068511e+02	-2.410510e+01
2.080459e+02	-2.415361e+01
2.092475e+02	-2.420324e+01
2.104561e+02	-2.425555e+01
2.116717e+02	-2.430318e+01
2.128943e+02	-2.435523e+01
2.141240e+02	-2.440335e+01
2.153608e+02	-2.445323e+01
2.166047e+02	-2.450208e+01
2.178558e+02	-2.455464e+01
2.191141e+02	-2.460619e+01
2.203797e+02	-2.465573e+01
2.216526e+02	-2.470369e+01
2.229329e+02	-2.475393e+01
2.242205e+02	-2.480382e+01
2.255156e+02	-2.485234e+01
2.268182e+02	-2.490652e+01
2.281283e+02	-2.495249e+01
2.294459e+02	-2.500250e+01
2.307712e+02	-2.505380e+01
2.321041e+02	-2.510381e+01
2.334447e+02	-2.515223e+01
2.347931e+02	-2.520250e+01
2.361493e+02	-2.525193e+01
2.375133e+02	-2.530592e+01
2.388851e+02	-2.535224e+01
2.402649e+02	-2.540262e+01
2.416527e+02	-2.544961e+01
2.430484e+02	-2.550059e+01
2.444523e+02	-2.555427e+01
2.458642e+02	-2.560298e+01
2.472843e+02	-2.565633e+01
2.487126e+02	-2.570076e+01
2.501492e+02	-2.575003e+01
2.515940e+02	-2.580808e+01
2.530472e+02	-2.585213e+01
2.545088e+02	-2.590165e+01
2.559789e+02	-2.594975e+01
2.574574e+02	-2.600176e+01
2.589444e+02	-2.605230e+01
2.604401e+02	-2.610327e+01
2.619444e+02	-2.615080e+01
2.634574e+02	-2.620024e+01
2.649791e+02	-2.625207e+01
2.665096e+02	-2.630486e+01
2.680489e+02	-2.635078e+01
2.695972e+02	-2.640466e+01
2.711544e+02	-2.645200e+01
2.727205e+02	-2.649921e+01
2.742958e+02	-2.655204e+01
2.758801e+02	-2.660262e+01
2.774736e+02	-2.665071e+01
2.790762e+02	-2.670159e+01
2.806882e+02	-2.675220e+01
2.823094e+02	-2.680105e+01
2.839400e+02	-2.685030e+01
2.855800e+02	-2.690203e+01
2.872295e+02	-2.695430e+01
2.888886e+02	-2.700247e+01
2.905572e+02	-2.705116e+01
2.922354e+02	-2.710246e+01
2.939234e+02	-2.715203e+01
2.956211e+02	-2.720201e+01
2.973286e+02	-2.724948e+01
2.990459e+02	-2.729829e+01
3.007732e+02	-2.735411e+01
3.025104e+02	-2.740123e+01
3.042577e+02	-2.745202e+01
3.060151e+02	-2.749735e+01
3.077826e+02	-2.755377e+01
3.095604e+02	-2.760236e+01
3.113484e+02	-2.765321e+01
3.131467e+02	-2.770307e+01
3.149554e+02	-2.775178e+01
3.167746e+02	-2.779862e+01
3.186043e+02	-2.784939e+01
3.204445e+02	-2.790349e+01
3.222954e+02	-2.795275e+01
3.241570e+02	-2.800348e+01
3.260293e+02	-2.804917e+01
3.279124e+02	-2.810010e+01
3.298064e+02	-2.814698e+01
3.317114e+02	-2.820453e+01
3.336273e+02	-2.824881e+01
3.355544e+02	-2.830406e+01
3.374925e+02	-2.834858e+01
3.394418e+02	-2.840243e+01
3.414024e+02	-2.845284e+01
3.433744e+02	-2.849756e+01
3.453577e+02	-2.854956e+01
3.473525e+02	-2.860163e+01
3.493588e+02	-2.865395e+01
3.513766e+02	-2.870341e+01
3.534062e+02	-2.875376e+01
3.554474e+02	-2.880319e+01
3.575005e+02	-2.884863e+01
3.595654e+02	-2.890229e+01
3.616422e+02	-2.895404e+01
3.637311e+02	-2.899721e+01
3.658320e+02	-2.905076e+01
3.679450e+02	-2.910002e+01
3.700702e+02	-2.915858e+01
3.722077e+02	-2.920072e+01
3.743576e+02	-2.925286e+01
3.765199e+02	-2.930443e+01
3.786946e+02	-2.935302e+01
3.808820e+02	-2.940493e+01
3.830819e+02	-2.945329e+01
3.852946e+02	-2.950403e+01
3.875200e+02	-2.954959e+01
3.897583e+02	-2.960514e+01
3.920096e+02	-2.965351e+01
3.942738e+02	-2.970825e+01
3.965511e+02	-2.975632e+01
3.988416e+02	-2.980412e+01
4.011452e+02	-2.985000e+01
4.034622e+02	-2.990246e+01
4.057926e+02	-2.995012e+01
4.081365e+02	-3.000254e+01
4.104938e+02	-3.005248e+01
4.128648e+02	-3.010154e+01
4.152495e+02	-3.015115e+01
4.176480e+02	-3.020523e+01
4.200603e+02	-3.025274e+01
4.224866e+02	-3.030842e+01
4.249268e+02	-3.035639e+01
4.273812e+02	-3.040500e+01
4.298497e+02	-3.045494e+01
4.323325e+02	-3.050631e+01
4.348297e+02	-3.055275e+01
4.373412e+02	-3.060468e+01
4.398673e+02	-3.065695e+01
4.424079e+02	-3.070124e+01
4.449633e+02	-3.075351e+01
4.475334e+02	-3.080652e+01
4.501183e+02	-3.085625e+01
4.527182e+02	-3.090653e+01
4.553330e+02	-3.095082e+01
4.579630e+02	-3.101214e+01
4.606082e+02	-3.105923e+01
4.632687e+02	-3.111106e+01
4.659445e+02	-3.115845e+01
4.686358e+02	-3.120635e+01
4.713426e+02	-3.125870e+01
4.740650e+02	-3.131614e+01
4.768032e+02	-3.135549e+01
4.795572e+02	-3.140681e+01
4.823271e+02	-3.145691e+01
4.851130e+02	-3.151130e+01
4.879150e+02	-3.155726e+01
4.907332e+02	-3.160727e+01
4.935676e+02	-3.166487e+01
4.964185e+02	-3.170768e+01
4.992858e+02	-3.175533e+01
5.021696e+02	-3.180642e+01
5.050701e+02	-3.185337e+01
5.079874e+02	-3.190733e+01
5.109215e+02	-3.195773e+01
5.138726e+02	-3.201436e+01
5.168407e+02	-3.206144e+01
5.198259e+02	-3.210759e+01
5.228284e+02	-3.216145e+01
5.258482e+02	-3.220883e+01
5.288855e+02	-3.226081e+01
5.319403e+02	-3.231734e+01
5.350128e+02	-3.236228e+01
5.381030e+02	-3.241276e+01
5.412111e+02	-3.246462e+01
5.443371e+02	-3.251605e+01
5.474812e+02	-3.256146e+01
5.506434e+02	-3.261623e+01
5.538239e+02	-3.266434e+01
5.570228e+02	-3.271702e+01
5.602401e+02	-3.276431e+01
5.634760e+02	-3.281245e+01
5.667306e+02	-3.286820e+01
5.700040e+02	-3.291875e+01
5.732964e+02	-3.296436e+01
5.766077e+02	-3.301892e+01
5.799382e+02	-3.306713e+01
5.832879e+02	-3.311186e+01
5.866569e+02	-3.317060e+01
5.900454e+02	-3.321680e+01
5.934535e+02	-3.326306e+01
5.968813e+02	-3.330965e+01
6.003288e+02	-3.336062e+01
6.037963e+02	-3.341873e+01
6.072838e+02	-3.346889e+01
6.107914e+02	-3.352038e+01
6.143194e+02	-3.356612e+01
6.178676e+02	-3.361968e+01
6.214364e+02	-3.367476e+01
6.250258e+02	-3.372347e+01
6.286359e+02	-3.376734e+01
6.322669e+02	-3.382331e+01
6.359189e+02	-3.386479e+01
6.395919e+02	-3.392249e+01
6.432862e+02	-3.398131e+01
6.470017e+02	-3.402216e+01
6.507388e+02	-3.407912e+01
6.544974e+02	-3.412121e+01
6.582778e+02	-3.418442e+01
6.620800e+02	-3.422066e+01
6.659041e+02	-3.427635e+01
6.697504e+02	-3.431774e+01
6.736188e+02	-3.437421e+01
6.775096e+02	-3.441991e+01
6.814229e+02	-3.448140e+01
6.853587e+02	-3.451782e+01
6.893173e+02	-3.456923e+01
6.932988e+02	-3.462703e+01
6.973033e+02	-3.468900e+01
7.013309e+02	-3.472145e+01
