Frequency(Hz)	Magnitude(dB)
1.000000e+01	-2.154728e+00
1.005776e+01	-2.174417e+00
1.011585e+01	-2.194121e+00
1.017428e+01	-2.214212e+00
1.023305e+01	-2.234283e+00
1.029215e+01	-2.254300e+00
1.035160e+01	-2.274856e+00
1.041139e+01	-2.295316e+00
1.047153e+01	-2.315813e+00
1.053201e+01	-2.336533e+00
1.059284e+01	-2.357552e+00
1.065403e+01	-2.378256e+00
1.071556e+01	-2.399714e+00
1.077746e+01	-2.420866e+00
1.083971e+01	-2.442064e+00
1.090232e+01	-2.463949e+00
1.096529e+01	-2.485730e+00
1.102862e+01	-2.507515e+00
1.109232e+01	-2.529635e+00
1.115639e+01	-2.551869e+00
1.122083e+01	-2.573961e+00
1.128564e+01	-2.596627e+00
1.135083e+01	-2.619018e+00
1.141639e+01	-2.641562e+00
1.148233e+01	-2.664660e+00
1.154865e+01	-2.687722e+00
1.161536e+01	-2.710766e+00
1.168245e+01	-2.734232e+00
1.174992e+01	-2.757751e+00
1.181779e+01	-2.781166e+00
1.188605e+01	-2.805028e+00
1.195470e+01	-2.828578e+00
1.202375e+01	-2.852715e+00
1.209320e+01	-2.876813e+00
1.216305e+01	-2.901342e+00
1.223330e+01	-2.925694e+00
1.230396e+01	-2.950281e+00
1.237503e+01	-2.974948e+00
1.244651e+01	-2.999824e+00
1.251840e+01	-3.024966e+00
1.259070e+01	-3.050093e+00
1.266343e+01	-3.075540e+00
1.273657e+01	-3.100728e+00
1.281014e+01	-3.126571e+00
1.288413e+01	-3.152237e+00
1.295855e+01	-3.177946e+00
1.303339e+01	-3.203937e+00
1.310867e+01	-3.230485e+00
1.318439e+01	-3.256465e+00
1.326054e+01	-3.283128e+00
1.333713e+01	-3.309840e+00
1.341417e+01	-3.336354e+00
1.349165e+01	-3.363412e+00
1.356958e+01	-3.390222e+00
1.364795e+01	-3.417832e+00
1.372678e+01	-3.444726e+00
1.380607e+01	-3.472241e+00
1.388581e+01	-3.500015e+00
1.396602e+01	-3.527716e+00
1.404668e+01	-3.555251e+00
1.412782e+01	-3.583795e+00
1.420942e+01	-3.611874e+00
1.429149e+01	-3.640121e+00
1.437404e+01	-3.668594e+00
1.445706e+01	-3.697027e+00
1.454057e+01	-3.726001e+00
1.462455e+01	-3.755135e+00
1.470902e+01	-3.783595e+00
1.479398e+01	-3.812931e+00
1.487943e+01	-3.842527e+00
1.496537e+01	-3.871700e+00
1.505181e+01	-3.901572e+00
1.513875e+01	-3.931192e+00
1.522619e+01	-3.961065e+00
1.531414e+01	-3.990863e+00
1.540259e+01	-4.021233e+00
1.549156e+01	-4.051216e+00
1.558103e+01	-4.081849e+00
1.567103e+01	-4.112492e+00
1.576155e+01	-4.142872e+00
1.585258e+01	-4.173714e+00
1.594415e+01	-4.204929e+00
1.603624e+01	-4.235924e+00
1.612886e+01	-4.266864e+00
1.622202e+01	-4.298452e+00
1.631572e+01	-4.329801e+00
1.640996e+01	-4.361594e+00
1.650474e+01	-4.393100e+00
1.660008e+01	-4.424867e+00
1.669596e+01	-4.457175e+00
1.679239e+01	-4.489531e+00
1.688938e+01	-4.521708e+00
1.698694e+01	-4.554175e+00
1.708505e+01	-4.586698e+00
1.718373e+01	-4.619381e+00
1.728299e+01	-4.652151e+00
1.738281e+01	-4.685318e+00
1.748322e+01	-4.718102e+00
1.758420e+01	-4.751592e+00
1.768576e+01	-4.784915e+00
1.778792e+01	-4.818153e+00
1.789066e+01	-4.851802e+00
1.799399e+01	-4.885553e+00
1.809793e+01	-4.919542e+00
1.820246e+01	-4.953641e+00
1.830760e+01	-4.987416e+00
1.841334e+01	-5.021853e+00
1.851969e+01	-5.056206e+00
1.862666e+01	-5.090608e+00
1.873425e+01	-5.125205e+00
1.884246e+01	-5.159824e+00
1.895129e+01	-5.194560e+00
1.906075e+01	-5.229726e+00
1.917085e+01	-5.264716e+00
1.928158e+01	-5.299893e+00
1.939295e+01	-5.335345e+00
1.950496e+01	-5.370764e+00
1.961762e+01	-5.406159e+00
1.973093e+01	-5.441968e+00
1.984490e+01	-5.477752e+00
1.995952e+01	-5.513842e+00
2.007480e+01	-5.549895e+00
2.019076e+01	-5.585732e+00
2.030738e+01	-5.622017e+00
2.042467e+01	-5.658388e+00
2.054264e+01	-5.695101e+00
2.066130e+01	-5.731508e+00
2.078064e+01	-5.768307e+00
2.090066e+01	-5.804922e+00
2.102139e+01	-5.841892e+00
2.114280e+01	-5.879120e+00
2.126492e+01	-5.916205e+00
2.138775e+01	-5.953390e+00
2.151128e+01	-5.990890e+00
2.163553e+01	-6.028383e+00
2.176050e+01	-6.065869e+00
2.188619e+01	-6.103517e+00
2.201260e+01	-6.141448e+00
2.213974e+01	-6.179819e+00
2.226762e+01	-6.217170e+00
2.239624e+01	-6.255430e+00
2.252560e+01	-6.293930e+00
2.265571e+01	-6.332164e+00
2.278656e+01	-6.370528e+00
2.291818e+01	-6.408812e+00
2.305055e+01	-6.447572e+00
2.318369e+01	-6.486185e+00
2.331760e+01	-6.525231e+00
2.345228e+01	-6.564257e+00
2.358774e+01	-6.603222e+00
2.372398e+01	-6.642422e+00
2.386101e+01	-6.681496e+00
2.399883e+01	-6.721265e+00
2.413745e+01	-6.760347e+00
2.427686e+01	-6.799703e+00
2.441709e+01	-6.839814e+00
2.455812e+01	-6.879255e+00
2.469997e+01	-6.919135e+00
2.484263e+01	-6.959030e+00
2.498612e+01	-6.999058e+00
2.513044e+01	-7.039455e+00
2.527559e+01	-7.079557e+00
2.542158e+01	-7.119295e+00
2.556842e+01	-7.159970e+00
2.571610e+01	-7.200245e+00
2.586463e+01	-7.241222e+00
2.601403e+01	-7.281767e+00
2.616428e+01	-7.322023e+00
2.631541e+01	-7.363272e+00
2.646740e+01	-7.403919e+00
2.662028e+01	-7.445144e+00
2.677404e+01	-7.485990e+00
2.692868e+01	-7.526854e+00
2.708422e+01	-7.568628e+00
2.724066e+01	-7.609506e+00
2.739800e+01	-7.651013e+00
2.755625e+01	-7.692397e+00
2.771541e+01	-7.733860e+00
2.787550e+01	-7.775979e+00
2.803650e+01	-7.817787e+00
2.819844e+01	-7.859410e+00
2.836131e+01	-7.901156e+00
2.852513e+01	-7.943117e+00
2.868989e+01	-7.984965e+00
2.885560e+01	-8.027403e+00
2.902227e+01	-8.069421e+00
2.918990e+01	-8.111237e+00
2.935850e+01	-8.153585e+00
2.952807e+01	-8.196464e+00
2.969863e+01	-8.238927e+00
2.987016e+01	-8.281221e+00
3.004269e+01	-8.324101e+00
3.021622e+01	-8.366801e+00
3.039075e+01	-8.409649e+00
3.056628e+01	-8.452336e+00
3.074283e+01	-8.494941e+00
3.092040e+01	-8.538276e+00
3.109900e+01	-8.580848e+00
3.127862e+01	-8.624357e+00
3.145929e+01	-8.668049e+00
3.164099e+01	-8.711055e+00
3.182375e+01	-8.754321e+00
3.200756e+01	-8.797892e+00
3.219244e+01	-8.841116e+00
3.237838e+01	-8.884638e+00
3.256540e+01	-8.928021e+00
3.275349e+01	-8.971670e+00
3.294268e+01	-9.015289e+00
3.313295e+01	-9.059456e+00
3.332433e+01	-9.103264e+00
3.351681e+01	-9.147335e+00
3.371040e+01	-9.190905e+00
3.390511e+01	-9.235126e+00
3.410094e+01	-9.279453e+00
3.429791e+01	-9.323520e+00
3.449601e+01	-9.367245e+00
3.469526e+01	-9.411831e+00
3.489566e+01	-9.456003e+00
3.509721e+01	-9.500732e+00
3.529993e+01	-9.544463e+00
3.550382e+01	-9.589548e+00
3.570889e+01	-9.633995e+00
3.591515e+01	-9.678586e+00
3.612259e+01	-9.723016e+00
3.633123e+01	-9.768636e+00
3.654108e+01	-9.812275e+00
3.675214e+01	-9.857628e+00
3.696442e+01	-9.902024e+00
3.717792e+01	-9.947262e+00
3.739266e+01	-9.992721e+00
3.760864e+01	-1.003711e+01
3.782587e+01	-1.008299e+01
3.804435e+01	-1.012770e+01
3.826409e+01	-1.017330e+01
3.848510e+01	-1.021822e+01
3.870739e+01	-1.026345e+01
3.893096e+01	-1.030878e+01
3.915583e+01	-1.035423e+01
3.938199e+01	-1.039982e+01
3.960946e+01	-1.044528e+01
3.983824e+01	-1.049058e+01
4.006834e+01	-1.053621e+01
4.029978e+01	-1.058168e+01
4.053255e+01	-1.062802e+01
4.076666e+01	-1.067255e+01
4.100213e+01	-1.071856e+01
4.123896e+01	-1.076524e+01
4.147715e+01	-1.081104e+01
4.171672e+01	-1.085665e+01
4.195767e+01	-1.090246e+01
4.220002e+01	-1.094870e+01
4.244377e+01	-1.099427e+01
4.268892e+01	-1.104074e+01
4.293549e+01	-1.108676e+01
4.318348e+01	-1.113256e+01
4.343291e+01	-1.117959e+01
4.368377e+01	-1.122522e+01
4.393609e+01	-1.127190e+01
4.418986e+01	-1.131767e+01
4.444510e+01	-1.136366e+01
4.470182e+01	-1.141120e+01
4.496001e+01	-1.145675e+01
4.521970e+01	-1.150384e+01
4.548089e+01	-1.155005e+01
4.574358e+01	-1.159690e+01
4.600779e+01	-1.164342e+01
4.627353e+01	-1.168980e+01
4.654081e+01	-1.173655e+01
4.680963e+01	-1.178321e+01
4.708000e+01	-1.183006e+01
4.735193e+01	-1.187625e+01
4.762543e+01	-1.192336e+01
4.790051e+01	-1.197008e+01
4.817719e+01	-1.201714e+01
4.845545e+01	-1.206423e+01
4.873533e+01	-1.211181e+01
4.901682e+01	-1.215827e+01
4.929994e+01	-1.220452e+01
4.958470e+01	-1.225182e+01
4.987110e+01	-1.229899e+01
5.015915e+01	-1.234586e+01
5.044887e+01	-1.239298e+01
5.074026e+01	-1.243956e+01
5.103333e+01	-1.248723e+01
5.132810e+01	-1.253487e+01
5.162457e+01	-1.258216e+01
5.192275e+01	-1.262836e+01
5.222265e+01	-1.267631e+01
5.252429e+01	-1.272382e+01
5.282767e+01	-1.277179e+01
5.313280e+01	-1.281832e+01
5.343969e+01	-1.286642e+01
5.374836e+01	-1.291412e+01
5.405880e+01	-1.296120e+01
5.437105e+01	-1.300875e+01
5.468509e+01	-1.305516e+01
5.500095e+01	-1.310409e+01
5.531863e+01	-1.315162e+01
5.563815e+01	-1.319921e+01
5.595951e+01	-1.324619e+01
5.628273e+01	-1.329463e+01
5.660782e+01	-1.334134e+01
5.693479e+01	-1.338969e+01
5.726364e+01	-1.343767e+01
5.759439e+01	-1.348558e+01
5.792705e+01	-1.353370e+01
5.826164e+01	-1.358073e+01
5.859815e+01	-1.362868e+01
5.893662e+01	-1.367632e+01
5.927703e+01	-1.372424e+01
5.961941e+01	-1.377230e+01
5.996377e+01	-1.382047e+01
6.031012e+01	-1.386888e+01
6.065847e+01	-1.391623e+01
6.100883e+01	-1.396417e+01
6.136121e+01	-1.401118e+01
6.171563e+01	-1.406019e+01
6.207210e+01	-1.410822e+01
6.243063e+01	-1.415690e+01
6.279122e+01	-1.420466e+01
6.315390e+01	-1.425294e+01
6.351868e+01	-1.430093e+01
6.388556e+01	-1.434925e+01
6.425456e+01	-1.439731e+01
6.462569e+01	-1.444572e+01
6.499897e+01	-1.449392e+01
6.537440e+01	-1.454280e+01
6.575200e+01	-1.458988e+01
6.613178e+01	-1.463802e+01
6.651375e+01	-1.468602e+01
6.689793e+01	-1.473542e+01
6.728433e+01	-1.478392e+01
6.767297e+01	-1.483094e+01
6.806384e+01	-1.488058e+01
6.845698e+01	-1.492797e+01
6.885238e+01	-1.497672e+01
6.925007e+01	-1.502564e+01
6.965005e+01	-1.507449e+01
7.005235e+01	-1.512290e+01
7.045697e+01	-1.517116e+01
7.086393e+01	-1.521955e+01
7.127323e+01	-1.526850e+01
7.168490e+01	-1.531642e+01
7.209895e+01	-1.536471e+01
7.251539e+01	-1.541411e+01
7.293424e+01	-1.546153e+01
7.335551e+01	-1.551146e+01
7.377920e+01	-1.555968e+01
7.420535e+01	-1.560886e+01
7.463396e+01	-1.565635e+01
7.506504e+01	-1.570570e+01
7.549861e+01	-1.575395e+01
7.593469e+01	-1.580316e+01
7.637328e+01	-1.585129e+01
7.681441e+01	-1.590084e+01
7.725809e+01	-1.594923e+01
7.770433e+01	-1.599857e+01
7.815315e+01	-1.604539e+01
7.860456e+01	-1.609417e+01
7.905857e+01	-1.614448e+01
7.951521e+01	-1.619307e+01
7.997449e+01	-1.624224e+01
8.043642e+01	-1.629262e+01
8.090102e+01	-1.633953e+01
8.136830e+01	-1.638941e+01
8.183828e+01	-1.643707e+01
8.231097e+01	-1.648650e+01
8.278640e+01	-1.653454e+01
8.326457e+01	-1.658461e+01
8.374550e+01	-1.663397e+01
8.422921e+01	-1.668202e+01
8.471572e+01	-1.673163e+01
8.520503e+01	-1.678099e+01
8.569717e+01	-1.682851e+01
8.619215e+01	-1.687780e+01
8.669000e+01	-1.692721e+01
8.719071e+01	-1.697610e+01
8.769432e+01	-1.702565e+01
8.820084e+01	-1.707516e+01
8.871029e+01	-1.712406e+01
8.922267e+01	-1.717285e+01
8.973802e+01	-1.722169e+01
9.025634e+01	-1.727026e+01
9.077766e+01	-1.732020e+01
9.130199e+01	-1.736874e+01
9.182935e+01	-1.741772e+01
9.235975e+01	-1.746632e+01
9.289321e+01	-1.751689e+01
9.342976e+01	-1.756562e+01
9.396941e+01	-1.761510e+01
9.451217e+01	-1.766314e+01
9.505807e+01	-1.771217e+01
9.560712e+01	-1.776183e+01
9.615934e+01	-1.781122e+01
9.671476e+01	-1.786021e+01
9.727338e+01	-1.791048e+01
9.783522e+01	-1.795958e+01
9.840032e+01	-1.800728e+01
9.896867e+01	-1.805697e+01
9.954031e+01	-1.810820e+01
1.001153e+02	-1.815551e+01
1.006935e+02	-1.820371e+01
1.012751e+02	-1.825519e+01
1.018601e+02	-1.830334e+01
1.024484e+02	-1.835384e+01
1.030402e+02	-1.840364e+01
1.036353e+02	-1.845121e+01
1.042339e+02	-1.850199e+01
1.048360e+02	-1.855029e+01
1.054415e+02	-1.859924e+01
1.060505e+02	-1.864782e+01
1.066631e+02	-1.869736e+01
1.072791e+02	-1.874821e+01
1.078988e+02	-1.879668e+01
1.085220e+02	-1.884595e+01
1.091488e+02	-1.889601e+01
1.097793e+02	-1.894622e+01
1.104133e+02	-1.899441e+01
1.110511e+02	-1.904336e+01
1.116925e+02	-1.909521e+01
1.123376e+02	-1.914253e+01
1.129865e+02	-1.919161e+01
1.136391e+02	-1.924191e+01
1.142955e+02	-1.929108e+01
1.149556e+02	-1.934088e+01
1.156196e+02	-1.939003e+01
1.162874e+02	-1.944031e+01
1.169591e+02	-1.948877e+01
1.176347e+02	-1.953867e+01
1.183141e+02	-1.958765e+01
1.189975e+02	-1.963749e+01
1.196848e+02	-1.968730e+01
1.203761e+02	-1.973572e+01
1.210714e+02	-1.978680e+01
1.217707e+02	-1.983351e+01
1.224740e+02	-1.988407e+01
1.231814e+02	-1.993265e+01
1.238929e+02	-1.998486e+01
1.246085e+02	-2.003536e+01
1.253283e+02	-2.008404e+01
1.260522e+02	-2.013380e+01
1.267802e+02	-2.018157e+01
1.275125e+02	-2.023281e+01
1.282490e+02	-2.028009e+01
1.289898e+02	-2.033170e+01
1.297348e+02	-2.037911e+01
1.304842e+02	-2.043133e+01
1.312378e+02	-2.047997e+01
1.319959e+02	-2.052897e+01
1.327583e+02	-2.057914e+01
1.335251e+02	-2.062778e+01
1.342963e+02	-2.067809e+01
1.350720e+02	-2.072673e+01
1.358522e+02	-2.077759e+01
1.366368e+02	-2.082756e+01
1.374260e+02	-2.087722e+01
1.382198e+02	-2.092611e+01
1.390182e+02	-2.097469e+01
1.398211e+02	-2.102330e+01
1.406287e+02	-2.107388e+01
1.414410e+02	-2.112558e+01
1.422579e+02	-2.117424e+01
1.430796e+02	-2.122343e+01
1.439060e+02	-2.127149e+01
1.447372e+02	-2.132376e+01
1.455732e+02	-2.137373e+01
1.464141e+02	-2.142397e+01
1.472597e+02	-2.147092e+01
1.481103e+02	-2.152052e+01
1.489658e+02	-2.157156e+01
1.498262e+02	-2.162152e+01
1.506916e+02	-2.167115e+01
1.515620e+02	-2.172064e+01
1.524374e+02	-2.177154e+01
1.533179e+02	-2.182171e+01
1.542034e+02	-2.187052e+01
1.550941e+02	-2.192020e+01
1.559899e+02	-2.196930e+01
1.568909e+02	-2.201943e+01
1.577971e+02	-2.207003e+01
1.587085e+02	-2.211772e+01
1.596252e+02	-2.216868e+01
1.605472e+02	-2.221878e+01
1.614745e+02	-2.226994e+01
1.624072e+02	-2.231857e+01
1.633453e+02	-2.236724e+01
1.642887e+02	-2.241960e+01
1.652377e+02	-2.246803e+01
1.661921e+02	-2.251733e+01
1.671520e+02	-2.256852e+01
1.681175e+02	-2.261535e+01
1.690885e+02	-2.266504e+01
1.700651e+02	-2.271657e+01
1.710474e+02	-2.276504e+01
1.720354e+02	-2.281511e+01
1.730291e+02	-2.286719e+01
1.740285e+02	-2.291449e+01
1.750337e+02	-2.296435e+01
1.760446e+02	-2.301278e+01
1.770615e+02	-2.306429e+01
1.780842e+02	-2.311391e+01
1.791128e+02	-2.316404e+01
1.801473e+02	-2.321313e+01
1.811878e+02	-2.326529e+01
1.822344e+02	-2.331518e+01
1.832870e+02	-2.336474e+01
1.843456e+02	-2.341456e+01
1.854104e+02	-2.346335e+01
1.864813e+02	-2.351176e+01
1.875584e+02	-2.356068e+01
1.886418e+02	-2.361303e+01
1.897313e+02	-2.366090e+01
1.908272e+02	-2.371199e+01
1.919294e+02	-2.376253e+01
1.930380e+02	-2.380857e+01
1.941530e+02	-2.386332e+01
1.952744e+02	-2.391216e+01
1.964023e+02	-2.396174e+01
1.975367e+02	-2.401203e+01
1.986777e+02	-2.405913e+01
1.998252e+02	-2.411079e+01
2.009794e+02	-2.415978e+01
2.021403e+02	-2.421163e+01
2.033078e+02	-2.426371e+01
2.044821e+02	-2.430837e+01
2.056632e+02	-2.435942e+01
2.068511e+02	-2.440812e+01
2.080459e+02	-2.445975e+01
2.092475e+02	-2.450940e+01
2.104561e+02	-2.456051e+01
2.116717e+02	-2.460950e+01
2.128943e+02	-2.465957e+01
2.141240e+02	-2.470812e+01
2.153608e+02	-2.475931e+01
2.166047e+02	-2.481084e+01
2.178558e+02	-2.485820e+01
2.191141e+02	-2.490937e+01
2.203797e+02	-2.495909e+01
2.216526e+02	-2.501041e+01
2.229329e+02	-2.505836e+01
2.242205e+02	-2.510557e+01
2.255156e+02	-2.516049e+01
2.268182e+02	-2.520573e+01
2.281283e+02	-2.525586e+01
2.294459e+02	-2.530792e+01
2.307712e+02	-2.536092e+01
2.321041e+02	-2.540473e+01
2.334447e+02	-2.545762e+01
2.347931e+02	-2.550623e+01
2.361493e+02	-2.555763e+01
2.375133e+02	-2.560725e+01
2.388851e+02	-2.565902e+01
2.402649e+02	-2.570863e+01
2.416527e+02	-2.575733e+01
2.430484e+02	-2.581079e+01
2.444523e+02	-2.585729e+01
2.458642e+02	-2.590405e+01
2.472843e+02	-2.595715e+01
2.487126e+02	-2.600668e+01
2.501492e+02	-2.605658e+01
2.515940e+02	-2.610701e+01
2.530472e+02	-2.615977e+01
2.545088e+02	-2.620748e+01
2.559789e+02	-2.625794e+01
2.574574e+02	-2.630564e+01
2.589444e+02	-2.635795e+01
2.604401e+02	-2.640762e+01
2.619444e+02	-2.646090e+01
2.634574e+02	-2.651124e+01
2.649791e+02	-2.655806e+01
2.665096e+02	-2.660612e+01
2.680489e+02	-2.666206e+01
2.695972e+02	-2.670768e+01
2.711544e+02	-2.675771e+01
2.727205e+02	-2.681048e+01
2.742958e+02	-2.685465e+01
2.758801e+02	-2.690700e+01
2.774736e+02	-2.695701e+01
2.790762e+02	-2.700573e+01
2.806882e+02	-2.705423e+01
2.823094e+02	-2.711024e+01
2.839400e+02	-2.715672e+01
2.855800e+02	-2.720581e+01
2.872295e+02	-2.725634e+01
2.888886e+02	-2.730491e+01
2.905572e+02	-2.735899e+01
2.922354e+02	-2.740812e+01
2.939234e+02	-2.745938e+01
2.956211e+02	-2.750927e+01
2.973286e+02	-2.756038e+01
2.990459e+02	-2.760499e+01
3.007732e+02	-2.765574e+01
3.025104e+02	-2.770958e+01
3.042577e+02	-2.775805e+01
3.060151e+02	-2.780279e+01
3.077826e+02	-2.785783e+01
3.095604e+02	-2.790916e+01
3.113484e+02	-2.795780e+01
3.131467e+02	-2.800858e+01
3.149554e+02	-2.805714e+01
3.167746e+02	-2.810673e+01
3.186043e+02	-2.815582e+01
3.204445e+02	-2.820961e+01
3.222954e+02	-2.825547e+01
3.241570e+02	-2.830802e+01
3.260293e+02	-2.835817e+01
3.279124e+02	-2.840945e+01
3.298064e+02	-2.845613e+01
3.317114e+02	-2.850906e+01
3.336273e+02	-2.855682e+01
3.355544e+02	-2.860901e+01
3.374925e+02	-2.866100e+01
3.394418e+02	-2.870793e+01
3.414024e+02	-2.875623e+01
3.433744e+02	-2.880732e+01
3.453577e+02	-2.886119e+01
3.473525e+02	-2.890524e+01
3.493588e+02	-2.895862e+01
3.513766e+02	-2.900714e+01
3.534062e+02	-2.905768e+01
3.554474e+02	-2.910866e+01
3.575005e+02	-2.915988e+01
3.595654e+02	-2.920573e+01
3.616422e+02	-2.926058e+01
3.637311e+02	-2.930891e+01
3.658320e+02	-2.935898e+01
3.679450e+02	-2.940903e+01
3.700702e+02	-2.945714e+01
3.722077e+02	-2.950341e+01
3.743576e+02	-2.956320e+01
3.765199e+02	-2.960636e+01
3.786946e+02	-2.965860e+01
3.808820e+02	-2.971125e+01
3.830819e+02	-2.975773e+01
3.852946e+02	-2.981022e+01
3.875200e+02	-2.986218e+01
3.897583e+02	-2.991055e+01
3.920096e+02	-2.996105e+01
3.942738e+02	-3.000896e+01
3.965511e+02	-3.006976e+01
3.988416e+02	-3.011150e+01
4.011452e+02	-3.016449e+01
4.034622e+02	-3.020924e+01
4.057926e+02	-3.026336e+01
4.081365e+02	-3.031430e+01
4.104938e+02	-3.035778e+01
4.128648e+02	-3.041090e+01
4.152495e+02	-3.046151e+01
4.176480e+02	-3.051214e+01
4.200603e+02	-3.055831e+01
4.224866e+02	-3.061051e+01
4.249268e+02	-3.066137e+01
4.273812e+02	-3.071160e+01
4.298497e+02	-3.076669e+01
4.323325e+02	-3.080828e+01
4.348297e+02	-3.086668e+01
4.373412e+02	-3.091391e+01
4.398673e+02	-3.095762e+01
4.424079e+02	-3.101245e+01
4.449633e+02	-3.106377e+01
4.475334e+02	-3.111718e+01
4.501183e+02	-3.116119e+01
4.527182e+02	-3.120764e+01
4.553330e+02	-3.126456e+01
4.579630e+02	-3.131715e+01
4.606082e+02	-3.137038e+01
4.632687e+02	-3.141291e+01
4.659445e+02	-3.146698e+01
4.686358e+02	-3.151826e+01
4.713426e+02	-3.156521e+01
4.740650e+02	-3.162281e+01
4.768032e+02	-3.166194e+01
4.795572e+02	-3.171668e+01
4.823271e+02	-3.176601e+01
4.851130e+02	-3.181443e+01
4.879150e+02	-3.187291e+01
4.907332e+02	-3.191607e+01
4.935676e+02	-3.196717e+01
4.964185e+02	-3.201534e+01
4.992858e+02	-3.206751e+01
5.021696e+02	-3.212530e+01
5.050701e+02	-3.216526e+01
5.079874e+02	-3.222420e+01
5.109215e+02	-3.226473e+01
5.138726e+02	-3.232314e+01
5.168407e+02	-3.237283e+01
5.198259e+02	-3.242170e+01
5.228284e+02	-3.247115e+01
5.258482e+02	-3.251927e+01
5.288855e+02	-3.256581e+01
5.319403e+02	-3.262265e+01
5.350128e+02	-3.267264e+01
5.381030e+02	-3.272461e+01
5.412111e+02	-3.276466e+01
5.443371e+02	-3.282424e+01
5.474812e+02	-3.287385e+01
5.506434e+02	-3.292276e+01
5.538239e+02	-3.297016e+01
5.570228e+02	-3.302419e+01
5.602401e+02	-3.306709e+01
5.634760e+02	-3.312577e+01
5.667306e+02	-3.317345e+01
5.700040e+02	-3.322340e+01
5.732964e+02	-3.326624e+01
5.766077e+02	-3.331935e+01
5.799382e+02	-3.337151e+01
5.832879e+02	-3.341715e+01
5.866569e+02	-3.347405e+01
5.900454e+02	-3.352559e+01
5.934535e+02	-3.357744e+01
5.968813e+02	-3.362662e+01
6.003288e+02	-3.368020e+01
6.037963e+02	-3.372401e+01
6.072838e+02	-3.378136e+01
6.107914e+02	-3.382220e+01
6.143194e+02	-3.387494e+01
6.178676e+02	-3.392673e+01
6.214364e+02	-3.397448e+01
6.250258e+02	-3.402936e+01
6.286359e+02	-3.407733e+01
6.322669e+02	-3.412708e+01
6.359189e+02	-3.417599e+01
6.395919e+02	-3.423605e+01
6.432862e+02	-3.427720e+01
6.470017e+02	-3.433393e+01
6.507388e+02	-3.438047e+01
6.544974e+02	-3.442699e+01
6.582778e+02	-3.447283e+01
6.620800e+02	-3.452805e+01
6.659041e+02	-3.457749e+01
6.697504e+02	-3.463004e+01
6.736188e+02	-3.468719e+01
6.775096e+02	-3.473982e+01
6.814229e+02	-3.479109e+01
6.853587e+02	-3.483211e+01
6.893173e+02	-3.487718e+01
6.932988e+02	-3.492241e+01
6.973033e+02	-3.498485e+01
7.013309e+02	-3.503709e+01
