Frequency(Hz)	Magnitude(dB)
1.000000e+01	-2.137431e+00
1.005776e+01	-2.157139e+00
1.011585e+01	-2.176716e+00
1.017428e+01	-2.196476e+00
1.023305e+01	-2.216153e+00
1.029215e+01	-2.236670e+00
1.035160e+01	-2.256869e+00
1.041139e+01	-2.277032e+00
1.047153e+01	-2.297566e+00
1.053201e+01	-2.318024e+00
1.059284e+01	-2.338873e+00
1.065403e+01	-2.360019e+00
1.071556e+01	-2.380696e+00
1.077746e+01	-2.402007e+00
1.083971e+01	-2.423321e+00
1.090232e+01	-2.444967e+00
1.096529e+01	-2.466482e+00
1.102862e+01	-2.487967e+00
1.109232e+01	-2.510142e+00
1.115639e+01	-2.532161e+00
1.122083e+01	-2.554181e+00
1.128564e+01	-2.576719e+00
1.135083e+01	-2.599127e+00
1.141639e+01	-2.621541e+00
1.148233e+01	-2.644223e+00
1.154865e+01	-2.667236e+00
1.161536e+01	-2.690370e+00
1.168245e+01	-2.713377e+00
1.174992e+01	-2.736669e+00
1.181779e+01	-2.760330e+00
1.188605e+01	-2.783772e+00
1.195470e+01	-2.807569e+00
1.202375e+01	-2.831427e+00
1.209320e+01	-2.855422e+00
1.216305e+01	-2.879612e+00
1.223330e+01	-2.903918e+00
1.230396e+01	-2.928386e+00
1.237503e+01	-2.953027e+00
1.244651e+01	-2.977899e+00
1.251840e+01	-3.002692e+00
1.259070e+01	-3.027672e+00
1.266343e+01	-3.052991e+00
1.273657e+01	-3.078288e+00
1.281014e+01	-3.104021e+00
1.288413e+01	-3.129303e+00
1.295855e+01	-3.154961e+00
1.303339e+01	-3.180940e+00
1.310867e+01	-3.207099e+00
1.318439e+01	-3.233203e+00
1.326054e+01	-3.259437e+00
1.333713e+01	-3.285976e+00
1.341417e+01	-3.312683e+00
1.349165e+01	-3.339614e+00
1.356958e+01	-3.366514e+00
1.364795e+01	-3.393505e+00
1.372678e+01	-3.420713e+00
1.380607e+01	-3.447843e+00
1.388581e+01	-3.475340e+00
1.396602e+01	-3.503047e+00
1.404668e+01	-3.530744e+00
1.412782e+01	-3.559012e+00
1.420942e+01	-3.586943e+00
1.429149e+01	-3.615295e+00
1.437404e+01	-3.643506e+00
1.445706e+01	-3.671669e+00
1.454057e+01	-3.700126e+00
1.462455e+01	-3.728883e+00
1.470902e+01	-3.758054e+00
1.479398e+01	-3.787278e+00
1.487943e+01	-3.816377e+00
1.496537e+01	-3.845394e+00
1.505181e+01	-3.875316e+00
1.513875e+01	-3.904693e+00
1.522619e+01	-3.934222e+00
1.531414e+01	-3.964411e+00
1.540259e+01	-3.994268e+00
1.549156e+01	-4.024494e+00
1.558103e+01	-4.054785e+00
1.567103e+01	-4.085112e+00
1.576155e+01	-4.115942e+00
1.585258e+01	-4.146503e+00
1.594415e+01	-4.177332e+00
1.603624e+01	-4.208295e+00
1.612886e+01	-4.239509e+00
1.622202e+01	-4.270764e+00
1.631572e+01	-4.302346e+00
1.640996e+01	-4.333693e+00
1.650474e+01	-4.365318e+00
1.660008e+01	-4.397080e+00
1.669596e+01	-4.428694e+00
1.679239e+01	-4.460917e+00
1.688938e+01	-4.492982e+00
1.698694e+01	-4.525454e+00
1.708505e+01	-4.558034e+00
1.718373e+01	-4.590334e+00
1.728299e+01	-4.623288e+00
1.738281e+01	-4.655992e+00
1.748322e+01	-4.688761e+00
1.758420e+01	-4.722319e+00
1.768576e+01	-4.755270e+00
1.778792e+01	-4.788554e+00
1.789066e+01	-4.821816e+00
1.799399e+01	-4.855353e+00
1.809793e+01	-4.889737e+00
1.820246e+01	-4.923494e+00
1.830760e+01	-4.957361e+00
1.841334e+01	-4.991521e+00
1.851969e+01	-5.025496e+00
1.862666e+01	-5.059782e+00
1.873425e+01	-5.094563e+00
1.884246e+01	-5.128899e+00
1.895129e+01	-5.163851e+00
1.906075e+01	-5.198577e+00
1.917085e+01	-5.233825e+00
1.928158e+01	-5.268795e+00
1.939295e+01	-5.303797e+00
1.950496e+01	-5.339351e+00
1.961762e+01	-5.374654e+00
1.973093e+01	-5.410373e+00
1.984490e+01	-5.446062e+00
1.995952e+01	-5.481883e+00
2.007480e+01	-5.517657e+00
2.019076e+01	-5.553815e+00
2.030738e+01	-5.589797e+00
2.042467e+01	-5.626176e+00
2.054264e+01	-5.662253e+00
2.066130e+01	-5.699608e+00
2.078064e+01	-5.735746e+00
2.090066e+01	-5.772439e+00
2.102139e+01	-5.809214e+00
2.114280e+01	-5.846594e+00
2.126492e+01	-5.883582e+00
2.138775e+01	-5.920434e+00
2.151128e+01	-5.957833e+00
2.163553e+01	-5.995584e+00
2.176050e+01	-6.032494e+00
2.188619e+01	-6.070243e+00
2.201260e+01	-6.107746e+00
2.213974e+01	-6.145767e+00
2.226762e+01	-6.183822e+00
2.239624e+01	-6.221805e+00
2.252560e+01	-6.259702e+00
2.265571e+01	-6.298174e+00
2.278656e+01	-6.336407e+00
2.291818e+01	-6.375124e+00
2.305055e+01	-6.413259e+00
2.318369e+01	-6.452382e+00
2.331760e+01	-6.490745e+00
2.345228e+01	-6.529588e+00
2.358774e+01	-6.568809e+00
2.372398e+01	-6.607659e+00
2.386101e+01	-6.646818e+00
2.399883e+01	-6.686083e+00
2.413745e+01	-6.725510e+00
2.427686e+01	-6.765352e+00
2.441709e+01	-6.804536e+00
2.455812e+01	-6.843957e+00
2.469997e+01	-6.883693e+00
2.484263e+01	-6.923624e+00
2.498612e+01	-6.963409e+00
2.513044e+01	-7.003843e+00
2.527559e+01	-7.043513e+00
2.542158e+01	-7.083857e+00
2.556842e+01	-7.124146e+00
2.571610e+01	-7.164585e+00
2.586463e+01	-7.204792e+00
2.601403e+01	-7.245493e+00
2.616428e+01	-7.285902e+00
2.631541e+01	-7.326589e+00
2.646740e+01	-7.368004e+00
2.662028e+01	-7.408861e+00
2.677404e+01	-7.449922e+00
2.692868e+01	-7.490669e+00
2.708422e+01	-7.531917e+00
2.724066e+01	-7.573225e+00
2.739800e+01	-7.614094e+00
2.755625e+01	-7.655684e+00
2.771541e+01	-7.697251e+00
2.787550e+01	-7.738617e+00
2.803650e+01	-7.780315e+00
2.819844e+01	-7.822402e+00
2.836131e+01	-7.864128e+00
2.852513e+01	-7.905577e+00
2.868989e+01	-7.947826e+00
2.885560e+01	-7.989771e+00
2.902227e+01	-8.032183e+00
2.918990e+01	-8.073812e+00
2.935850e+01	-8.116476e+00
2.952807e+01	-8.159072e+00
2.969863e+01	-8.201267e+00
2.987016e+01	-8.243735e+00
3.004269e+01	-8.286299e+00
3.021622e+01	-8.329006e+00
3.039075e+01	-8.371818e+00
3.056628e+01	-8.414517e+00
3.074283e+01	-8.457189e+00
3.092040e+01	-8.500309e+00
3.109900e+01	-8.543288e+00
3.127862e+01	-8.586089e+00
3.145929e+01	-8.628947e+00
3.164099e+01	-8.672418e+00
3.182375e+01	-8.716185e+00
3.200756e+01	-8.758824e+00
3.219244e+01	-8.802662e+00
3.237838e+01	-8.845921e+00
3.256540e+01	-8.889611e+00
3.275349e+01	-8.933362e+00
3.294268e+01	-8.976590e+00
3.313295e+01	-9.020423e+00
3.332433e+01	-9.064189e+00
3.351681e+01	-9.108445e+00
3.371040e+01	-9.151978e+00
3.390511e+01	-9.196018e+00
3.410094e+01	-9.240549e+00
3.429791e+01	-9.284488e+00
3.449601e+01	-9.328517e+00
3.469526e+01	-9.372722e+00
3.489566e+01	-9.417265e+00
3.509721e+01	-9.461359e+00
3.529993e+01	-9.505503e+00
3.550382e+01	-9.549758e+00
3.570889e+01	-9.594585e+00
3.591515e+01	-9.639086e+00
3.612259e+01	-9.684376e+00
3.633123e+01	-9.728234e+00
3.654108e+01	-9.773338e+00
3.675214e+01	-9.817797e+00
3.696442e+01	-9.862684e+00
3.717792e+01	-9.907351e+00
3.739266e+01	-9.952518e+00
3.760864e+01	-9.997577e+00
3.782587e+01	-1.004279e+01
3.804435e+01	-1.008808e+01
3.826409e+01	-1.013267e+01
3.848510e+01	-1.017849e+01
3.870739e+01	-1.022327e+01
3.893096e+01	-1.026885e+01
3.915583e+01	-1.031423e+01
3.938199e+01	-1.035924e+01
3.960946e+01	-1.040485e+01
3.983824e+01	-1.045022e+01
4.006834e+01	-1.049633e+01
4.029978e+01	-1.054081e+01
4.053255e+01	-1.058711e+01
4.076666e+01	-1.063271e+01
4.100213e+01	-1.067856e+01
4.123896e+01	-1.072423e+01
4.147715e+01	-1.076971e+01
4.171672e+01	-1.081615e+01
4.195767e+01	-1.086155e+01
4.220002e+01	-1.090785e+01
4.244377e+01	-1.095393e+01
4.268892e+01	-1.099998e+01
4.293549e+01	-1.104581e+01
4.318348e+01	-1.109179e+01
4.343291e+01	-1.113839e+01
4.368377e+01	-1.118420e+01
4.393609e+01	-1.123037e+01
4.418986e+01	-1.127720e+01
4.444510e+01	-1.132341e+01
4.470182e+01	-1.136999e+01
4.496001e+01	-1.141593e+01
4.521970e+01	-1.146270e+01
4.548089e+01	-1.150851e+01
4.574358e+01	-1.155559e+01
4.600779e+01	-1.160106e+01
4.627353e+01	-1.164842e+01
4.654081e+01	-1.169485e+01
4.680963e+01	-1.174164e+01
4.708000e+01	-1.178797e+01
4.735193e+01	-1.183532e+01
4.762543e+01	-1.188252e+01
4.790051e+01	-1.192891e+01
4.817719e+01	-1.197537e+01
4.845545e+01	-1.202233e+01
4.873533e+01	-1.206960e+01
4.901682e+01	-1.211640e+01
4.929994e+01	-1.216271e+01
4.958470e+01	-1.220998e+01
4.987110e+01	-1.225730e+01
5.015915e+01	-1.230379e+01
5.044887e+01	-1.235123e+01
5.074026e+01	-1.239832e+01
5.103333e+01	-1.244574e+01
5.132810e+01	-1.249357e+01
5.162457e+01	-1.253934e+01
5.192275e+01	-1.258723e+01
5.222265e+01	-1.263469e+01
5.252429e+01	-1.268200e+01
5.282767e+01	-1.272951e+01
5.313280e+01	-1.277735e+01
5.343969e+01	-1.282424e+01
5.374836e+01	-1.287134e+01
5.405880e+01	-1.291913e+01
5.437105e+01	-1.296648e+01
5.468509e+01	-1.301404e+01
5.500095e+01	-1.306175e+01
5.531863e+01	-1.310921e+01
5.563815e+01	-1.315673e+01
5.595951e+01	-1.320373e+01
5.628273e+01	-1.325188e+01
5.660782e+01	-1.329918e+01
5.693479e+01	-1.334754e+01
5.726364e+01	-1.339544e+01
5.759439e+01	-1.344350e+01
5.792705e+01	-1.349064e+01
5.826164e+01	-1.353815e+01
5.859815e+01	-1.358562e+01
5.893662e+01	-1.363445e+01
5.927703e+01	-1.368163e+01
5.961941e+01	-1.372979e+01
5.996377e+01	-1.377755e+01
6.031012e+01	-1.382562e+01
6.065847e+01	-1.387389e+01
6.100883e+01	-1.392187e+01
6.136121e+01	-1.396938e+01
6.171563e+01	-1.401698e+01
6.207210e+01	-1.406586e+01
6.243063e+01	-1.411389e+01
6.279122e+01	-1.416176e+01
6.315390e+01	-1.421029e+01
6.351868e+01	-1.425800e+01
6.388556e+01	-1.430693e+01
6.425456e+01	-1.435425e+01
6.462569e+01	-1.440253e+01
6.499897e+01	-1.445032e+01
6.537440e+01	-1.449959e+01
6.575200e+01	-1.454726e+01
6.613178e+01	-1.459588e+01
6.651375e+01	-1.464385e+01
6.689793e+01	-1.469355e+01
6.728433e+01	-1.474047e+01
6.767297e+01	-1.478799e+01
6.806384e+01	-1.483759e+01
6.845698e+01	-1.488617e+01
6.885238e+01	-1.493404e+01
6.925007e+01	-1.498265e+01
6.965005e+01	-1.503037e+01
7.005235e+01	-1.507942e+01
7.045697e+01	-1.512866e+01
7.086393e+01	-1.517601e+01
7.127323e+01	-1.522440e+01
7.168490e+01	-1.527303e+01
7.209895e+01	-1.532161e+01
7.251539e+01	-1.537055e+01
7.293424e+01	-1.541980e+01
7.335551e+01	-1.546804e+01
7.377920e+01	-1.551729e+01
7.420535e+01	-1.556531e+01
7.463396e+01	-1.561434e+01
7.506504e+01	-1.566153e+01
7.549861e+01	-1.571207e+01
7.593469e+01	-1.576082e+01
7.637328e+01	-1.580885e+01
7.681441e+01	-1.585698e+01
7.725809e+01	-1.590593e+01
7.770433e+01	-1.595485e+01
7.815315e+01	-1.600327e+01
7.860456e+01	-1.605247e+01
7.905857e+01	-1.610133e+01
7.951521e+01	-1.614921e+01
7.997449e+01	-1.619803e+01
8.043642e+01	-1.624746e+01
8.090102e+01	-1.629616e+01
8.136830e+01	-1.634420e+01
8.183828e+01	-1.639457e+01
8.231097e+01	-1.644260e+01
8.278640e+01	-1.649284e+01
8.326457e+01	-1.654171e+01
8.374550e+01	-1.658891e+01
8.422921e+01	-1.663911e+01
8.471572e+01	-1.668794e+01
8.520503e+01	-1.673609e+01
8.569717e+01	-1.678560e+01
8.619215e+01	-1.683603e+01
8.669000e+01	-1.688417e+01
8.719071e+01	-1.693250e+01
8.769432e+01	-1.698149e+01
8.820084e+01	-1.703177e+01
8.871029e+01	-1.707993e+01
8.922267e+01	-1.712778e+01
8.973802e+01	-1.717749e+01
9.025634e+01	-1.722672e+01
9.077766e+01	-1.727515e+01
9.130199e+01	-1.732392e+01
9.182935e+01	-1.737503e+01
9.235975e+01	-1.742388e+01
9.289321e+01	-1.747338e+01
9.342976e+01	-1.752139e+01
9.396941e+01	-1.757015e+01
9.451217e+01	-1.762042e+01
9.505807e+01	-1.766955e+01
9.560712e+01	-1.771747e+01
9.615934e+01	-1.776764e+01
9.671476e+01	-1.781650e+01
9.727338e+01	-1.786526e+01
9.783522e+01	-1.791462e+01
9.840032e+01	-1.796486e+01
9.896867e+01	-1.801391e+01
9.954031e+01	-1.806355e+01
1.001153e+02	-1.811122e+01
1.006935e+02	-1.816195e+01
1.012751e+02	-1.821052e+01
1.018601e+02	-1.826050e+01
1.024484e+02	-1.831010e+01
1.030402e+02	-1.835792e+01
1.036353e+02	-1.840889e+01
1.042339e+02	-1.845773e+01
1.048360e+02	-1.850642e+01
1.054415e+02	-1.855512e+01
1.060505e+02	-1.860359e+01
1.066631e+02	-1.865536e+01
1.072791e+02	-1.870372e+01
1.078988e+02	-1.875278e+01
1.085220e+02	-1.880410e+01
1.091488e+02	-1.885338e+01
1.097793e+02	-1.890117e+01
1.104133e+02	-1.895075e+01
1.110511e+02	-1.900000e+01
1.116925e+02	-1.905057e+01
1.123376e+02	-1.909573e+01
1.129865e+02	-1.914847e+01
1.136391e+02	-1.919975e+01
1.142955e+02	-1.924706e+01
1.149556e+02	-1.929697e+01
1.156196e+02	-1.934699e+01
1.162874e+02	-1.939395e+01
1.169591e+02	-1.944604e+01
1.176347e+02	-1.949732e+01
1.183141e+02	-1.954334e+01
1.189975e+02	-1.959321e+01
1.196848e+02	-1.964284e+01
1.203761e+02	-1.969164e+01
1.210714e+02	-1.974265e+01
1.217707e+02	-1.979194e+01
1.224740e+02	-1.983964e+01
1.231814e+02	-1.989080e+01
1.238929e+02	-1.993950e+01
1.246085e+02	-1.999142e+01
1.253283e+02	-2.004005e+01
1.260522e+02	-2.008966e+01
1.267802e+02	-2.013735e+01
1.275125e+02	-2.018783e+01
1.282490e+02	-2.023656e+01
1.289898e+02	-2.028550e+01
1.297348e+02	-2.033649e+01
1.304842e+02	-2.038397e+01
1.312378e+02	-2.043619e+01
1.319959e+02	-2.048683e+01
1.327583e+02	-2.053545e+01
1.335251e+02	-2.058563e+01
1.342963e+02	-2.063448e+01
1.350720e+02	-2.068451e+01
1.358522e+02	-2.073237e+01
1.366368e+02	-2.078404e+01
1.374260e+02	-2.083213e+01
1.382198e+02	-2.088048e+01
1.390182e+02	-2.093182e+01
1.398211e+02	-2.098114e+01
1.406287e+02	-2.103036e+01
1.414410e+02	-2.108178e+01
1.422579e+02	-2.113120e+01
1.430796e+02	-2.117935e+01
1.439060e+02	-2.122818e+01
1.447372e+02	-2.127701e+01
1.455732e+02	-2.132867e+01
1.464141e+02	-2.137868e+01
1.472597e+02	-2.142951e+01
1.481103e+02	-2.147747e+01
1.489658e+02	-2.152730e+01
1.498262e+02	-2.157747e+01
1.506916e+02	-2.162821e+01
1.515620e+02	-2.167757e+01
1.524374e+02	-2.172652e+01
1.533179e+02	-2.177762e+01
1.542034e+02	-2.182704e+01
1.550941e+02	-2.187538e+01
1.559899e+02	-2.192314e+01
1.568909e+02	-2.197532e+01
1.577971e+02	-2.202436e+01
1.587085e+02	-2.207524e+01
1.596252e+02	-2.212517e+01
1.605472e+02	-2.217443e+01
1.614745e+02	-2.222294e+01
1.624072e+02	-2.227202e+01
1.633453e+02	-2.232347e+01
1.642887e+02	-2.237204e+01
1.652377e+02	-2.242362e+01
1.661921e+02	-2.247129e+01
1.671520e+02	-2.252269e+01
1.681175e+02	-2.257159e+01
1.690885e+02	-2.262154e+01
1.700651e+02	-2.267082e+01
1.710474e+02	-2.272145e+01
1.720354e+02	-2.277115e+01
1.730291e+02	-2.282071e+01
1.740285e+02	-2.286852e+01
1.750337e+02	-2.292286e+01
1.760446e+02	-2.297161e+01
1.770615e+02	-2.302060e+01
1.780842e+02	-2.307073e+01
1.791128e+02	-2.312182e+01
1.801473e+02	-2.316779e+01
1.811878e+02	-2.321902e+01
1.822344e+02	-2.326928e+01
1.832870e+02	-2.331803e+01
1.843456e+02	-2.336640e+01
1.854104e+02	-2.341685e+01
1.864813e+02	-2.346936e+01
1.875584e+02	-2.351768e+01
1.886418e+02	-2.356884e+01
1.897313e+02	-2.361786e+01
1.908272e+02	-2.366786e+01
1.919294e+02	-2.371641e+01
1.930380e+02	-2.376554e+01
1.941530e+02	-2.381890e+01
1.952744e+02	-2.386670e+01
1.964023e+02	-2.391811e+01
1.975367e+02	-2.396559e+01
1.986777e+02	-2.401819e+01
1.998252e+02	-2.406409e+01
2.009794e+02	-2.411617e+01
2.021403e+02	-2.416707e+01
2.033078e+02	-2.421427e+01
2.044821e+02	-2.426372e+01
2.056632e+02	-2.431483e+01
2.068511e+02	-2.436641e+01
2.080459e+02	-2.441512e+01
2.092475e+02	-2.446693e+01
2.104561e+02	-2.451518e+01
2.116717e+02	-2.456669e+01
2.128943e+02	-2.461631e+01
2.141240e+02	-2.466505e+01
2.153608e+02	-2.471290e+01
2.166047e+02	-2.476586e+01
2.178558e+02	-2.481454e+01
2.191141e+02	-2.486534e+01
2.203797e+02	-2.491622e+01
2.216526e+02	-2.496215e+01
2.229329e+02	-2.501308e+01
2.242205e+02	-2.506210e+01
2.255156e+02	-2.511465e+01
2.268182e+02	-2.516677e+01
2.281283e+02	-2.521647e+01
2.294459e+02	-2.526467e+01
2.307712e+02	-2.531502e+01
2.321041e+02	-2.536599e+01
2.334447e+02	-2.541225e+01
2.347931e+02	-2.546331e+01
2.361493e+02	-2.551360e+01
2.375133e+02	-2.556360e+01
2.388851e+02	-2.561105e+01
2.402649e+02	-2.566410e+01
2.416527e+02	-2.571105e+01
2.430484e+02	-2.576137e+01
2.444523e+02	-2.581195e+01
2.458642e+02	-2.586336e+01
2.472843e+02	-2.591271e+01
2.487126e+02	-2.596222e+01
2.501492e+02	-2.601049e+01
2.515940e+02	-2.606465e+01
2.530472e+02	-2.611450e+01
2.545088e+02	-2.616428e+01
2.559789e+02	-2.621425e+01
2.574574e+02	-2.625955e+01
2.589444e+02	-2.631251e+01
2.604401e+02	-2.636652e+01
2.619444e+02	-2.641429e+01
2.634574e+02	-2.646254e+01
2.649791e+02	-2.651251e+01
2.665096e+02	-2.656345e+01
2.680489e+02	-2.660986e+01
2.695972e+02	-2.666024e+01
2.711544e+02	-2.671492e+01
2.727205e+02	-2.676304e+01
2.742958e+02	-2.681413e+01
2.758801e+02	-2.686105e+01
2.774736e+02	-2.691403e+01
2.790762e+02	-2.696491e+01
2.806882e+02	-2.701281e+01
2.823094e+02	-2.706198e+01
2.839400e+02	-2.710944e+01
2.855800e+02	-2.716475e+01
2.872295e+02	-2.721376e+01
2.888886e+02	-2.726476e+01
2.905572e+02	-2.731243e+01
2.922354e+02	-2.736580e+01
2.939234e+02	-2.741047e+01
2.956211e+02	-2.746382e+01
2.973286e+02	-2.751450e+01
2.990459e+02	-2.756482e+01
3.007732e+02	-2.760854e+01
3.025104e+02	-2.765929e+01
3.042577e+02	-2.771324e+01
3.060151e+02	-2.776235e+01
3.077826e+02	-2.781063e+01
3.095604e+02	-2.786070e+01
3.113484e+02	-2.791353e+01
3.131467e+02	-2.795927e+01
3.149554e+02	-2.801257e+01
3.167746e+02	-2.806202e+01
3.186043e+02	-2.811312e+01
3.204445e+02	-2.816720e+01
3.222954e+02	-2.821418e+01
3.241570e+02	-2.826486e+01
3.260293e+02	-2.831368e+01
3.279124e+02	-2.836325e+01
3.298064e+02	-2.841071e+01
3.317114e+02	-2.846422e+01
3.336273e+02	-2.851209e+01
3.355544e+02	-2.856381e+01
3.374925e+02	-2.861142e+01
3.394418e+02	-2.866147e+01
3.414024e+02	-2.871549e+01
3.433744e+02	-2.876272e+01
3.453577e+02	-2.881122e+01
3.473525e+02	-2.886882e+01
3.493588e+02	-2.891231e+01
3.513766e+02	-2.896300e+01
3.534062e+02	-2.900808e+01
3.554474e+02	-2.906642e+01
3.575005e+02	-2.911541e+01
3.595654e+02	-2.916293e+01
3.616422e+02	-2.921015e+01
3.637311e+02	-2.926248e+01
3.658320e+02	-2.931294e+01
3.679450e+02	-2.936834e+01
3.700702e+02	-2.941243e+01
3.722077e+02	-2.946641e+01
3.743576e+02	-2.951601e+01
3.765199e+02	-2.956178e+01
3.786946e+02	-2.961520e+01
3.808820e+02	-2.966371e+01
3.830819e+02	-2.971194e+01
3.852946e+02	-2.976682e+01
3.875200e+02	-2.981216e+01
3.897583e+02	-2.986199e+01
3.920096e+02	-2.991207e+01
3.942738e+02	-2.996352e+01
3.965511e+02	-3.001328e+01
3.988416e+02	-3.006382e+01
4.011452e+02	-3.011602e+01
4.034622e+02	-3.016721e+01
4.057926e+02	-3.021777e+01
4.081365e+02	-3.026257e+01
4.104938e+02	-3.031342e+01
4.128648e+02	-3.036354e+01
4.152495e+02	-3.040995e+01
4.176480e+02	-3.046431e+01
4.200603e+02	-3.051444e+01
4.224866e+02	-3.056414e+01
4.249268e+02	-3.061470e+01
4.273812e+02	-3.067032e+01
4.298497e+02	-3.071423e+01
4.323325e+02	-3.076874e+01
4.348297e+02	-3.081266e+01
4.373412e+02	-3.086198e+01
4.398673e+02	-3.091742e+01
4.424079e+02	-3.097082e+01
4.449633e+02	-3.101767e+01
4.475334e+02	-3.106873e+01
4.501183e+02	-3.112072e+01
4.527182e+02	-3.116745e+01
4.553330e+02	-3.121973e+01
4.579630e+02	-3.126450e+01
4.606082e+02	-3.131441e+01
4.632687e+02	-3.136829e+01
4.659445e+02	-3.141854e+01
4.686358e+02	-3.146939e+01
4.713426e+02	-3.152041e+01
4.740650e+02	-3.156821e+01
4.768032e+02	-3.162054e+01
4.795572e+02	-3.166581e+01
4.823271e+02	-3.171783e+01
4.851130e+02	-3.177082e+01
4.879150e+02	-3.181764e+01
4.907332e+02	-3.187428e+01
4.935676e+02	-3.191524e+01
4.964185e+02	-3.197142e+01
4.992858e+02	-3.201990e+01
5.021696e+02	-3.207948e+01
5.050701e+02	-3.211253e+01
5.079874e+02	-3.217956e+01
5.109215e+02	-3.222147e+01
5.138726e+02	-3.226988e+01
5.168407e+02	-3.231880e+01
5.198259e+02	-3.236962e+01
5.228284e+02	-3.241633e+01
5.258482e+02	-3.247258e+01
5.288855e+02	-3.252141e+01
5.319403e+02	-3.257396e+01
5.350128e+02	-3.262067e+01
5.381030e+02	-3.267089e+01
5.412111e+02	-3.272348e+01
5.443371e+02	-3.277828e+01
5.474812e+02	-3.282273e+01
5.506434e+02	-3.287528e+01
5.538239e+02	-3.292958e+01
5.570228e+02	-3.297798e+01
5.602401e+02	-3.302590e+01
5.634760e+02	-3.306970e+01
5.667306e+02	-3.312190e+01
5.700040e+02	-3.317647e+01
5.732964e+02	-3.322774e+01
5.766077e+02	-3.327358e+01
5.799382e+02	-3.332391e+01
5.832879e+02	-3.337854e+01
5.866569e+02	-3.342624e+01
5.900454e+02	-3.347261e+01
5.934535e+02	-3.352781e+01
5.968813e+02	-3.357208e+01
6.003288e+02	-3.362927e+01
6.037963e+02	-3.367996e+01
6.072838e+02	-3.372446e+01
6.107914e+02	-3.378249e+01
6.143194e+02	-3.383495e+01
6.178676e+02	-3.387829e+01
6.214364e+02	-3.392370e+01
6.250258e+02	-3.398183e+01
6.286359e+02	-3.402438e+01
6.322669e+02	-3.408377e+01
6.359189e+02	-3.413000e+01
6.395919e+02	-3.418327e+01
6.432862e+02	-3.423189e+01
6.470017e+02	-3.427445e+01
6.507388e+02	-3.432100e+01
6.544974e+02	-3.438671e+01
6.582778e+02	-3.443777e+01
6.620800e+02	-3.447890e+01
6.659041e+02	-3.453155e+01
6.697504e+02	-3.458799e+01
6.736188e+02	-3.463563e+01
6.775096e+02	-3.468966e+01
6.814229e+02	-3.473215e+01
6.853587e+02	-3.479521e+01
6.893173e+02	-3.483377e+01
6.932988e+02	-3.488662e+01
6.973033e+02	-3.494679e+01
7.013309e+02	-3.498987e+01
