Frequency(Hz)	Magnitude(dB)
1.000000e+01	-2.097807e+00
1.005776e+01	-2.116875e+00
1.011585e+01	-2.136302e+00
1.017428e+01	-2.155806e+00
1.023305e+01	-2.175435e+00
1.029215e+01	-2.195252e+00
1.035160e+01	-2.215069e+00
1.041139e+01	-2.235095e+00
1.047153e+01	-2.255556e+00
1.053201e+01	-2.275552e+00
1.059284e+01	-2.296193e+00
1.065403e+01	-2.316990e+00
1.071556e+01	-2.337704e+00
1.077746e+01	-2.358432e+00
1.083971e+01	-2.379718e+00
1.090232e+01	-2.400789e+00
1.096529e+01	-2.422035e+00
1.102862e+01	-2.443529e+00
1.109232e+01	-2.464861e+00
1.115639e+01	-2.486796e+00
1.122083e+01	-2.508578e+00
1.128564e+01	-2.530605e+00
1.135083e+01	-2.552894e+00
1.141639e+01	-2.575145e+00
1.148233e+01	-2.597548e+00
1.154865e+01	-2.620325e+00
1.161536e+01	-2.643148e+00
1.168245e+01	-2.665998e+00
1.174992e+01	-2.688892e+00
1.181779e+01	-2.712121e+00
1.188605e+01	-2.735277e+00
1.195470e+01	-2.758901e+00
1.202375e+01	-2.782318e+00
1.209320e+01	-2.806038e+00
1.216305e+01	-2.829807e+00
1.223330e+01	-2.854098e+00
1.230396e+01	-2.878075e+00
1.237503e+01	-2.902284e+00
1.244651e+01	-2.926805e+00
1.251840e+01	-2.951169e+00
1.259070e+01	-2.976375e+00
1.266343e+01	-3.000925e+00
1.273657e+01	-3.026322e+00
1.281014e+01	-3.051505e+00
1.288413e+01	-3.076946e+00
1.295855e+01	-3.102253e+00
1.303339e+01	-3.127783e+00
1.310867e+01	-3.153616e+00
1.318439e+01	-3.179494e+00
1.326054e+01	-3.205443e+00
1.333713e+01	-3.231527e+00
1.341417e+01	-3.258042e+00
1.349165e+01	-3.284221e+00
1.356958e+01	-3.310906e+00
1.364795e+01	-3.337954e+00
1.372678e+01	-3.364492e+00
1.380607e+01	-3.391818e+00
1.388581e+01	-3.418864e+00
1.396602e+01	-3.446293e+00
1.404668e+01	-3.473641e+00
1.412782e+01	-3.501457e+00
1.420942e+01	-3.529315e+00
1.429149e+01	-3.557138e+00
1.437404e+01	-3.585032e+00
1.445706e+01	-3.613278e+00
1.454057e+01	-3.641415e+00
1.462455e+01	-3.669911e+00
1.470902e+01	-3.698564e+00
1.479398e+01	-3.727257e+00
1.487943e+01	-3.756343e+00
1.496537e+01	-3.785250e+00
1.505181e+01	-3.814752e+00
1.513875e+01	-3.843743e+00
1.522619e+01	-3.873234e+00
1.531414e+01	-3.902936e+00
1.540259e+01	-3.932613e+00
1.549156e+01	-3.962386e+00
1.558103e+01	-3.992568e+00
1.567103e+01	-4.022680e+00
1.576155e+01	-4.052918e+00
1.585258e+01	-4.083148e+00
1.594415e+01	-4.113967e+00
1.603624e+01	-4.144593e+00
1.612886e+01	-4.175512e+00
1.622202e+01	-4.206225e+00
1.631572e+01	-4.237390e+00
1.640996e+01	-4.268637e+00
1.650474e+01	-4.300061e+00
1.660008e+01	-4.331716e+00
1.669596e+01	-4.363409e+00
1.679239e+01	-4.395040e+00
1.688938e+01	-4.427041e+00
1.698694e+01	-4.458922e+00
1.708505e+01	-4.490932e+00
1.718373e+01	-4.523233e+00
1.728299e+01	-4.555896e+00
1.738281e+01	-4.588287e+00
1.748322e+01	-4.621095e+00
1.758420e+01	-4.654051e+00
1.768576e+01	-4.686813e+00
1.778792e+01	-4.719975e+00
1.789066e+01	-4.753495e+00
1.799399e+01	-4.786408e+00
1.809793e+01	-4.820008e+00
1.820246e+01	-4.853527e+00
1.830760e+01	-4.887241e+00
1.841334e+01	-4.920990e+00
1.851969e+01	-4.955315e+00
1.862666e+01	-4.989173e+00
1.873425e+01	-5.023305e+00
1.884246e+01	-5.058160e+00
1.895129e+01	-5.092446e+00
1.906075e+01	-5.126689e+00
1.917085e+01	-5.161588e+00
1.928158e+01	-5.196713e+00
1.939295e+01	-5.231497e+00
1.950496e+01	-5.266703e+00
1.961762e+01	-5.301974e+00
1.973093e+01	-5.336986e+00
1.984490e+01	-5.372576e+00
1.995952e+01	-5.407762e+00
2.007480e+01	-5.444006e+00
2.019076e+01	-5.479742e+00
2.030738e+01	-5.515792e+00
2.042467e+01	-5.551580e+00
2.054264e+01	-5.587551e+00
2.066130e+01	-5.623854e+00
2.078064e+01	-5.660580e+00
2.090066e+01	-5.696916e+00
2.102139e+01	-5.733731e+00
2.114280e+01	-5.769908e+00
2.126492e+01	-5.806713e+00
2.138775e+01	-5.843870e+00
2.151128e+01	-5.880748e+00
2.163553e+01	-5.918024e+00
2.176050e+01	-5.955556e+00
2.188619e+01	-5.992817e+00
2.201260e+01	-6.030215e+00
2.213974e+01	-6.067739e+00
2.226762e+01	-6.105581e+00
2.239624e+01	-6.143274e+00
2.252560e+01	-6.181480e+00
2.265571e+01	-6.219278e+00
2.278656e+01	-6.257436e+00
2.291818e+01	-6.295457e+00
2.305055e+01	-6.333983e+00
2.318369e+01	-6.372819e+00
2.331760e+01	-6.410988e+00
2.345228e+01	-6.449941e+00
2.358774e+01	-6.488061e+00
2.372398e+01	-6.527043e+00
2.386101e+01	-6.566170e+00
2.399883e+01	-6.605180e+00
2.413745e+01	-6.644502e+00
2.427686e+01	-6.683890e+00
2.441709e+01	-6.722859e+00
2.455812e+01	-6.762326e+00
2.469997e+01	-6.801990e+00
2.484263e+01	-6.841719e+00
2.498612e+01	-6.881136e+00
2.513044e+01	-6.921097e+00
2.527559e+01	-6.960797e+00
2.542158e+01	-7.001151e+00
2.556842e+01	-7.040749e+00
2.571610e+01	-7.081378e+00
2.586463e+01	-7.121597e+00
2.601403e+01	-7.161758e+00
2.616428e+01	-7.202242e+00
2.631541e+01	-7.242782e+00
2.646740e+01	-7.283788e+00
2.662028e+01	-7.324289e+00
2.677404e+01	-7.364947e+00
2.692868e+01	-7.406078e+00
2.708422e+01	-7.446875e+00
2.724066e+01	-7.488375e+00
2.739800e+01	-7.529161e+00
2.755625e+01	-7.570345e+00
2.771541e+01	-7.611607e+00
2.787550e+01	-7.653344e+00
2.803650e+01	-7.694464e+00
2.819844e+01	-7.736199e+00
2.836131e+01	-7.777567e+00
2.852513e+01	-7.819620e+00
2.868989e+01	-7.861561e+00
2.885560e+01	-7.903233e+00
2.902227e+01	-7.945525e+00
2.918990e+01	-7.987105e+00
2.935850e+01	-8.029348e+00
2.952807e+01	-8.071959e+00
2.969863e+01	-8.113971e+00
2.987016e+01	-8.156464e+00
3.004269e+01	-8.198392e+00
3.021622e+01	-8.241072e+00
3.039075e+01	-8.283356e+00
3.056628e+01	-8.326417e+00
3.074283e+01	-8.368682e+00
3.092040e+01	-8.411635e+00
3.109900e+01	-8.454475e+00
3.127862e+01	-8.497321e+00
3.145929e+01	-8.540286e+00
3.164099e+01	-8.583630e+00
3.182375e+01	-8.626405e+00
3.200756e+01	-8.669616e+00
3.219244e+01	-8.713142e+00
3.237838e+01	-8.756276e+00
3.256540e+01	-8.799680e+00
3.275349e+01	-8.843261e+00
3.294268e+01	-8.886885e+00
3.313295e+01	-8.930626e+00
3.332433e+01	-8.974048e+00
3.351681e+01	-9.017560e+00
3.371040e+01	-9.061642e+00
3.390511e+01	-9.105629e+00
3.410094e+01	-9.149234e+00
3.429791e+01	-9.192912e+00
3.449601e+01	-9.237513e+00
3.469526e+01	-9.281328e+00
3.489566e+01	-9.325590e+00
3.509721e+01	-9.369728e+00
3.529993e+01	-9.414120e+00
3.550382e+01	-9.458466e+00
3.570889e+01	-9.502439e+00
3.591515e+01	-9.547303e+00
3.612259e+01	-9.591802e+00
3.633123e+01	-9.636682e+00
3.654108e+01	-9.681355e+00
3.675214e+01	-9.725402e+00
3.696442e+01	-9.770705e+00
3.717792e+01	-9.814892e+00
3.739266e+01	-9.860092e+00
3.760864e+01	-9.905010e+00
3.782587e+01	-9.950096e+00
3.804435e+01	-9.994505e+00
3.826409e+01	-1.003958e+01
3.848510e+01	-1.008514e+01
3.870739e+01	-1.012983e+01
3.893096e+01	-1.017482e+01
3.915583e+01	-1.022068e+01
3.938199e+01	-1.026599e+01
3.960946e+01	-1.031117e+01
3.983824e+01	-1.035654e+01
4.006834e+01	-1.040191e+01
4.029978e+01	-1.044723e+01
4.053255e+01	-1.049291e+01
4.076666e+01	-1.053830e+01
4.100213e+01	-1.058400e+01
4.123896e+01	-1.062979e+01
4.147715e+01	-1.067608e+01
4.171672e+01	-1.072129e+01
4.195767e+01	-1.076706e+01
4.220002e+01	-1.081284e+01
4.244377e+01	-1.085921e+01
4.268892e+01	-1.090437e+01
4.293549e+01	-1.095054e+01
4.318348e+01	-1.099690e+01
4.343291e+01	-1.104317e+01
4.368377e+01	-1.108923e+01
4.393609e+01	-1.113487e+01
4.418986e+01	-1.118154e+01
4.444510e+01	-1.122739e+01
4.470182e+01	-1.127375e+01
4.496001e+01	-1.132006e+01
4.521970e+01	-1.136672e+01
4.548089e+01	-1.141283e+01
4.574358e+01	-1.145931e+01
4.600779e+01	-1.150617e+01
4.627353e+01	-1.155234e+01
4.654081e+01	-1.159875e+01
4.680963e+01	-1.164540e+01
4.708000e+01	-1.169234e+01
4.735193e+01	-1.173901e+01
4.762543e+01	-1.178571e+01
4.790051e+01	-1.183197e+01
4.817719e+01	-1.187891e+01
4.845545e+01	-1.192588e+01
4.873533e+01	-1.197220e+01
4.901682e+01	-1.201906e+01
4.929994e+01	-1.206568e+01
4.958470e+01	-1.211302e+01
4.987110e+01	-1.216045e+01
5.015915e+01	-1.220754e+01
5.044887e+01	-1.225495e+01
5.074026e+01	-1.230131e+01
5.103333e+01	-1.234749e+01
5.132810e+01	-1.239619e+01
5.162457e+01	-1.244266e+01
5.192275e+01	-1.248985e+01
5.222265e+01	-1.253672e+01
5.252429e+01	-1.258383e+01
5.282767e+01	-1.263204e+01
5.313280e+01	-1.267886e+01
5.343969e+01	-1.272680e+01
5.374836e+01	-1.277346e+01
5.405880e+01	-1.282148e+01
5.437105e+01	-1.286822e+01
5.468509e+01	-1.291672e+01
5.500095e+01	-1.296365e+01
5.531863e+01	-1.301140e+01
5.563815e+01	-1.305771e+01
5.595951e+01	-1.310563e+01
5.628273e+01	-1.315366e+01
5.660782e+01	-1.320166e+01
5.693479e+01	-1.324952e+01
5.726364e+01	-1.329626e+01
5.759439e+01	-1.334415e+01
5.792705e+01	-1.339133e+01
5.826164e+01	-1.344002e+01
5.859815e+01	-1.348713e+01
5.893662e+01	-1.353545e+01
5.927703e+01	-1.358329e+01
5.961941e+01	-1.363089e+01
5.996377e+01	-1.367847e+01
6.031012e+01	-1.372709e+01
6.065847e+01	-1.377472e+01
6.100883e+01	-1.382380e+01
6.136121e+01	-1.387023e+01
6.171563e+01	-1.391880e+01
6.207210e+01	-1.396704e+01
6.243063e+01	-1.401484e+01
6.279122e+01	-1.406322e+01
6.315390e+01	-1.411076e+01
6.351868e+01	-1.415906e+01
6.388556e+01	-1.420694e+01
6.425456e+01	-1.425546e+01
6.462569e+01	-1.430346e+01
6.499897e+01	-1.435072e+01
6.537440e+01	-1.439968e+01
6.575200e+01	-1.444788e+01
6.613178e+01	-1.449618e+01
6.651375e+01	-1.454461e+01
6.689793e+01	-1.459318e+01
6.728433e+01	-1.464124e+01
6.767297e+01	-1.468952e+01
6.806384e+01	-1.473858e+01
6.845698e+01	-1.478569e+01
6.885238e+01	-1.483500e+01
6.925007e+01	-1.488303e+01
6.965005e+01	-1.493090e+01
7.005235e+01	-1.497994e+01
7.045697e+01	-1.502822e+01
7.086393e+01	-1.507686e+01
7.127323e+01	-1.512424e+01
7.168490e+01	-1.517317e+01
7.209895e+01	-1.522219e+01
7.251539e+01	-1.527065e+01
7.293424e+01	-1.531933e+01
7.335551e+01	-1.536873e+01
7.377920e+01	-1.541623e+01
7.420535e+01	-1.546404e+01
7.463396e+01	-1.551229e+01
7.506504e+01	-1.556156e+01
7.549861e+01	-1.561022e+01
7.593469e+01	-1.565865e+01
7.637328e+01	-1.570798e+01
7.681441e+01	-1.575772e+01
7.725809e+01	-1.580555e+01
7.770433e+01	-1.585417e+01
7.815315e+01	-1.590312e+01
7.860456e+01	-1.595175e+01
7.905857e+01	-1.600041e+01
7.951521e+01	-1.605011e+01
7.997449e+01	-1.609891e+01
8.043642e+01	-1.614718e+01
8.090102e+01	-1.619585e+01
8.136830e+01	-1.624445e+01
8.183828e+01	-1.629472e+01
8.231097e+01	-1.634062e+01
8.278640e+01	-1.639164e+01
8.326457e+01	-1.643945e+01
8.374550e+01	-1.648846e+01
8.422921e+01	-1.653795e+01
8.471572e+01	-1.658622e+01
8.520503e+01	-1.663633e+01
8.569717e+01	-1.668513e+01
8.619215e+01	-1.673416e+01
8.669000e+01	-1.678319e+01
8.719071e+01	-1.683082e+01
8.769432e+01	-1.688103e+01
8.820084e+01	-1.692912e+01
8.871029e+01	-1.697781e+01
8.922267e+01	-1.702786e+01
8.973802e+01	-1.707781e+01
9.025634e+01	-1.712534e+01
9.077766e+01	-1.717468e+01
9.130199e+01	-1.722322e+01
9.182935e+01	-1.727203e+01
9.235975e+01	-1.732275e+01
9.289321e+01	-1.737145e+01
9.342976e+01	-1.742128e+01
9.396941e+01	-1.746885e+01
9.451217e+01	-1.751843e+01
9.505807e+01	-1.756772e+01
9.560712e+01	-1.761727e+01
9.615934e+01	-1.766558e+01
9.671476e+01	-1.771531e+01
9.727338e+01	-1.776459e+01
9.783522e+01	-1.781294e+01
9.840032e+01	-1.786368e+01
9.896867e+01	-1.791122e+01
9.954031e+01	-1.796050e+01
1.001153e+02	-1.801027e+01
1.006935e+02	-1.805955e+01
1.012751e+02	-1.810970e+01
1.018601e+02	-1.815718e+01
1.024484e+02	-1.820723e+01
1.030402e+02	-1.825812e+01
1.036353e+02	-1.830526e+01
1.042339e+02	-1.835364e+01
1.048360e+02	-1.840402e+01
1.054415e+02	-1.845398e+01
1.060505e+02	-1.850309e+01
1.066631e+02	-1.855292e+01
1.072791e+02	-1.860206e+01
1.078988e+02	-1.865166e+01
1.085220e+02	-1.870157e+01
1.091488e+02	-1.875109e+01
1.097793e+02	-1.880004e+01
1.104133e+02	-1.884794e+01
1.110511e+02	-1.889803e+01
1.116925e+02	-1.894779e+01
1.123376e+02	-1.899767e+01
1.129865e+02	-1.904656e+01
1.136391e+02	-1.909574e+01
1.142955e+02	-1.914646e+01
1.149556e+02	-1.919522e+01
1.156196e+02	-1.924324e+01
1.162874e+02	-1.929225e+01
1.169591e+02	-1.934408e+01
1.176347e+02	-1.939346e+01
1.183141e+02	-1.944130e+01
1.189975e+02	-1.949022e+01
1.196848e+02	-1.954041e+01
1.203761e+02	-1.959040e+01
1.210714e+02	-1.964133e+01
1.217707e+02	-1.968924e+01
1.224740e+02	-1.973845e+01
1.231814e+02	-1.978787e+01
1.238929e+02	-1.983867e+01
1.246085e+02	-1.988630e+01
1.253283e+02	-1.993750e+01
1.260522e+02	-1.998806e+01
1.267802e+02	-2.003545e+01
1.275125e+02	-2.008553e+01
1.282490e+02	-2.013520e+01
1.289898e+02	-2.018435e+01
1.297348e+02	-2.023502e+01
1.304842e+02	-2.028317e+01
1.312378e+02	-2.033286e+01
1.319959e+02	-2.038228e+01
1.327583e+02	-2.043327e+01
1.335251e+02	-2.048205e+01
1.342963e+02	-2.053281e+01
1.350720e+02	-2.058192e+01
1.358522e+02	-2.063084e+01
1.366368e+02	-2.068035e+01
1.374260e+02	-2.073059e+01
1.382198e+02	-2.078045e+01
1.390182e+02	-2.082950e+01
1.398211e+02	-2.088003e+01
1.406287e+02	-2.092697e+01
1.414410e+02	-2.097916e+01
1.422579e+02	-2.102825e+01
1.430796e+02	-2.107828e+01
1.439060e+02	-2.112760e+01
1.447372e+02	-2.117630e+01
1.455732e+02	-2.122623e+01
1.464141e+02	-2.127502e+01
1.472597e+02	-2.132422e+01
1.481103e+02	-2.137759e+01
1.489658e+02	-2.142584e+01
1.498262e+02	-2.147661e+01
1.506916e+02	-2.152500e+01
1.515620e+02	-2.157282e+01
1.524374e+02	-2.162452e+01
1.533179e+02	-2.167372e+01
1.542034e+02	-2.172456e+01
1.550941e+02	-2.177363e+01
1.559899e+02	-2.182313e+01
1.568909e+02	-2.187108e+01
1.577971e+02	-2.192372e+01
1.587085e+02	-2.197277e+01
1.596252e+02	-2.202192e+01
1.605472e+02	-2.207124e+01
1.614745e+02	-2.212226e+01
1.624072e+02	-2.217180e+01
1.633453e+02	-2.222057e+01
1.642887e+02	-2.227098e+01
1.652377e+02	-2.232101e+01
1.661921e+02	-2.236855e+01
1.671520e+02	-2.242153e+01
1.681175e+02	-2.246948e+01
1.690885e+02	-2.251957e+01
1.700651e+02	-2.256838e+01
1.710474e+02	-2.261900e+01
1.720354e+02	-2.266772e+01
1.730291e+02	-2.271907e+01
1.740285e+02	-2.276594e+01
1.750337e+02	-2.281650e+01
1.760446e+02	-2.286903e+01
1.770615e+02	-2.291797e+01
1.780842e+02	-2.296762e+01
1.791128e+02	-2.301506e+01
1.801473e+02	-2.306606e+01
1.811878e+02	-2.311623e+01
1.822344e+02	-2.316796e+01
1.832870e+02	-2.321661e+01
1.843456e+02	-2.326554e+01
1.854104e+02	-2.331519e+01
1.864813e+02	-2.336570e+01
1.875584e+02	-2.341551e+01
1.886418e+02	-2.346624e+01
1.897313e+02	-2.351582e+01
1.908272e+02	-2.356403e+01
1.919294e+02	-2.361480e+01
1.930380e+02	-2.366399e+01
1.941530e+02	-2.371577e+01
1.952744e+02	-2.376582e+01
1.964023e+02	-2.381509e+01
1.975367e+02	-2.386189e+01
1.986777e+02	-2.391527e+01
1.998252e+02	-2.396150e+01
2.009794e+02	-2.401287e+01
2.021403e+02	-2.406389e+01
2.033078e+02	-2.411461e+01
2.044821e+02	-2.416288e+01
2.056632e+02	-2.421250e+01
2.068511e+02	-2.426233e+01
2.080459e+02	-2.431493e+01
2.092475e+02	-2.436361e+01
2.104561e+02	-2.441000e+01
2.116717e+02	-2.446407e+01
2.128943e+02	-2.451075e+01
2.141240e+02	-2.456524e+01
2.153608e+02	-2.460975e+01
2.166047e+02	-2.466502e+01
2.178558e+02	-2.471342e+01
2.191141e+02	-2.476052e+01
2.203797e+02	-2.480988e+01
2.216526e+02	-2.485906e+01
2.229329e+02	-2.491020e+01
2.242205e+02	-2.496320e+01
2.255156e+02	-2.500984e+01
2.268182e+02	-2.506253e+01
2.281283e+02	-2.511060e+01
2.294459e+02	-2.516016e+01
2.307712e+02	-2.521094e+01
2.321041e+02	-2.525776e+01
2.334447e+02	-2.531007e+01
2.347931e+02	-2.535839e+01
2.361493e+02	-2.541282e+01
2.375133e+02	-2.545697e+01
2.388851e+02	-2.550904e+01
2.402649e+02	-2.556207e+01
2.416527e+02	-2.560742e+01
2.430484e+02	-2.566072e+01
2.444523e+02	-2.570846e+01
2.458642e+02	-2.576059e+01
2.472843e+02	-2.580823e+01
2.487126e+02	-2.585802e+01
2.501492e+02	-2.590968e+01
2.515940e+02	-2.596188e+01
2.530472e+02	-2.600864e+01
2.545088e+02	-2.605815e+01
2.559789e+02	-2.610807e+01
2.574574e+02	-2.616131e+01
2.589444e+02	-2.620769e+01
2.604401e+02	-2.625888e+01
2.619444e+02	-2.630844e+01
2.634574e+02	-2.635917e+01
2.649791e+02	-2.641105e+01
2.665096e+02	-2.645986e+01
2.680489e+02	-2.650913e+01
2.695972e+02	-2.655969e+01
2.711544e+02	-2.660579e+01
2.727205e+02	-2.665710e+01
2.742958e+02	-2.671128e+01
2.758801e+02	-2.676045e+01
2.774736e+02	-2.680889e+01
2.790762e+02	-2.685984e+01
2.806882e+02	-2.690846e+01
2.823094e+02	-2.695947e+01
2.839400e+02	-2.701142e+01
2.855800e+02	-2.705903e+01
2.872295e+02	-2.710696e+01
2.888886e+02	-2.716016e+01
2.905572e+02	-2.720546e+01
2.922354e+02	-2.725695e+01
2.939234e+02	-2.731243e+01
2.956211e+02	-2.736099e+01
2.973286e+02	-2.740774e+01
2.990459e+02	-2.745819e+01
3.007732e+02	-2.751072e+01
3.025104e+02	-2.756224e+01
3.042577e+02	-2.761185e+01
3.060151e+02	-2.765981e+01
3.077826e+02	-2.771167e+01
3.095604e+02	-2.775875e+01
3.113484e+02	-2.780986e+01
3.131467e+02	-2.785908e+01
3.149554e+02	-2.790644e+01
3.167746e+02	-2.796088e+01
3.186043e+02	-2.801048e+01
3.204445e+02	-2.806096e+01
3.222954e+02	-2.810927e+01
3.241570e+02	-2.815833e+01
3.260293e+02	-2.820864e+01
3.279124e+02	-2.825875e+01
3.298064e+02	-2.830793e+01
3.317114e+02	-2.836001e+01
3.336273e+02	-2.841096e+01
3.355544e+02	-2.845860e+01
3.374925e+02	-2.850950e+01
3.394418e+02	-2.856007e+01
3.414024e+02	-2.860794e+01
3.433744e+02	-2.866079e+01
3.453577e+02	-2.871281e+01
3.473525e+02	-2.876209e+01
3.493588e+02	-2.880728e+01
3.513766e+02	-2.885894e+01
3.534062e+02	-2.890929e+01
3.554474e+02	-2.896255e+01
3.575005e+02	-2.900527e+01
3.595654e+02	-2.905700e+01
3.616422e+02	-2.910914e+01
3.637311e+02	-2.915842e+01
3.658320e+02	-2.920342e+01
3.679450e+02	-2.925697e+01
3.700702e+02	-2.931102e+01
3.722077e+02	-2.936357e+01
3.743576e+02	-2.940480e+01
3.765199e+02	-2.946043e+01
3.786946e+02	-2.950832e+01
3.808820e+02	-2.956142e+01
3.830819e+02	-2.961208e+01
3.852946e+02	-2.966017e+01
3.875200e+02	-2.970638e+01
3.897583e+02	-2.976160e+01
3.920096e+02	-2.981543e+01
3.942738e+02	-2.985935e+01
3.965511e+02	-2.990904e+01
3.988416e+02	-2.995959e+01
4.011452e+02	-3.001032e+01
4.034622e+02	-3.006288e+01
4.057926e+02	-3.011119e+01
4.081365e+02	-3.016270e+01
4.104938e+02	-3.020821e+01
4.128648e+02	-3.026252e+01
4.152495e+02	-3.031270e+01
4.176480e+02	-3.036027e+01
4.200603e+02	-3.041399e+01
4.224866e+02	-3.046458e+01
4.249268e+02	-3.051313e+01
4.273812e+02	-3.056392e+01
4.298497e+02	-3.060654e+01
4.323325e+02	-3.066494e+01
4.348297e+02	-3.071357e+01
4.373412e+02	-3.076302e+01
4.398673e+02	-3.080980e+01
4.424079e+02	-3.086983e+01
4.449633e+02	-3.091039e+01
4.475334e+02	-3.096397e+01
4.501183e+02	-3.101258e+01
4.527182e+02	-3.106686e+01
4.553330e+02	-3.110997e+01
4.579630e+02	-3.116486e+01
4.606082e+02	-3.121610e+01
4.632687e+02	-3.126378e+01
4.659445e+02	-3.131287e+01
4.686358e+02	-3.136370e+01
4.713426e+02	-3.141753e+01
4.740650e+02	-3.146108e+01
4.768032e+02	-3.151666e+01
4.795572e+02	-3.156682e+01
4.823271e+02	-3.161290e+01
4.851130e+02	-3.166176e+01
4.879150e+02	-3.172187e+01
4.907332e+02	-3.176560e+01
4.935676e+02	-3.182044e+01
4.964185e+02	-3.186494e+01
4.992858e+02	-3.192005e+01
5.021696e+02	-3.196728e+01
5.050701e+02	-3.201558e+01
5.079874e+02	-3.206830e+01
5.109215e+02	-3.211579e+01
5.138726e+02	-3.216850e+01
5.168407e+02	-3.222132e+01
5.198259e+02	-3.227424e+01
5.228284e+02	-3.232372e+01
5.258482e+02	-3.237635e+01
5.288855e+02	-3.242067e+01
5.319403e+02	-3.247682e+01
5.350128e+02	-3.251164e+01
5.381030e+02	-3.257220e+01
5.412111e+02	-3.261687e+01
5.443371e+02	-3.267371e+01
5.474812e+02	-3.272168e+01
5.506434e+02	-3.277446e+01
5.538239e+02	-3.282303e+01
5.570228e+02	-3.287372e+01
5.602401e+02	-3.292070e+01
5.634760e+02	-3.297047e+01
5.667306e+02	-3.302491e+01
5.700040e+02	-3.306910e+01
5.732964e+02	-3.312683e+01
5.766077e+02	-3.316667e+01
5.799382e+02	-3.322378e+01
5.832879e+02	-3.327541e+01
5.866569e+02	-3.331738e+01
5.900454e+02	-3.336993e+01
5.934535e+02	-3.341823e+01
5.968813e+02	-3.347277e+01
6.003288e+02	-3.352525e+01
6.037963e+02	-3.357311e+01
6.072838e+02	-3.363408e+01
6.107914e+02	-3.367910e+01
6.143194e+02	-3.372538e+01
6.178676e+02	-3.377199e+01
6.214364e+02	-3.382132e+01
6.250258e+02	-3.387700e+01
6.286359e+02	-3.392628e+01
6.322669e+02	-3.397494e+01
6.359189e+02	-3.401993e+01
6.395919e+02	-3.408007e+01
6.432862e+02	-3.412170e+01
6.470017e+02	-3.417296e+01
6.507388e+02	-3.422234e+01
6.544974e+02	-3.427487e+01
6.582778e+02	-3.432731e+01
6.620800e+02	-3.437642e+01
6.659041e+02	-3.443215e+01
6.697504e+02	-3.447211e+01
6.736188e+02	-3.453066e+01
6.775096e+02	-3.458544e+01
6.814229e+02	-3.463285e+01
6.853587e+02	-3.467942e+01
6.893173e+02	-3.473218e+01
6.932988e+02	-3.478353e+01
6.973033e+02	-3.483430e+01
7.013309e+02	-3.488360e+01
