Frequency(Hz)	Magnitude(dB)
1.000000e+01	-2.213899e+00
1.005776e+01	-2.233843e+00
1.011585e+01	-2.254058e+00
1.017428e+01	-2.274079e+00
1.023305e+01	-2.294980e+00
1.029215e+01	-2.315317e+00
1.035160e+01	-2.336082e+00
1.041139e+01	-2.356867e+00
1.047153e+01	-2.377846e+00
1.053201e+01	-2.399055e+00
1.059284e+01	-2.420505e+00
1.065403e+01	-2.441939e+00
1.071556e+01	-2.463422e+00
1.077746e+01	-2.485102e+00
1.083971e+01	-2.507255e+00
1.090232e+01	-2.529016e+00
1.096529e+01	-2.551179e+00
1.102862e+01	-2.573451e+00
1.109232e+01	-2.595998e+00
1.115639e+01	-2.618578e+00
1.122083e+01	-2.641222e+00
1.128564e+01	-2.664250e+00
1.135083e+01	-2.687056e+00
1.141639e+01	-2.710224e+00
1.148233e+01	-2.733605e+00
1.154865e+01	-2.757007e+00
1.161536e+01	-2.780482e+00
1.168245e+01	-2.804336e+00
1.174992e+01	-2.828169e+00
1.181779e+01	-2.852176e+00
1.188605e+01	-2.876100e+00
1.195470e+01	-2.900662e+00
1.202375e+01	-2.925165e+00
1.209320e+01	-2.949799e+00
1.216305e+01	-2.974526e+00
1.223330e+01	-2.999278e+00
1.230396e+01	-3.024097e+00
1.237503e+01	-3.049662e+00
1.244651e+01	-3.074876e+00
1.251840e+01	-3.100134e+00
1.259070e+01	-3.125715e+00
1.266343e+01	-3.151317e+00
1.273657e+01	-3.177664e+00
1.281014e+01	-3.203250e+00
1.288413e+01	-3.229526e+00
1.295855e+01	-3.255948e+00
1.303339e+01	-3.282765e+00
1.310867e+01	-3.308831e+00
1.318439e+01	-3.335905e+00
1.326054e+01	-3.362940e+00
1.333713e+01	-3.389710e+00
1.341417e+01	-3.416927e+00
1.349165e+01	-3.444354e+00
1.356958e+01	-3.471702e+00
1.364795e+01	-3.499415e+00
1.372678e+01	-3.526958e+00
1.380607e+01	-3.554977e+00
1.388581e+01	-3.582612e+00
1.396602e+01	-3.611207e+00
1.404668e+01	-3.639533e+00
1.412782e+01	-3.667823e+00
1.420942e+01	-3.696329e+00
1.429149e+01	-3.725475e+00
1.437404e+01	-3.754139e+00
1.445706e+01	-3.783348e+00
1.454057e+01	-3.812231e+00
1.462455e+01	-3.841518e+00
1.470902e+01	-3.870841e+00
1.479398e+01	-3.900973e+00
1.487943e+01	-3.930283e+00
1.496537e+01	-3.960046e+00
1.505181e+01	-3.990005e+00
1.513875e+01	-4.020452e+00
1.522619e+01	-4.050515e+00
1.531414e+01	-4.081153e+00
1.540259e+01	-4.111429e+00
1.549156e+01	-4.142068e+00
1.558103e+01	-4.173204e+00
1.567103e+01	-4.204183e+00
1.576155e+01	-4.235026e+00
1.585258e+01	-4.266121e+00
1.594415e+01	-4.297904e+00
1.603624e+01	-4.329205e+00
1.612886e+01	-4.360896e+00
1.622202e+01	-4.392388e+00
1.631572e+01	-4.424698e+00
1.640996e+01	-4.456383e+00
1.650474e+01	-4.488545e+00
1.660008e+01	-4.520942e+00
1.669596e+01	-4.553200e+00
1.679239e+01	-4.585849e+00
1.688938e+01	-4.618549e+00
1.698694e+01	-4.651300e+00
1.708505e+01	-4.684185e+00
1.718373e+01	-4.717331e+00
1.728299e+01	-4.750941e+00
1.738281e+01	-4.784021e+00
1.748322e+01	-4.817422e+00
1.758420e+01	-4.851382e+00
1.768576e+01	-4.885048e+00
1.778792e+01	-4.918389e+00
1.789066e+01	-4.952574e+00
1.799399e+01	-4.986835e+00
1.809793e+01	-5.020870e+00
1.820246e+01	-5.055043e+00
1.830760e+01	-5.089747e+00
1.841334e+01	-5.124275e+00
1.851969e+01	-5.159055e+00
1.862666e+01	-5.193729e+00
1.873425e+01	-5.228628e+00
1.884246e+01	-5.264137e+00
1.895129e+01	-5.299329e+00
1.906075e+01	-5.334486e+00
1.917085e+01	-5.369770e+00
1.928158e+01	-5.405162e+00
1.939295e+01	-5.441057e+00
1.950496e+01	-5.476876e+00
1.961762e+01	-5.512923e+00
1.973093e+01	-5.549241e+00
1.984490e+01	-5.585383e+00
1.995952e+01	-5.621239e+00
2.007480e+01	-5.657796e+00
2.019076e+01	-5.694184e+00
2.030738e+01	-5.730709e+00
2.042467e+01	-5.767189e+00
2.054264e+01	-5.804176e+00
2.066130e+01	-5.841216e+00
2.078064e+01	-5.878306e+00
2.090066e+01	-5.915307e+00
2.102139e+01	-5.952813e+00
2.114280e+01	-5.990094e+00
2.126492e+01	-6.027481e+00
2.138775e+01	-6.064974e+00
2.151128e+01	-6.102591e+00
2.163553e+01	-6.140662e+00
2.176050e+01	-6.178721e+00
2.188619e+01	-6.216035e+00
2.201260e+01	-6.254804e+00
2.213974e+01	-6.293057e+00
2.226762e+01	-6.331228e+00
2.239624e+01	-6.370081e+00
2.252560e+01	-6.408351e+00
2.265571e+01	-6.446986e+00
2.278656e+01	-6.485668e+00
2.291818e+01	-6.524890e+00
2.305055e+01	-6.563144e+00
2.318369e+01	-6.602435e+00
2.331760e+01	-6.641283e+00
2.345228e+01	-6.680515e+00
2.358774e+01	-6.720172e+00
2.372398e+01	-6.759686e+00
2.386101e+01	-6.799242e+00
2.399883e+01	-6.838551e+00
2.413745e+01	-6.877978e+00
2.427686e+01	-6.918007e+00
2.441709e+01	-6.957845e+00
2.455812e+01	-6.998030e+00
2.469997e+01	-7.037857e+00
2.484263e+01	-7.078517e+00
2.498612e+01	-7.118918e+00
2.513044e+01	-7.158737e+00
2.527559e+01	-7.199354e+00
2.542158e+01	-7.239918e+00
2.556842e+01	-7.280788e+00
2.571610e+01	-7.321094e+00
2.586463e+01	-7.362212e+00
2.601403e+01	-7.403128e+00
2.616428e+01	-7.444000e+00
2.631541e+01	-7.484868e+00
2.646740e+01	-7.526370e+00
2.662028e+01	-7.567391e+00
2.677404e+01	-7.609150e+00
2.692868e+01	-7.650016e+00
2.708422e+01	-7.691754e+00
2.724066e+01	-7.732746e+00
2.739800e+01	-7.774490e+00
2.755625e+01	-7.816241e+00
2.771541e+01	-7.858414e+00
2.787550e+01	-7.900009e+00
2.803650e+01	-7.941450e+00
2.819844e+01	-7.984174e+00
2.836131e+01	-8.025792e+00
2.852513e+01	-8.068565e+00
2.868989e+01	-8.110745e+00
2.885560e+01	-8.152743e+00
2.902227e+01	-8.195283e+00
2.918990e+01	-8.238034e+00
2.935850e+01	-8.280499e+00
2.952807e+01	-8.322860e+00
2.969863e+01	-8.364996e+00
2.987016e+01	-8.408522e+00
3.004269e+01	-8.451461e+00
3.021622e+01	-8.494532e+00
3.039075e+01	-8.537216e+00
3.056628e+01	-8.580227e+00
3.074283e+01	-8.623641e+00
3.092040e+01	-8.666665e+00
3.109900e+01	-8.710394e+00
3.127862e+01	-8.753164e+00
3.145929e+01	-8.796677e+00
3.164099e+01	-8.839901e+00
3.182375e+01	-8.883862e+00
3.200756e+01	-8.927159e+00
3.219244e+01	-8.970534e+00
3.237838e+01	-9.014781e+00
3.256540e+01	-9.058207e+00
3.275349e+01	-9.102038e+00
3.294268e+01	-9.145982e+00
3.313295e+01	-9.190157e+00
3.332433e+01	-9.234212e+00
3.351681e+01	-9.278093e+00
3.371040e+01	-9.322303e+00
3.390511e+01	-9.366868e+00
3.410094e+01	-9.410695e+00
3.429791e+01	-9.454914e+00
3.449601e+01	-9.499281e+00
3.469526e+01	-9.543836e+00
3.489566e+01	-9.588326e+00
3.509721e+01	-9.633165e+00
3.529993e+01	-9.677788e+00
3.550382e+01	-9.722288e+00
3.570889e+01	-9.767274e+00
3.591515e+01	-9.811643e+00
3.612259e+01	-9.856857e+00
3.633123e+01	-9.901731e+00
3.654108e+01	-9.946706e+00
3.675214e+01	-9.991888e+00
3.696442e+01	-1.003656e+01
3.717792e+01	-1.008142e+01
3.739266e+01	-1.012625e+01
3.760864e+01	-1.017174e+01
3.782587e+01	-1.021771e+01
3.804435e+01	-1.026182e+01
3.826409e+01	-1.030823e+01
3.848510e+01	-1.035340e+01
3.870739e+01	-1.039872e+01
3.893096e+01	-1.044411e+01
3.915583e+01	-1.049002e+01
3.938199e+01	-1.053555e+01
3.960946e+01	-1.058114e+01
3.983824e+01	-1.062647e+01
4.006834e+01	-1.067221e+01
4.029978e+01	-1.071817e+01
4.053255e+01	-1.076445e+01
4.076666e+01	-1.080921e+01
4.100213e+01	-1.085566e+01
4.123896e+01	-1.090062e+01
4.147715e+01	-1.094733e+01
4.171672e+01	-1.099375e+01
4.195767e+01	-1.103967e+01
4.220002e+01	-1.108611e+01
4.244377e+01	-1.113150e+01
4.268892e+01	-1.117784e+01
4.293549e+01	-1.122445e+01
4.318348e+01	-1.127045e+01
4.343291e+01	-1.131760e+01
4.368377e+01	-1.136305e+01
4.393609e+01	-1.140914e+01
4.418986e+01	-1.145612e+01
4.444510e+01	-1.150262e+01
4.470182e+01	-1.154942e+01
4.496001e+01	-1.159507e+01
4.521970e+01	-1.164212e+01
4.548089e+01	-1.168833e+01
4.574358e+01	-1.173573e+01
4.600779e+01	-1.178263e+01
4.627353e+01	-1.182866e+01
4.654081e+01	-1.187626e+01
4.680963e+01	-1.192212e+01
4.708000e+01	-1.196848e+01
4.735193e+01	-1.201557e+01
4.762543e+01	-1.206300e+01
4.790051e+01	-1.210939e+01
4.817719e+01	-1.215651e+01
4.845545e+01	-1.220362e+01
4.873533e+01	-1.225152e+01
4.901682e+01	-1.229790e+01
4.929994e+01	-1.234531e+01
4.958470e+01	-1.239226e+01
4.987110e+01	-1.243932e+01
5.015915e+01	-1.248653e+01
5.044887e+01	-1.253429e+01
5.074026e+01	-1.258106e+01
5.103333e+01	-1.262794e+01
5.132810e+01	-1.267539e+01
5.162457e+01	-1.272296e+01
5.192275e+01	-1.277041e+01
5.222265e+01	-1.281805e+01
5.252429e+01	-1.286518e+01
5.282767e+01	-1.291276e+01
5.313280e+01	-1.295990e+01
5.343969e+01	-1.300806e+01
5.374836e+01	-1.305515e+01
5.405880e+01	-1.310248e+01
5.437105e+01	-1.315067e+01
5.468509e+01	-1.319765e+01
5.500095e+01	-1.324554e+01
5.531863e+01	-1.329327e+01
5.563815e+01	-1.334073e+01
5.595951e+01	-1.338884e+01
5.628273e+01	-1.343677e+01
5.660782e+01	-1.348382e+01
5.693479e+01	-1.353093e+01
5.726364e+01	-1.357905e+01
5.759439e+01	-1.362707e+01
5.792705e+01	-1.367530e+01
5.826164e+01	-1.372379e+01
5.859815e+01	-1.377102e+01
5.893662e+01	-1.381914e+01
5.927703e+01	-1.386739e+01
5.961941e+01	-1.391512e+01
5.996377e+01	-1.396298e+01
6.031012e+01	-1.401098e+01
6.065847e+01	-1.405909e+01
6.100883e+01	-1.410636e+01
6.136121e+01	-1.415560e+01
6.171563e+01	-1.420313e+01
6.207210e+01	-1.425095e+01
6.243063e+01	-1.429949e+01
6.279122e+01	-1.434770e+01
6.315390e+01	-1.439636e+01
6.351868e+01	-1.444460e+01
6.388556e+01	-1.449217e+01
6.425456e+01	-1.454045e+01
6.462569e+01	-1.458842e+01
6.499897e+01	-1.463737e+01
6.537440e+01	-1.468605e+01
6.575200e+01	-1.473418e+01
6.613178e+01	-1.478219e+01
6.651375e+01	-1.483010e+01
6.689793e+01	-1.487939e+01
6.728433e+01	-1.492736e+01
6.767297e+01	-1.497587e+01
6.806384e+01	-1.502501e+01
6.845698e+01	-1.507349e+01
6.885238e+01	-1.512204e+01
6.925007e+01	-1.516980e+01
6.965005e+01	-1.521903e+01
7.005235e+01	-1.526731e+01
7.045697e+01	-1.531563e+01
7.086393e+01	-1.536361e+01
7.127323e+01	-1.541315e+01
7.168490e+01	-1.546107e+01
7.209895e+01	-1.550987e+01
7.251539e+01	-1.555810e+01
7.293424e+01	-1.560810e+01
7.335551e+01	-1.565630e+01
7.377920e+01	-1.570399e+01
7.420535e+01	-1.575309e+01
7.463396e+01	-1.580227e+01
7.506504e+01	-1.584987e+01
7.549861e+01	-1.589928e+01
7.593469e+01	-1.594669e+01
7.637328e+01	-1.599723e+01
7.681441e+01	-1.604605e+01
7.725809e+01	-1.609467e+01
7.770433e+01	-1.614426e+01
7.815315e+01	-1.619197e+01
7.860456e+01	-1.624114e+01
7.905857e+01	-1.628997e+01
7.951521e+01	-1.633773e+01
7.997449e+01	-1.638801e+01
8.043642e+01	-1.643767e+01
8.090102e+01	-1.648651e+01
8.136830e+01	-1.653390e+01
8.183828e+01	-1.658351e+01
8.231097e+01	-1.663302e+01
8.278640e+01	-1.668011e+01
8.326457e+01	-1.673054e+01
8.374550e+01	-1.677818e+01
8.422921e+01	-1.682824e+01
8.471572e+01	-1.687756e+01
8.520503e+01	-1.692477e+01
8.569717e+01	-1.697511e+01
8.619215e+01	-1.702453e+01
8.669000e+01	-1.707392e+01
8.719071e+01	-1.712320e+01
8.769432e+01	-1.717116e+01
8.820084e+01	-1.722010e+01
8.871029e+01	-1.727054e+01
8.922267e+01	-1.731830e+01
8.973802e+01	-1.736837e+01
9.025634e+01	-1.741793e+01
9.077766e+01	-1.746498e+01
9.130199e+01	-1.751396e+01
9.182935e+01	-1.756470e+01
9.235975e+01	-1.761290e+01
9.289321e+01	-1.766266e+01
9.342976e+01	-1.771101e+01
9.396941e+01	-1.776061e+01
9.451217e+01	-1.781109e+01
9.505807e+01	-1.785924e+01
9.560712e+01	-1.790869e+01
9.615934e+01	-1.795680e+01
9.671476e+01	-1.800771e+01
9.727338e+01	-1.805619e+01
9.783522e+01	-1.810414e+01
9.840032e+01	-1.815453e+01
9.896867e+01	-1.820305e+01
9.954031e+01	-1.825420e+01
1.001153e+02	-1.830220e+01
1.006935e+02	-1.835233e+01
1.012751e+02	-1.840003e+01
1.018601e+02	-1.845054e+01
1.024484e+02	-1.849979e+01
1.030402e+02	-1.854954e+01
1.036353e+02	-1.859802e+01
1.042339e+02	-1.864706e+01
1.048360e+02	-1.869784e+01
1.054415e+02	-1.874746e+01
1.060505e+02	-1.879602e+01
1.066631e+02	-1.884510e+01
1.072791e+02	-1.889565e+01
1.078988e+02	-1.894289e+01
1.085220e+02	-1.899262e+01
1.091488e+02	-1.904393e+01
1.097793e+02	-1.909318e+01
1.104133e+02	-1.914177e+01
1.110511e+02	-1.919101e+01
1.116925e+02	-1.924227e+01
1.123376e+02	-1.929001e+01
1.129865e+02	-1.933962e+01
1.136391e+02	-1.938893e+01
1.142955e+02	-1.943875e+01
1.149556e+02	-1.948847e+01
1.156196e+02	-1.953703e+01
1.162874e+02	-1.958715e+01
1.169591e+02	-1.963538e+01
1.176347e+02	-1.968590e+01
1.183141e+02	-1.973635e+01
1.189975e+02	-1.978563e+01
1.196848e+02	-1.983341e+01
1.203761e+02	-1.988485e+01
1.210714e+02	-1.993341e+01
1.217707e+02	-1.998297e+01
1.224740e+02	-2.003262e+01
1.231814e+02	-2.008318e+01
1.238929e+02	-2.012969e+01
1.246085e+02	-2.018115e+01
1.253283e+02	-2.023133e+01
1.260522e+02	-2.027892e+01
1.267802e+02	-2.033104e+01
1.275125e+02	-2.037847e+01
1.282490e+02	-2.042876e+01
1.289898e+02	-2.047931e+01
1.297348e+02	-2.052600e+01
1.304842e+02	-2.057617e+01
1.312378e+02	-2.062618e+01
1.319959e+02	-2.067476e+01
1.327583e+02	-2.072644e+01
1.335251e+02	-2.077766e+01
1.342963e+02	-2.082570e+01
1.350720e+02	-2.087614e+01
1.358522e+02	-2.092448e+01
1.366368e+02	-2.097397e+01
1.374260e+02	-2.102532e+01
1.382198e+02	-2.107386e+01
1.390182e+02	-2.112380e+01
1.398211e+02	-2.117375e+01
1.406287e+02	-2.122542e+01
1.414410e+02	-2.127232e+01
1.422579e+02	-2.132270e+01
1.430796e+02	-2.136976e+01
1.439060e+02	-2.142107e+01
1.447372e+02	-2.147181e+01
1.455732e+02	-2.152119e+01
1.464141e+02	-2.157184e+01
1.472597e+02	-2.162025e+01
1.481103e+02	-2.166780e+01
1.489658e+02	-2.172081e+01
1.498262e+02	-2.177103e+01
1.506916e+02	-2.181879e+01
1.515620e+02	-2.186950e+01
1.524374e+02	-2.191871e+01
1.533179e+02	-2.196629e+01
1.542034e+02	-2.201974e+01
1.550941e+02	-2.206815e+01
1.559899e+02	-2.211824e+01
1.568909e+02	-2.216840e+01
1.577971e+02	-2.221976e+01
1.587085e+02	-2.226707e+01
1.596252e+02	-2.231420e+01
1.605472e+02	-2.236770e+01
1.614745e+02	-2.241458e+01
1.624072e+02	-2.246604e+01
1.633453e+02	-2.251492e+01
1.642887e+02	-2.256425e+01
1.652377e+02	-2.261690e+01
1.661921e+02	-2.266583e+01
1.671520e+02	-2.271567e+01
1.681175e+02	-2.276393e+01
1.690885e+02	-2.281338e+01
1.700651e+02	-2.286347e+01
1.710474e+02	-2.291467e+01
1.720354e+02	-2.296269e+01
1.730291e+02	-2.301121e+01
1.740285e+02	-2.306361e+01
1.750337e+02	-2.311425e+01
1.760446e+02	-2.316445e+01
1.770615e+02	-2.321399e+01
1.780842e+02	-2.326600e+01
1.791128e+02	-2.331079e+01
1.801473e+02	-2.336193e+01
1.811878e+02	-2.341278e+01
1.822344e+02	-2.346286e+01
1.832870e+02	-2.351345e+01
1.843456e+02	-2.356141e+01
1.854104e+02	-2.361143e+01
1.864813e+02	-2.366194e+01
1.875584e+02	-2.371275e+01
1.886418e+02	-2.376104e+01
1.897313e+02	-2.381171e+01
1.908272e+02	-2.385904e+01
1.919294e+02	-2.390908e+01
1.930380e+02	-2.395890e+01
1.941530e+02	-2.401313e+01
1.952744e+02	-2.405800e+01
1.964023e+02	-2.411018e+01
1.975367e+02	-2.416006e+01
1.986777e+02	-2.420961e+01
1.998252e+02	-2.425972e+01
2.009794e+02	-2.430808e+01
2.021403e+02	-2.435996e+01
2.033078e+02	-2.440892e+01
2.044821e+02	-2.445912e+01
2.056632e+02	-2.450899e+01
2.068511e+02	-2.455768e+01
2.080459e+02	-2.461139e+01
2.092475e+02	-2.465965e+01
2.104561e+02	-2.470799e+01
2.116717e+02	-2.475947e+01
2.128943e+02	-2.480770e+01
2.141240e+02	-2.485695e+01
2.153608e+02	-2.490748e+01
2.166047e+02	-2.495810e+01
2.178558e+02	-2.500522e+01
2.191141e+02	-2.505794e+01
2.203797e+02	-2.510727e+01
2.216526e+02	-2.515812e+01
2.229329e+02	-2.520883e+01
2.242205e+02	-2.525683e+01
2.255156e+02	-2.530695e+01
2.268182e+02	-2.535789e+01
2.281283e+02	-2.540700e+01
2.294459e+02	-2.545770e+01
2.307712e+02	-2.550917e+01
2.321041e+02	-2.555475e+01
2.334447e+02	-2.560689e+01
2.347931e+02	-2.566006e+01
2.361493e+02	-2.570842e+01
2.375133e+02	-2.575496e+01
2.388851e+02	-2.580662e+01
2.402649e+02	-2.585722e+01
2.416527e+02	-2.590694e+01
2.430484e+02	-2.595851e+01
2.444523e+02	-2.600708e+01
2.458642e+02	-2.605692e+01
2.472843e+02	-2.610528e+01
2.487126e+02	-2.615480e+01
2.501492e+02	-2.620689e+01
2.515940e+02	-2.625674e+01
2.530472e+02	-2.630539e+01
2.545088e+02	-2.635785e+01
2.559789e+02	-2.640604e+01
2.574574e+02	-2.645717e+01
2.589444e+02	-2.650504e+01
2.604401e+02	-2.655456e+01
2.619444e+02	-2.660701e+01
2.634574e+02	-2.665402e+01
2.649791e+02	-2.670554e+01
2.665096e+02	-2.675863e+01
2.680489e+02	-2.680885e+01
2.695972e+02	-2.685694e+01
2.711544e+02	-2.690474e+01
2.727205e+02	-2.695518e+01
2.742958e+02	-2.700441e+01
2.758801e+02	-2.705509e+01
2.774736e+02	-2.710590e+01
2.790762e+02	-2.715816e+01
2.806882e+02	-2.720663e+01
2.823094e+02	-2.725379e+01
2.839400e+02	-2.730485e+01
2.855800e+02	-2.736022e+01
2.872295e+02	-2.740554e+01
2.888886e+02	-2.745760e+01
2.905572e+02	-2.750475e+01
2.922354e+02	-2.755505e+01
2.939234e+02	-2.760867e+01
2.956211e+02	-2.765434e+01
2.973286e+02	-2.770973e+01
2.990459e+02	-2.775526e+01
3.007732e+02	-2.780336e+01
3.025104e+02	-2.785742e+01
3.042577e+02	-2.790436e+01
3.060151e+02	-2.796016e+01
3.077826e+02	-2.800711e+01
3.095604e+02	-2.805633e+01
3.113484e+02	-2.810406e+01
3.131467e+02	-2.815912e+01
3.149554e+02	-2.820788e+01
3.167746e+02	-2.825571e+01
3.186043e+02	-2.830763e+01
3.204445e+02	-2.835710e+01
3.222954e+02	-2.840547e+01
3.241570e+02	-2.845792e+01
3.260293e+02	-2.850573e+01
3.279124e+02	-2.855618e+01
3.298064e+02	-2.860974e+01
3.317114e+02	-2.865838e+01
3.336273e+02	-2.871172e+01
3.355544e+02	-2.875689e+01
3.374925e+02	-2.880559e+01
3.394418e+02	-2.886107e+01
3.414024e+02	-2.890719e+01
3.433744e+02	-2.895935e+01
3.453577e+02	-2.900642e+01
3.473525e+02	-2.906072e+01
3.493588e+02	-2.910678e+01
3.513766e+02	-2.915773e+01
3.534062e+02	-2.920896e+01
3.554474e+02	-2.925980e+01
3.575005e+02	-2.930600e+01
3.595654e+02	-2.935776e+01
3.616422e+02	-2.940638e+01
3.637311e+02	-2.945669e+01
3.658320e+02	-2.950745e+01
3.679450e+02	-2.955905e+01
3.700702e+02	-2.960843e+01
3.722077e+02	-2.966072e+01
3.743576e+02	-2.970441e+01
3.765199e+02	-2.975984e+01
3.786946e+02	-2.980917e+01
3.808820e+02	-2.986170e+01
3.830819e+02	-2.990509e+01
3.852946e+02	-2.996210e+01
3.875200e+02	-3.000800e+01
3.897583e+02	-3.005702e+01
3.920096e+02	-3.010760e+01
3.942738e+02	-3.016294e+01
3.965511e+02	-3.021186e+01
3.988416e+02	-3.025807e+01
4.011452e+02	-3.030948e+01
4.034622e+02	-3.035976e+01
4.057926e+02	-3.040964e+01
4.081365e+02	-3.045482e+01
4.104938e+02	-3.051369e+01
4.128648e+02	-3.055894e+01
4.152495e+02	-3.060865e+01
4.176480e+02	-3.065879e+01
4.200603e+02	-3.071006e+01
4.224866e+02	-3.076676e+01
4.249268e+02	-3.080831e+01
4.273812e+02	-3.086168e+01
4.298497e+02	-3.090731e+01
4.323325e+02	-3.095729e+01
4.348297e+02	-3.101023e+01
4.373412e+02	-3.105624e+01
4.398673e+02	-3.111024e+01
4.424079e+02	-3.116044e+01
4.449633e+02	-3.121033e+01
4.475334e+02	-3.126085e+01
4.501183e+02	-3.131226e+01
4.527182e+02	-3.135870e+01
4.553330e+02	-3.140838e+01
4.579630e+02	-3.146059e+01
4.606082e+02	-3.151455e+01
4.632687e+02	-3.156060e+01
4.659445e+02	-3.161593e+01
4.686358e+02	-3.167085e+01
4.713426e+02	-3.170982e+01
4.740650e+02	-3.176670e+01
4.768032e+02	-3.181607e+01
4.795572e+02	-3.186015e+01
4.823271e+02	-3.191552e+01
4.851130e+02	-3.196820e+01
4.879150e+02	-3.201752e+01
4.907332e+02	-3.206096e+01
4.935676e+02	-3.211696e+01
4.964185e+02	-3.216611e+01
4.992858e+02	-3.221916e+01
5.021696e+02	-3.226814e+01
5.050701e+02	-3.231556e+01
5.079874e+02	-3.236819e+01
5.109215e+02	-3.242078e+01
5.138726e+02	-3.246545e+01
5.168407e+02	-3.251259e+01
5.198259e+02	-3.256221e+01
5.228284e+02	-3.261308e+01
5.258482e+02	-3.266558e+01
5.288855e+02	-3.271590e+01
5.319403e+02	-3.277344e+01
5.350128e+02	-3.282271e+01
5.381030e+02	-3.286460e+01
5.412111e+02	-3.291883e+01
5.443371e+02	-3.297044e+01
5.474812e+02	-3.301886e+01
5.506434e+02	-3.306469e+01
5.538239e+02	-3.311829e+01
5.570228e+02	-3.317018e+01
5.602401e+02	-3.321577e+01
5.634760e+02	-3.327303e+01
5.667306e+02	-3.331812e+01
5.700040e+02	-3.337163e+01
5.732964e+02	-3.341881e+01
5.766077e+02	-3.347325e+01
5.799382e+02	-3.351858e+01
5.832879e+02	-3.357295e+01
5.866569e+02	-3.362450e+01
5.900454e+02	-3.367419e+01
5.934535e+02	-3.372530e+01
5.968813e+02	-3.377495e+01
6.003288e+02	-3.382567e+01
6.037963e+02	-3.386818e+01
6.072838e+02	-3.392119e+01
6.107914e+02	-3.397958e+01
6.143194e+02	-3.403022e+01
6.178676e+02	-3.407557e+01
6.214364e+02	-3.412770e+01
6.250258e+02	-3.417574e+01
6.286359e+02	-3.422485e+01
6.322669e+02	-3.427279e+01
6.359189e+02	-3.432553e+01
6.395919e+02	-3.437167e+01
6.432862e+02	-3.443550e+01
6.470017e+02	-3.447675e+01
6.507388e+02	-3.453022e+01
6.544974e+02	-3.458178e+01
6.582778e+02	-3.463538e+01
6.620800e+02	-3.467948e+01
6.659041e+02	-3.473327e+01
6.697504e+02	-3.478554e+01
6.736188e+02	-3.483211e+01
6.775096e+02	-3.488873e+01
6.814229e+02	-3.492875e+01
6.853587e+02	-3.498821e+01
6.893173e+02	-3.503480e+01
6.932988e+02	-3.508150e+01
6.973033e+02	-3.513483e+01
7.013309e+02	-3.518448e+01
