Frequency(Hz)	Magnitude(dB)
1.000000e+01	-2.113730e+00
1.005776e+01	-2.133031e+00
1.011585e+01	-2.152581e+00
1.017428e+01	-2.172099e+00
1.023305e+01	-2.191936e+00
1.029215e+01	-2.211870e+00
1.035160e+01	-2.231803e+00
1.041139e+01	-2.252156e+00
1.047153e+01	-2.272552e+00
1.053201e+01	-2.292914e+00
1.059284e+01	-2.313479e+00
1.065403e+01	-2.334019e+00
1.071556e+01	-2.355266e+00
1.077746e+01	-2.376100e+00
1.083971e+01	-2.397428e+00
1.090232e+01	-2.418572e+00
1.096529e+01	-2.439919e+00
1.102862e+01	-2.461616e+00
1.109232e+01	-2.483342e+00
1.115639e+01	-2.505048e+00
1.122083e+01	-2.527114e+00
1.128564e+01	-2.549144e+00
1.135083e+01	-2.571655e+00
1.141639e+01	-2.594013e+00
1.148233e+01	-2.616631e+00
1.154865e+01	-2.639170e+00
1.161536e+01	-2.662182e+00
1.168245e+01	-2.685127e+00
1.174992e+01	-2.708268e+00
1.181779e+01	-2.731534e+00
1.188605e+01	-2.754914e+00
1.195470e+01	-2.778464e+00
1.202375e+01	-2.802223e+00
1.209320e+01	-2.825948e+00
1.216305e+01	-2.850169e+00
1.223330e+01	-2.874223e+00
1.230396e+01	-2.898681e+00
1.237503e+01	-2.922985e+00
1.244651e+01	-2.947561e+00
1.251840e+01	-2.972233e+00
1.259070e+01	-2.997091e+00
1.266343e+01	-3.022050e+00
1.273657e+01	-3.047106e+00
1.281014e+01	-3.072408e+00
1.288413e+01	-3.097908e+00
1.295855e+01	-3.123687e+00
1.303339e+01	-3.149066e+00
1.310867e+01	-3.175140e+00
1.318439e+01	-3.201041e+00
1.326054e+01	-3.227438e+00
1.333713e+01	-3.253625e+00
1.341417e+01	-3.280241e+00
1.349165e+01	-3.306586e+00
1.356958e+01	-3.333506e+00
1.364795e+01	-3.360128e+00
1.372678e+01	-3.387213e+00
1.380607e+01	-3.414517e+00
1.388581e+01	-3.441663e+00
1.396602e+01	-3.469075e+00
1.404668e+01	-3.496832e+00
1.412782e+01	-3.524691e+00
1.420942e+01	-3.552255e+00
1.429149e+01	-3.580682e+00
1.437404e+01	-3.608689e+00
1.445706e+01	-3.637083e+00
1.454057e+01	-3.665404e+00
1.462455e+01	-3.694253e+00
1.470902e+01	-3.722569e+00
1.479398e+01	-3.751616e+00
1.487943e+01	-3.780681e+00
1.496537e+01	-3.809818e+00
1.505181e+01	-3.838983e+00
1.513875e+01	-3.868606e+00
1.522619e+01	-3.898039e+00
1.531414e+01	-3.927575e+00
1.540259e+01	-3.957391e+00
1.549156e+01	-3.987506e+00
1.558103e+01	-4.017664e+00
1.567103e+01	-4.047971e+00
1.576155e+01	-4.078553e+00
1.585258e+01	-4.109019e+00
1.594415e+01	-4.139493e+00
1.603624e+01	-4.169871e+00
1.612886e+01	-4.201248e+00
1.622202e+01	-4.232528e+00
1.631572e+01	-4.263462e+00
1.640996e+01	-4.294711e+00
1.650474e+01	-4.326399e+00
1.660008e+01	-4.358038e+00
1.669596e+01	-4.389476e+00
1.679239e+01	-4.421877e+00
1.688938e+01	-4.453875e+00
1.698694e+01	-4.485918e+00
1.708505e+01	-4.518075e+00
1.718373e+01	-4.550709e+00
1.728299e+01	-4.582907e+00
1.738281e+01	-4.615795e+00
1.748322e+01	-4.648547e+00
1.758420e+01	-4.681365e+00
1.768576e+01	-4.714604e+00
1.778792e+01	-4.747712e+00
1.789066e+01	-4.781016e+00
1.799399e+01	-4.814526e+00
1.809793e+01	-4.847652e+00
1.820246e+01	-4.882039e+00
1.830760e+01	-4.915406e+00
1.841334e+01	-4.949621e+00
1.851969e+01	-4.983719e+00
1.862666e+01	-5.017749e+00
1.873425e+01	-5.052206e+00
1.884246e+01	-5.086695e+00
1.895129e+01	-5.121431e+00
1.906075e+01	-5.156082e+00
1.917085e+01	-5.190580e+00
1.928158e+01	-5.225824e+00
1.939295e+01	-5.260877e+00
1.950496e+01	-5.296016e+00
1.961762e+01	-5.331111e+00
1.973093e+01	-5.366373e+00
1.984490e+01	-5.402294e+00
1.995952e+01	-5.437964e+00
2.007480e+01	-5.473594e+00
2.019076e+01	-5.509656e+00
2.030738e+01	-5.545606e+00
2.042467e+01	-5.581738e+00
2.054264e+01	-5.617839e+00
2.066130e+01	-5.654433e+00
2.078064e+01	-5.690756e+00
2.090066e+01	-5.727260e+00
2.102139e+01	-5.764289e+00
2.114280e+01	-5.800778e+00
2.126492e+01	-5.838072e+00
2.138775e+01	-5.875076e+00
2.151128e+01	-5.912250e+00
2.163553e+01	-5.949212e+00
2.176050e+01	-5.986900e+00
2.188619e+01	-6.023957e+00
2.201260e+01	-6.061620e+00
2.213974e+01	-6.099195e+00
2.226762e+01	-6.137283e+00
2.239624e+01	-6.175512e+00
2.252560e+01	-6.213251e+00
2.265571e+01	-6.251230e+00
2.278656e+01	-6.289474e+00
2.291818e+01	-6.327676e+00
2.305055e+01	-6.366354e+00
2.318369e+01	-6.404902e+00
2.331760e+01	-6.443341e+00
2.345228e+01	-6.482102e+00
2.358774e+01	-6.521082e+00
2.372398e+01	-6.559815e+00
2.386101e+01	-6.598911e+00
2.399883e+01	-6.638187e+00
2.413745e+01	-6.677323e+00
2.427686e+01	-6.716638e+00
2.441709e+01	-6.756097e+00
2.455812e+01	-6.795535e+00
2.469997e+01	-6.834790e+00
2.484263e+01	-6.874719e+00
2.498612e+01	-6.914656e+00
2.513044e+01	-6.954246e+00
2.527559e+01	-6.994507e+00
2.542158e+01	-7.034794e+00
2.556842e+01	-7.074706e+00
2.571610e+01	-7.115164e+00
2.586463e+01	-7.155491e+00
2.601403e+01	-7.195797e+00
2.616428e+01	-7.236188e+00
2.631541e+01	-7.276956e+00
2.646740e+01	-7.317796e+00
2.662028e+01	-7.358044e+00
2.677404e+01	-7.398998e+00
2.692868e+01	-7.440447e+00
2.708422e+01	-7.481319e+00
2.724066e+01	-7.522344e+00
2.739800e+01	-7.563565e+00
2.755625e+01	-7.604925e+00
2.771541e+01	-7.646658e+00
2.787550e+01	-7.687878e+00
2.803650e+01	-7.729247e+00
2.819844e+01	-7.771188e+00
2.836131e+01	-7.812637e+00
2.852513e+01	-7.855084e+00
2.868989e+01	-7.896442e+00
2.885560e+01	-7.938163e+00
2.902227e+01	-7.980030e+00
2.918990e+01	-8.022374e+00
2.935850e+01	-8.064336e+00
2.952807e+01	-8.106764e+00
2.969863e+01	-8.149198e+00
2.987016e+01	-8.191796e+00
3.004269e+01	-8.234051e+00
3.021622e+01	-8.276732e+00
3.039075e+01	-8.318693e+00
3.056628e+01	-8.362553e+00
3.074283e+01	-8.405545e+00
3.092040e+01	-8.447387e+00
3.109900e+01	-8.490681e+00
3.127862e+01	-8.533846e+00
3.145929e+01	-8.576549e+00
3.164099e+01	-8.619563e+00
3.182375e+01	-8.662897e+00
3.200756e+01	-8.706107e+00
3.219244e+01	-8.748978e+00
3.237838e+01	-8.792779e+00
3.256540e+01	-8.836284e+00
3.275349e+01	-8.879541e+00
3.294268e+01	-8.923093e+00
3.313295e+01	-8.966892e+00
3.332433e+01	-9.011158e+00
3.351681e+01	-9.054687e+00
3.371040e+01	-9.098388e+00
3.390511e+01	-9.142057e+00
3.410094e+01	-9.186030e+00
3.429791e+01	-9.230097e+00
3.449601e+01	-9.274295e+00
3.469526e+01	-9.318246e+00
3.489566e+01	-9.362771e+00
3.509721e+01	-9.406593e+00
3.529993e+01	-9.451386e+00
3.550382e+01	-9.495449e+00
3.570889e+01	-9.540286e+00
3.591515e+01	-9.584479e+00
3.612259e+01	-9.628744e+00
3.633123e+01	-9.673488e+00
3.654108e+01	-9.718117e+00
3.675214e+01	-9.763032e+00
3.696442e+01	-9.808063e+00
3.717792e+01	-9.852409e+00
3.739266e+01	-9.896780e+00
3.760864e+01	-9.942458e+00
3.782587e+01	-9.986723e+00
3.804435e+01	-1.003242e+01
3.826409e+01	-1.007746e+01
3.848510e+01	-1.012274e+01
3.870739e+01	-1.016802e+01
3.893096e+01	-1.021258e+01
3.915583e+01	-1.025798e+01
3.938199e+01	-1.030368e+01
3.960946e+01	-1.034910e+01
3.983824e+01	-1.039433e+01
4.006834e+01	-1.044058e+01
4.029978e+01	-1.048500e+01
4.053255e+01	-1.053131e+01
4.076666e+01	-1.057647e+01
4.100213e+01	-1.062217e+01
4.123896e+01	-1.066802e+01
4.147715e+01	-1.071373e+01
4.171672e+01	-1.075916e+01
4.195767e+01	-1.080555e+01
4.220002e+01	-1.085118e+01
4.244377e+01	-1.089760e+01
4.268892e+01	-1.094303e+01
4.293549e+01	-1.098892e+01
4.318348e+01	-1.103586e+01
4.343291e+01	-1.108099e+01
4.368377e+01	-1.112770e+01
4.393609e+01	-1.117363e+01
4.418986e+01	-1.122021e+01
4.444510e+01	-1.126669e+01
4.470182e+01	-1.131278e+01
4.496001e+01	-1.135962e+01
4.521970e+01	-1.140498e+01
4.548089e+01	-1.145204e+01
4.574358e+01	-1.149810e+01
4.600779e+01	-1.154472e+01
4.627353e+01	-1.159174e+01
4.654081e+01	-1.163772e+01
4.680963e+01	-1.168514e+01
4.708000e+01	-1.173095e+01
4.735193e+01	-1.177772e+01
4.762543e+01	-1.182438e+01
4.790051e+01	-1.187139e+01
4.817719e+01	-1.191757e+01
4.845545e+01	-1.196488e+01
4.873533e+01	-1.201164e+01
4.901682e+01	-1.205906e+01
4.929994e+01	-1.210576e+01
4.958470e+01	-1.215293e+01
4.987110e+01	-1.219966e+01
5.015915e+01	-1.224676e+01
5.044887e+01	-1.229387e+01
5.074026e+01	-1.234082e+01
5.103333e+01	-1.238822e+01
5.132810e+01	-1.243495e+01
5.162457e+01	-1.248212e+01
5.192275e+01	-1.252996e+01
5.222265e+01	-1.257606e+01
5.252429e+01	-1.262405e+01
5.282767e+01	-1.267112e+01
5.313280e+01	-1.271848e+01
5.343969e+01	-1.276682e+01
5.374836e+01	-1.281402e+01
5.405880e+01	-1.286149e+01
5.437105e+01	-1.290902e+01
5.468509e+01	-1.295614e+01
5.500095e+01	-1.300395e+01
5.531863e+01	-1.305001e+01
5.563815e+01	-1.309839e+01
5.595951e+01	-1.314582e+01
5.628273e+01	-1.319384e+01
5.660782e+01	-1.324129e+01
5.693479e+01	-1.328842e+01
5.726364e+01	-1.333657e+01
5.759439e+01	-1.338414e+01
5.792705e+01	-1.343190e+01
5.826164e+01	-1.347995e+01
5.859815e+01	-1.352749e+01
5.893662e+01	-1.357591e+01
5.927703e+01	-1.362387e+01
5.961941e+01	-1.367187e+01
5.996377e+01	-1.371862e+01
6.031012e+01	-1.376715e+01
6.065847e+01	-1.381438e+01
6.100883e+01	-1.386337e+01
6.136121e+01	-1.391032e+01
6.171563e+01	-1.395878e+01
6.207210e+01	-1.400722e+01
6.243063e+01	-1.405513e+01
6.279122e+01	-1.410303e+01
6.315390e+01	-1.415073e+01
6.351868e+01	-1.419919e+01
6.388556e+01	-1.424730e+01
6.425456e+01	-1.429499e+01
6.462569e+01	-1.434306e+01
6.499897e+01	-1.439218e+01
6.537440e+01	-1.444011e+01
6.575200e+01	-1.448796e+01
6.613178e+01	-1.453608e+01
6.651375e+01	-1.458481e+01
6.689793e+01	-1.463378e+01
6.728433e+01	-1.468137e+01
6.767297e+01	-1.473035e+01
6.806384e+01	-1.477786e+01
6.845698e+01	-1.482658e+01
6.885238e+01	-1.487443e+01
6.925007e+01	-1.492391e+01
6.965005e+01	-1.497145e+01
7.005235e+01	-1.502086e+01
7.045697e+01	-1.506911e+01
7.086393e+01	-1.511770e+01
7.127323e+01	-1.516556e+01
7.168490e+01	-1.521472e+01
7.209895e+01	-1.526270e+01
7.251539e+01	-1.531129e+01
7.293424e+01	-1.535995e+01
7.335551e+01	-1.540793e+01
7.377920e+01	-1.545798e+01
7.420535e+01	-1.550551e+01
7.463396e+01	-1.555413e+01
7.506504e+01	-1.560286e+01
7.549861e+01	-1.565262e+01
7.593469e+01	-1.570079e+01
7.637328e+01	-1.574914e+01
7.681441e+01	-1.579775e+01
7.725809e+01	-1.584638e+01
7.770433e+01	-1.589433e+01
7.815315e+01	-1.594246e+01
7.860456e+01	-1.599253e+01
7.905857e+01	-1.604187e+01
7.951521e+01	-1.609009e+01
7.997449e+01	-1.613920e+01
8.043642e+01	-1.618808e+01
8.090102e+01	-1.623684e+01
8.136830e+01	-1.628442e+01
8.183828e+01	-1.633444e+01
8.231097e+01	-1.638269e+01
8.278640e+01	-1.643213e+01
8.326457e+01	-1.648150e+01
8.374550e+01	-1.653024e+01
8.422921e+01	-1.657819e+01
8.471572e+01	-1.662842e+01
8.520503e+01	-1.667662e+01
8.569717e+01	-1.672589e+01
8.619215e+01	-1.677369e+01
8.669000e+01	-1.682368e+01
8.719071e+01	-1.687207e+01
8.769432e+01	-1.692211e+01
8.820084e+01	-1.697035e+01
8.871029e+01	-1.701944e+01
8.922267e+01	-1.706863e+01
8.973802e+01	-1.711748e+01
9.025634e+01	-1.716737e+01
9.077766e+01	-1.721476e+01
9.130199e+01	-1.726642e+01
9.182935e+01	-1.731286e+01
9.235975e+01	-1.736312e+01
9.289321e+01	-1.741225e+01
9.342976e+01	-1.746159e+01
9.396941e+01	-1.751049e+01
9.451217e+01	-1.755987e+01
9.505807e+01	-1.760841e+01
9.560712e+01	-1.765859e+01
9.615934e+01	-1.770697e+01
9.671476e+01	-1.775536e+01
9.727338e+01	-1.780704e+01
9.783522e+01	-1.785481e+01
9.840032e+01	-1.790430e+01
9.896867e+01	-1.795413e+01
9.954031e+01	-1.800408e+01
1.001153e+02	-1.805319e+01
1.006935e+02	-1.810009e+01
1.012751e+02	-1.815058e+01
1.018601e+02	-1.819791e+01
1.024484e+02	-1.824913e+01
1.030402e+02	-1.829834e+01
1.036353e+02	-1.834821e+01
1.042339e+02	-1.839650e+01
1.048360e+02	-1.844643e+01
1.054415e+02	-1.849514e+01
1.060505e+02	-1.854511e+01
1.066631e+02	-1.859480e+01
1.072791e+02	-1.864382e+01
1.078988e+02	-1.869286e+01
1.085220e+02	-1.874164e+01
1.091488e+02	-1.879010e+01
1.097793e+02	-1.884038e+01
1.104133e+02	-1.888958e+01
1.110511e+02	-1.893826e+01
1.116925e+02	-1.898839e+01
1.123376e+02	-1.903930e+01
1.129865e+02	-1.908808e+01
1.136391e+02	-1.913807e+01
1.142955e+02	-1.918780e+01
1.149556e+02	-1.923776e+01
1.156196e+02	-1.928630e+01
1.162874e+02	-1.933482e+01
1.169591e+02	-1.938284e+01
1.176347e+02	-1.943413e+01
1.183141e+02	-1.948398e+01
1.189975e+02	-1.953190e+01
1.196848e+02	-1.958228e+01
1.203761e+02	-1.963293e+01
1.210714e+02	-1.968182e+01
1.217707e+02	-1.973093e+01
1.224740e+02	-1.978007e+01
1.231814e+02	-1.982889e+01
1.238929e+02	-1.987849e+01
1.246085e+02	-1.992842e+01
1.253283e+02	-1.997814e+01
1.260522e+02	-2.002703e+01
1.267802e+02	-2.007841e+01
1.275125e+02	-2.012623e+01
1.282490e+02	-2.017719e+01
1.289898e+02	-2.022619e+01
1.297348e+02	-2.027499e+01
1.304842e+02	-2.032551e+01
1.312378e+02	-2.037382e+01
1.319959e+02	-2.042597e+01
1.327583e+02	-2.047363e+01
1.335251e+02	-2.052462e+01
1.342963e+02	-2.057273e+01
1.350720e+02	-2.062358e+01
1.358522e+02	-2.067234e+01
1.366368e+02	-2.072274e+01
1.374260e+02	-2.077264e+01
1.382198e+02	-2.082283e+01
1.390182e+02	-2.087134e+01
1.398211e+02	-2.092105e+01
1.406287e+02	-2.097060e+01
1.414410e+02	-2.102002e+01
1.422579e+02	-2.106841e+01
1.430796e+02	-2.112091e+01
1.439060e+02	-2.116615e+01
1.447372e+02	-2.122077e+01
1.455732e+02	-2.126720e+01
1.464141e+02	-2.131872e+01
1.472597e+02	-2.136653e+01
1.481103e+02	-2.141651e+01
1.489658e+02	-2.146792e+01
1.498262e+02	-2.151791e+01
1.506916e+02	-2.156869e+01
1.515620e+02	-2.161447e+01
1.524374e+02	-2.166550e+01
1.533179e+02	-2.171518e+01
1.542034e+02	-2.176592e+01
1.550941e+02	-2.181480e+01
1.559899e+02	-2.186467e+01
1.568909e+02	-2.191447e+01
1.577971e+02	-2.196446e+01
1.587085e+02	-2.201311e+01
1.596252e+02	-2.206181e+01
1.605472e+02	-2.211275e+01
1.614745e+02	-2.216251e+01
1.624072e+02	-2.221331e+01
1.633453e+02	-2.226136e+01
1.642887e+02	-2.231063e+01
1.652377e+02	-2.236167e+01
1.661921e+02	-2.241010e+01
1.671520e+02	-2.245966e+01
1.681175e+02	-2.251305e+01
1.690885e+02	-2.256039e+01
1.700651e+02	-2.261005e+01
1.710474e+02	-2.266193e+01
1.720354e+02	-2.270844e+01
1.730291e+02	-2.276204e+01
1.740285e+02	-2.281103e+01
1.750337e+02	-2.286107e+01
1.760446e+02	-2.290843e+01
1.770615e+02	-2.295830e+01
1.780842e+02	-2.300907e+01
1.791128e+02	-2.305882e+01
1.801473e+02	-2.310765e+01
1.811878e+02	-2.315785e+01
1.822344e+02	-2.320807e+01
1.832870e+02	-2.325797e+01
1.843456e+02	-2.330814e+01
1.854104e+02	-2.335861e+01
1.864813e+02	-2.340599e+01
1.875584e+02	-2.345421e+01
1.886418e+02	-2.350678e+01
1.897313e+02	-2.355518e+01
1.908272e+02	-2.360472e+01
1.919294e+02	-2.365655e+01
1.930380e+02	-2.370542e+01
1.941530e+02	-2.375428e+01
1.952744e+02	-2.380521e+01
1.964023e+02	-2.385733e+01
1.975367e+02	-2.390368e+01
1.986777e+02	-2.395511e+01
1.998252e+02	-2.400543e+01
2.009794e+02	-2.405400e+01
2.021403e+02	-2.410648e+01
2.033078e+02	-2.415168e+01
2.044821e+02	-2.420472e+01
2.056632e+02	-2.425546e+01
2.068511e+02	-2.430221e+01
2.080459e+02	-2.435423e+01
2.092475e+02	-2.440564e+01
2.104561e+02	-2.445299e+01
2.116717e+02	-2.450231e+01
2.128943e+02	-2.455468e+01
2.141240e+02	-2.460422e+01
2.153608e+02	-2.465079e+01
2.166047e+02	-2.470332e+01
2.178558e+02	-2.475438e+01
2.191141e+02	-2.480401e+01
2.203797e+02	-2.485467e+01
2.216526e+02	-2.490198e+01
2.229329e+02	-2.495268e+01
2.242205e+02	-2.500348e+01
2.255156e+02	-2.505297e+01
2.268182e+02	-2.510471e+01
2.281283e+02	-2.515173e+01
2.294459e+02	-2.520170e+01
2.307712e+02	-2.525257e+01
2.321041e+02	-2.530161e+01
2.334447e+02	-2.535388e+01
2.347931e+02	-2.540495e+01
2.361493e+02	-2.545331e+01
2.375133e+02	-2.550231e+01
2.388851e+02	-2.555335e+01
2.402649e+02	-2.560211e+01
2.416527e+02	-2.565190e+01
2.430484e+02	-2.570465e+01
2.444523e+02	-2.575278e+01
2.458642e+02	-2.579903e+01
2.472843e+02	-2.585300e+01
2.487126e+02	-2.590162e+01
2.501492e+02	-2.595045e+01
2.515940e+02	-2.600440e+01
2.530472e+02	-2.605437e+01
2.545088e+02	-2.610272e+01
2.559789e+02	-2.615029e+01
2.574574e+02	-2.620351e+01
2.589444e+02	-2.625180e+01
2.604401e+02	-2.630474e+01
2.619444e+02	-2.635427e+01
2.634574e+02	-2.640124e+01
2.649791e+02	-2.645234e+01
2.665096e+02	-2.650477e+01
2.680489e+02	-2.654858e+01
2.695972e+02	-2.660217e+01
2.711544e+02	-2.665234e+01
2.727205e+02	-2.670209e+01
2.742958e+02	-2.675302e+01
2.758801e+02	-2.679993e+01
2.774736e+02	-2.684791e+01
2.790762e+02	-2.689646e+01
2.806882e+02	-2.695212e+01
2.823094e+02	-2.700112e+01
2.839400e+02	-2.704926e+01
2.855800e+02	-2.710231e+01
2.872295e+02	-2.715317e+01
2.888886e+02	-2.720166e+01
2.905572e+02	-2.725667e+01
2.922354e+02	-2.730027e+01
2.939234e+02	-2.734947e+01
2.956211e+02	-2.740037e+01
2.973286e+02	-2.744926e+01
2.990459e+02	-2.750039e+01
3.007732e+02	-2.755165e+01
3.025104e+02	-2.760242e+01
3.042577e+02	-2.765406e+01
3.060151e+02	-2.770234e+01
3.077826e+02	-2.775210e+01
3.095604e+02	-2.780328e+01
3.113484e+02	-2.785228e+01
3.131467e+02	-2.790129e+01
3.149554e+02	-2.795227e+01
3.167746e+02	-2.800171e+01
3.186043e+02	-2.805046e+01
3.204445e+02	-2.810029e+01
3.222954e+02	-2.814970e+01
3.241570e+02	-2.820040e+01
3.260293e+02	-2.824921e+01
3.279124e+02	-2.830057e+01
3.298064e+02	-2.835138e+01
3.317114e+02	-2.840106e+01
3.336273e+02	-2.845376e+01
3.355544e+02	-2.850354e+01
3.374925e+02	-2.855066e+01
3.394418e+02	-2.860023e+01
3.414024e+02	-2.864998e+01
3.433744e+02	-2.870280e+01
3.453577e+02	-2.874991e+01
3.473525e+02	-2.880152e+01
3.493588e+02	-2.885189e+01
3.513766e+02	-2.889862e+01
3.534062e+02	-2.895713e+01
3.554474e+02	-2.900175e+01
3.575005e+02	-2.905255e+01
3.595654e+02	-2.910276e+01
3.616422e+02	-2.914609e+01
3.637311e+02	-2.920508e+01
3.658320e+02	-2.925417e+01
3.679450e+02	-2.929843e+01
3.700702e+02	-2.935068e+01
3.722077e+02	-2.940087e+01
3.743576e+02	-2.945403e+01
3.765199e+02	-2.950445e+01
3.786946e+02	-2.954626e+01
3.808820e+02	-2.960470e+01
3.830819e+02	-2.965435e+01
3.852946e+02	-2.969970e+01
3.875200e+02	-2.975027e+01
3.897583e+02	-2.980139e+01
3.920096e+02	-2.985349e+01
3.942738e+02	-2.990506e+01
3.965511e+02	-2.995606e+01
3.988416e+02	-3.000612e+01
4.011452e+02	-3.004977e+01
4.034622e+02	-3.010420e+01
4.057926e+02	-3.015787e+01
4.081365e+02	-3.020216e+01
4.104938e+02	-3.025099e+01
4.128648e+02	-3.030661e+01
4.152495e+02	-3.035284e+01
4.176480e+02	-3.040777e+01
4.200603e+02	-3.045291e+01
4.224866e+02	-3.050785e+01
4.249268e+02	-3.055224e+01
4.273812e+02	-3.060317e+01
4.298497e+02	-3.065405e+01
4.323325e+02	-3.070259e+01
4.348297e+02	-3.075380e+01
4.373412e+02	-3.081194e+01
4.398673e+02	-3.085765e+01
4.424079e+02	-3.090361e+01
4.449633e+02	-3.095555e+01
4.475334e+02	-3.100921e+01
4.501183e+02	-3.105473e+01
4.527182e+02	-3.110942e+01
4.553330e+02	-3.115300e+01
4.579630e+02	-3.120978e+01
4.606082e+02	-3.125453e+01
4.632687e+02	-3.130732e+01
4.659445e+02	-3.135587e+01
4.686358e+02	-3.140820e+01
4.713426e+02	-3.145934e+01
4.740650e+02	-3.150232e+01
4.768032e+02	-3.155756e+01
4.795572e+02	-3.160531e+01
4.823271e+02	-3.165440e+01
4.851130e+02	-3.170948e+01
4.879150e+02	-3.176166e+01
4.907332e+02	-3.181077e+01
4.935676e+02	-3.185811e+01
4.964185e+02	-3.190873e+01
4.992858e+02	-3.196111e+01
5.021696e+02	-3.201126e+01
5.050701e+02	-3.206394e+01
5.079874e+02	-3.211040e+01
5.109215e+02	-3.215897e+01
5.138726e+02	-3.220944e+01
5.168407e+02	-3.226261e+01
5.198259e+02	-3.230541e+01
5.228284e+02	-3.235588e+01
5.258482e+02	-3.241107e+01
5.288855e+02	-3.246159e+01
5.319403e+02	-3.250834e+01
5.350128e+02	-3.255665e+01
5.381030e+02	-3.261281e+01
5.412111e+02	-3.266628e+01
5.443371e+02	-3.270943e+01
5.474812e+02	-3.276363e+01
5.506434e+02	-3.280758e+01
5.538239e+02	-3.285937e+01
5.570228e+02	-3.291342e+01
5.602401e+02	-3.296545e+01
5.634760e+02	-3.301088e+01
5.667306e+02	-3.306344e+01
5.700040e+02	-3.311749e+01
5.732964e+02	-3.316477e+01
5.766077e+02	-3.321956e+01
5.799382e+02	-3.326422e+01
5.832879e+02	-3.332287e+01
5.866569e+02	-3.336665e+01
5.900454e+02	-3.341553e+01
5.934535e+02	-3.347326e+01
5.968813e+02	-3.350874e+01
6.003288e+02	-3.356687e+01
6.037963e+02	-3.362235e+01
6.072838e+02	-3.366240e+01
6.107914e+02	-3.371468e+01
6.143194e+02	-3.376173e+01
6.178676e+02	-3.381349e+01
6.214364e+02	-3.386928e+01
6.250258e+02	-3.391822e+01
6.286359e+02	-3.397045e+01
6.322669e+02	-3.401895e+01
6.359189e+02	-3.407282e+01
6.395919e+02	-3.411831e+01
6.432862e+02	-3.417335e+01
6.470017e+02	-3.421704e+01
6.507388e+02	-3.427311e+01
6.544974e+02	-3.432474e+01
6.582778e+02	-3.436799e+01
6.620800e+02	-3.441901e+01
6.659041e+02	-3.446749e+01
6.697504e+02	-3.452139e+01
6.736188e+02	-3.457348e+01
6.775096e+02	-3.462515e+01
6.814229e+02	-3.468084e+01
6.853587e+02	-3.472036e+01
6.893173e+02	-3.477463e+01
6.932988e+02	-3.482869e+01
6.973033e+02	-3.488023e+01
7.013309e+02	-3.491599e+01
