Frequency(Hz)	Magnitude(dB)
1.000000e+01	-2.112500e+00
1.005776e+01	-2.131671e+00
1.011585e+01	-2.151318e+00
1.017428e+01	-2.170988e+00
1.023305e+01	-2.190741e+00
1.029215e+01	-2.210676e+00
1.035160e+01	-2.230541e+00
1.041139e+01	-2.250692e+00
1.047153e+01	-2.271058e+00
1.053201e+01	-2.291432e+00
1.059284e+01	-2.311948e+00
1.065403e+01	-2.332673e+00
1.071556e+01	-2.353511e+00
1.077746e+01	-2.374686e+00
1.083971e+01	-2.395720e+00
1.090232e+01	-2.416974e+00
1.096529e+01	-2.438584e+00
1.102862e+01	-2.459962e+00
1.109232e+01	-2.481580e+00
1.115639e+01	-2.503793e+00
1.122083e+01	-2.525906e+00
1.128564e+01	-2.547595e+00
1.135083e+01	-2.569889e+00
1.141639e+01	-2.592500e+00
1.148233e+01	-2.614947e+00
1.154865e+01	-2.637633e+00
1.161536e+01	-2.660484e+00
1.168245e+01	-2.683561e+00
1.174992e+01	-2.706674e+00
1.181779e+01	-2.729981e+00
1.188605e+01	-2.753503e+00
1.195470e+01	-2.776824e+00
1.202375e+01	-2.800584e+00
1.209320e+01	-2.824628e+00
1.216305e+01	-2.848741e+00
1.223330e+01	-2.872417e+00
1.230396e+01	-2.896947e+00
1.237503e+01	-2.921074e+00
1.244651e+01	-2.945826e+00
1.251840e+01	-2.970654e+00
1.259070e+01	-2.995580e+00
1.266343e+01	-3.020100e+00
1.273657e+01	-3.045520e+00
1.281014e+01	-3.071101e+00
1.288413e+01	-3.096321e+00
1.295855e+01	-3.121925e+00
1.303339e+01	-3.147553e+00
1.310867e+01	-3.173298e+00
1.318439e+01	-3.199049e+00
1.326054e+01	-3.225449e+00
1.333713e+01	-3.251633e+00
1.341417e+01	-3.278360e+00
1.349165e+01	-3.304835e+00
1.356958e+01	-3.331628e+00
1.364795e+01	-3.358687e+00
1.372678e+01	-3.385362e+00
1.380607e+01	-3.412456e+00
1.388581e+01	-3.439839e+00
1.396602e+01	-3.467081e+00
1.404668e+01	-3.494654e+00
1.412782e+01	-3.522787e+00
1.420942e+01	-3.550414e+00
1.429149e+01	-3.578553e+00
1.437404e+01	-3.606665e+00
1.445706e+01	-3.634806e+00
1.454057e+01	-3.663378e+00
1.462455e+01	-3.691953e+00
1.470902e+01	-3.720590e+00
1.479398e+01	-3.749837e+00
1.487943e+01	-3.778513e+00
1.496537e+01	-3.807756e+00
1.505181e+01	-3.836886e+00
1.513875e+01	-3.866513e+00
1.522619e+01	-3.896021e+00
1.531414e+01	-3.925721e+00
1.540259e+01	-3.955606e+00
1.549156e+01	-3.985572e+00
1.558103e+01	-4.015417e+00
1.567103e+01	-4.045728e+00
1.576155e+01	-4.076051e+00
1.585258e+01	-4.106559e+00
1.594415e+01	-4.137413e+00
1.603624e+01	-4.168305e+00
1.612886e+01	-4.199332e+00
1.622202e+01	-4.230391e+00
1.631572e+01	-4.261509e+00
1.640996e+01	-4.292750e+00
1.650474e+01	-4.324415e+00
1.660008e+01	-4.355782e+00
1.669596e+01	-4.387474e+00
1.679239e+01	-4.419438e+00
1.688938e+01	-4.451325e+00
1.698694e+01	-4.483597e+00
1.708505e+01	-4.515802e+00
1.718373e+01	-4.548607e+00
1.728299e+01	-4.580797e+00
1.738281e+01	-4.613653e+00
1.748322e+01	-4.646210e+00
1.758420e+01	-4.679124e+00
1.768576e+01	-4.712406e+00
1.778792e+01	-4.745430e+00
1.789066e+01	-4.778905e+00
1.799399e+01	-4.812083e+00
1.809793e+01	-4.845806e+00
1.820246e+01	-4.879232e+00
1.830760e+01	-4.913517e+00
1.841334e+01	-4.946996e+00
1.851969e+01	-4.981350e+00
1.862666e+01	-5.015598e+00
1.873425e+01	-5.049860e+00
1.884246e+01	-5.084209e+00
1.895129e+01	-5.118926e+00
1.906075e+01	-5.153477e+00
1.917085e+01	-5.188444e+00
1.928158e+01	-5.223249e+00
1.939295e+01	-5.258351e+00
1.950496e+01	-5.293647e+00
1.961762e+01	-5.328929e+00
1.973093e+01	-5.364264e+00
1.984490e+01	-5.399797e+00
1.995952e+01	-5.435725e+00
2.007480e+01	-5.471072e+00
2.019076e+01	-5.507085e+00
2.030738e+01	-5.543188e+00
2.042467e+01	-5.579349e+00
2.054264e+01	-5.615567e+00
2.066130e+01	-5.651828e+00
2.078064e+01	-5.688160e+00
2.090066e+01	-5.724978e+00
2.102139e+01	-5.761505e+00
2.114280e+01	-5.798365e+00
2.126492e+01	-5.835008e+00
2.138775e+01	-5.872352e+00
2.151128e+01	-5.909580e+00
2.163553e+01	-5.946450e+00
2.176050e+01	-5.984229e+00
2.188619e+01	-6.021660e+00
2.201260e+01	-6.059036e+00
2.213974e+01	-6.097163e+00
2.226762e+01	-6.134430e+00
2.239624e+01	-6.172125e+00
2.252560e+01	-6.210761e+00
2.265571e+01	-6.248501e+00
2.278656e+01	-6.286894e+00
2.291818e+01	-6.325098e+00
2.305055e+01	-6.363416e+00
2.318369e+01	-6.401597e+00
2.331760e+01	-6.440830e+00
2.345228e+01	-6.479639e+00
2.358774e+01	-6.518239e+00
2.372398e+01	-6.557141e+00
2.386101e+01	-6.595897e+00
2.399883e+01	-6.635039e+00
2.413745e+01	-6.674659e+00
2.427686e+01	-6.713860e+00
2.441709e+01	-6.753322e+00
2.455812e+01	-6.792707e+00
2.469997e+01	-6.832462e+00
2.484263e+01	-6.872182e+00
2.498612e+01	-6.912261e+00
2.513044e+01	-6.951830e+00
2.527559e+01	-6.991858e+00
2.542158e+01	-7.031561e+00
2.556842e+01	-7.071809e+00
2.571610e+01	-7.112459e+00
2.586463e+01	-7.152512e+00
2.601403e+01	-7.193029e+00
2.616428e+01	-7.233399e+00
2.631541e+01	-7.273922e+00
2.646740e+01	-7.314638e+00
2.662028e+01	-7.355707e+00
2.677404e+01	-7.396507e+00
2.692868e+01	-7.437567e+00
2.708422e+01	-7.478428e+00
2.724066e+01	-7.519331e+00
2.739800e+01	-7.560715e+00
2.755625e+01	-7.602195e+00
2.771541e+01	-7.643177e+00
2.787550e+01	-7.685108e+00
2.803650e+01	-7.726508e+00
2.819844e+01	-7.768104e+00
2.836131e+01	-7.809900e+00
2.852513e+01	-7.851403e+00
2.868989e+01	-7.892986e+00
2.885560e+01	-7.935590e+00
2.902227e+01	-7.977625e+00
2.918990e+01	-8.019652e+00
2.935850e+01	-8.061406e+00
2.952807e+01	-8.103937e+00
2.969863e+01	-8.146395e+00
2.987016e+01	-8.188802e+00
3.004269e+01	-8.231208e+00
3.021622e+01	-8.273847e+00
3.039075e+01	-8.316250e+00
3.056628e+01	-8.359164e+00
3.074283e+01	-8.401843e+00
3.092040e+01	-8.444793e+00
3.109900e+01	-8.486937e+00
3.127862e+01	-8.530326e+00
3.145929e+01	-8.573335e+00
3.164099e+01	-8.616348e+00
3.182375e+01	-8.659644e+00
3.200756e+01	-8.702861e+00
3.219244e+01	-8.746144e+00
3.237838e+01	-8.789639e+00
3.256540e+01	-8.833294e+00
3.275349e+01	-8.876528e+00
3.294268e+01	-8.920136e+00
3.313295e+01	-8.963830e+00
3.332433e+01	-9.007358e+00
3.351681e+01	-9.051121e+00
3.371040e+01	-9.095104e+00
3.390511e+01	-9.139482e+00
3.410094e+01	-9.183037e+00
3.429791e+01	-9.227125e+00
3.449601e+01	-9.271010e+00
3.469526e+01	-9.315142e+00
3.489566e+01	-9.359524e+00
3.509721e+01	-9.403784e+00
3.529993e+01	-9.448007e+00
3.550382e+01	-9.492662e+00
3.570889e+01	-9.537090e+00
3.591515e+01	-9.581281e+00
3.612259e+01	-9.625560e+00
3.633123e+01	-9.670654e+00
3.654108e+01	-9.714974e+00
3.675214e+01	-9.760340e+00
3.696442e+01	-9.804640e+00
3.717792e+01	-9.849443e+00
3.739266e+01	-9.893932e+00
3.760864e+01	-9.939243e+00
3.782587e+01	-9.984059e+00
3.804435e+01	-1.002937e+01
3.826409e+01	-1.007398e+01
3.848510e+01	-1.011958e+01
3.870739e+01	-1.016486e+01
3.893096e+01	-1.020995e+01
3.915583e+01	-1.025538e+01
3.938199e+01	-1.030098e+01
3.960946e+01	-1.034583e+01
3.983824e+01	-1.039151e+01
4.006834e+01	-1.043710e+01
4.029978e+01	-1.048243e+01
4.053255e+01	-1.052841e+01
4.076666e+01	-1.057316e+01
4.100213e+01	-1.061962e+01
4.123896e+01	-1.066504e+01
4.147715e+01	-1.071073e+01
4.171672e+01	-1.075624e+01
4.195767e+01	-1.080237e+01
4.220002e+01	-1.084777e+01
4.244377e+01	-1.089381e+01
4.268892e+01	-1.094005e+01
4.293549e+01	-1.098607e+01
4.318348e+01	-1.103204e+01
4.343291e+01	-1.107805e+01
4.368377e+01	-1.112441e+01
4.393609e+01	-1.117118e+01
4.418986e+01	-1.121657e+01
4.444510e+01	-1.126317e+01
4.470182e+01	-1.130945e+01
4.496001e+01	-1.135531e+01
4.521970e+01	-1.140220e+01
4.548089e+01	-1.144856e+01
4.574358e+01	-1.149527e+01
4.600779e+01	-1.154230e+01
4.627353e+01	-1.158804e+01
4.654081e+01	-1.163513e+01
4.680963e+01	-1.168130e+01
4.708000e+01	-1.172797e+01
4.735193e+01	-1.177457e+01
4.762543e+01	-1.182158e+01
4.790051e+01	-1.186853e+01
4.817719e+01	-1.191418e+01
4.845545e+01	-1.196213e+01
4.873533e+01	-1.200863e+01
4.901682e+01	-1.205511e+01
4.929994e+01	-1.210228e+01
4.958470e+01	-1.214936e+01
4.987110e+01	-1.219687e+01
5.015915e+01	-1.224330e+01
5.044887e+01	-1.229046e+01
5.074026e+01	-1.233748e+01
5.103333e+01	-1.238428e+01
5.132810e+01	-1.243209e+01
5.162457e+01	-1.247905e+01
5.192275e+01	-1.252642e+01
5.222265e+01	-1.257391e+01
5.252429e+01	-1.262077e+01
5.282767e+01	-1.266780e+01
5.313280e+01	-1.271511e+01
5.343969e+01	-1.276330e+01
5.374836e+01	-1.280999e+01
5.405880e+01	-1.285726e+01
5.437105e+01	-1.290493e+01
5.468509e+01	-1.295231e+01
5.500095e+01	-1.299995e+01
5.531863e+01	-1.304727e+01
5.563815e+01	-1.309521e+01
5.595951e+01	-1.314231e+01
5.628273e+01	-1.319053e+01
5.660782e+01	-1.323740e+01
5.693479e+01	-1.328543e+01
5.726364e+01	-1.333303e+01
5.759439e+01	-1.338128e+01
5.792705e+01	-1.342831e+01
5.826164e+01	-1.347691e+01
5.859815e+01	-1.352455e+01
5.893662e+01	-1.357176e+01
5.927703e+01	-1.362041e+01
5.961941e+01	-1.366709e+01
5.996377e+01	-1.371582e+01
6.031012e+01	-1.376344e+01
6.065847e+01	-1.381176e+01
6.100883e+01	-1.386027e+01
6.136121e+01	-1.390809e+01
6.171563e+01	-1.395526e+01
6.207210e+01	-1.400316e+01
6.243063e+01	-1.405225e+01
6.279122e+01	-1.409919e+01
6.315390e+01	-1.414807e+01
6.351868e+01	-1.419489e+01
6.388556e+01	-1.424393e+01
6.425456e+01	-1.429154e+01
6.462569e+01	-1.434120e+01
6.499897e+01	-1.438838e+01
6.537440e+01	-1.443603e+01
6.575200e+01	-1.448519e+01
6.613178e+01	-1.453323e+01
6.651375e+01	-1.458106e+01
6.689793e+01	-1.463025e+01
6.728433e+01	-1.467797e+01
6.767297e+01	-1.472672e+01
6.806384e+01	-1.477436e+01
6.845698e+01	-1.482275e+01
6.885238e+01	-1.487230e+01
6.925007e+01	-1.492062e+01
6.965005e+01	-1.496854e+01
7.005235e+01	-1.501770e+01
7.045697e+01	-1.506463e+01
7.086393e+01	-1.511433e+01
7.127323e+01	-1.516245e+01
7.168490e+01	-1.521144e+01
7.209895e+01	-1.525987e+01
7.251539e+01	-1.530682e+01
7.293424e+01	-1.535708e+01
7.335551e+01	-1.540437e+01
7.377920e+01	-1.545424e+01
7.420535e+01	-1.550237e+01
7.463396e+01	-1.555116e+01
7.506504e+01	-1.559951e+01
7.549861e+01	-1.564825e+01
7.593469e+01	-1.569731e+01
7.637328e+01	-1.574529e+01
7.681441e+01	-1.579431e+01
7.725809e+01	-1.584409e+01
7.770433e+01	-1.589192e+01
7.815315e+01	-1.594048e+01
7.860456e+01	-1.598937e+01
7.905857e+01	-1.603806e+01
7.951521e+01	-1.608579e+01
7.997449e+01	-1.613524e+01
8.043642e+01	-1.618350e+01
8.090102e+01	-1.623336e+01
8.136830e+01	-1.628206e+01
8.183828e+01	-1.633045e+01
8.231097e+01	-1.638016e+01
8.278640e+01	-1.642914e+01
8.326457e+01	-1.647762e+01
8.374550e+01	-1.652665e+01
8.422921e+01	-1.657672e+01
8.471572e+01	-1.662467e+01
8.520503e+01	-1.667306e+01
8.569717e+01	-1.672240e+01
8.619215e+01	-1.677011e+01
8.669000e+01	-1.682080e+01
8.719071e+01	-1.686948e+01
8.769432e+01	-1.691809e+01
8.820084e+01	-1.696648e+01
8.871029e+01	-1.701602e+01
8.922267e+01	-1.706464e+01
8.973802e+01	-1.711464e+01
9.025634e+01	-1.716263e+01
9.077766e+01	-1.721233e+01
9.130199e+01	-1.726122e+01
9.182935e+01	-1.731138e+01
9.235975e+01	-1.735968e+01
9.289321e+01	-1.740897e+01
9.342976e+01	-1.745807e+01
9.396941e+01	-1.750737e+01
9.451217e+01	-1.755609e+01
9.505807e+01	-1.760664e+01
9.560712e+01	-1.765584e+01
9.615934e+01	-1.770319e+01
9.671476e+01	-1.775298e+01
9.727338e+01	-1.780342e+01
9.783522e+01	-1.785034e+01
9.840032e+01	-1.790005e+01
9.896867e+01	-1.794887e+01
9.954031e+01	-1.799971e+01
1.001153e+02	-1.804874e+01
1.006935e+02	-1.809746e+01
1.012751e+02	-1.814684e+01
1.018601e+02	-1.819720e+01
1.024484e+02	-1.824700e+01
1.030402e+02	-1.829498e+01
1.036353e+02	-1.834474e+01
1.042339e+02	-1.839325e+01
1.048360e+02	-1.844236e+01
1.054415e+02	-1.849193e+01
1.060505e+02	-1.854179e+01
1.066631e+02	-1.859144e+01
1.072791e+02	-1.864021e+01
1.078988e+02	-1.868865e+01
1.085220e+02	-1.873948e+01
1.091488e+02	-1.878723e+01
1.097793e+02	-1.883578e+01
1.104133e+02	-1.888763e+01
1.110511e+02	-1.893685e+01
1.116925e+02	-1.898635e+01
1.123376e+02	-1.903449e+01
1.129865e+02	-1.908492e+01
1.136391e+02	-1.913294e+01
1.142955e+02	-1.918250e+01
1.149556e+02	-1.923190e+01
1.156196e+02	-1.928305e+01
1.162874e+02	-1.933132e+01
1.169591e+02	-1.938115e+01
1.176347e+02	-1.943014e+01
1.183141e+02	-1.948081e+01
1.189975e+02	-1.952915e+01
1.196848e+02	-1.957782e+01
1.203761e+02	-1.962882e+01
1.210714e+02	-1.967802e+01
1.217707e+02	-1.972664e+01
1.224740e+02	-1.977737e+01
1.231814e+02	-1.982558e+01
1.238929e+02	-1.987532e+01
1.246085e+02	-1.992533e+01
1.253283e+02	-1.997482e+01
1.260522e+02	-2.002406e+01
1.267802e+02	-2.007394e+01
1.275125e+02	-2.012308e+01
1.282490e+02	-2.017323e+01
1.289898e+02	-2.022228e+01
1.297348e+02	-2.027353e+01
1.304842e+02	-2.032162e+01
1.312378e+02	-2.037124e+01
1.319959e+02	-2.042209e+01
1.327583e+02	-2.047058e+01
1.335251e+02	-2.052028e+01
1.342963e+02	-2.056929e+01
1.350720e+02	-2.062032e+01
1.358522e+02	-2.067019e+01
1.366368e+02	-2.071938e+01
1.374260e+02	-2.076725e+01
1.382198e+02	-2.081697e+01
1.390182e+02	-2.086808e+01
1.398211e+02	-2.091646e+01
1.406287e+02	-2.096575e+01
1.414410e+02	-2.101548e+01
1.422579e+02	-2.106637e+01
1.430796e+02	-2.111656e+01
1.439060e+02	-2.116632e+01
1.447372e+02	-2.121580e+01
1.455732e+02	-2.126330e+01
1.464141e+02	-2.131279e+01
1.472597e+02	-2.136467e+01
1.481103e+02	-2.141412e+01
1.489658e+02	-2.146199e+01
1.498262e+02	-2.151437e+01
1.506916e+02	-2.156024e+01
1.515620e+02	-2.161143e+01
1.524374e+02	-2.166156e+01
1.533179e+02	-2.171267e+01
1.542034e+02	-2.176362e+01
1.550941e+02	-2.181347e+01
1.559899e+02	-2.186030e+01
1.568909e+02	-2.190946e+01
1.577971e+02	-2.196113e+01
1.587085e+02	-2.201161e+01
1.596252e+02	-2.206139e+01
1.605472e+02	-2.210859e+01
1.614745e+02	-2.216077e+01
1.624072e+02	-2.220945e+01
1.633453e+02	-2.226154e+01
1.642887e+02	-2.230916e+01
1.652377e+02	-2.236100e+01
1.661921e+02	-2.240918e+01
1.671520e+02	-2.245865e+01
1.681175e+02	-2.250811e+01
1.690885e+02	-2.255516e+01
1.700651e+02	-2.260616e+01
1.710474e+02	-2.265719e+01
1.720354e+02	-2.270746e+01
1.730291e+02	-2.275553e+01
1.740285e+02	-2.280741e+01
1.750337e+02	-2.285406e+01
1.760446e+02	-2.290545e+01
1.770615e+02	-2.295505e+01
1.780842e+02	-2.300798e+01
1.791128e+02	-2.305666e+01
1.801473e+02	-2.310431e+01
1.811878e+02	-2.315687e+01
1.822344e+02	-2.320707e+01
1.832870e+02	-2.325395e+01
1.843456e+02	-2.330645e+01
1.854104e+02	-2.335500e+01
1.864813e+02	-2.340603e+01
1.875584e+02	-2.345363e+01
1.886418e+02	-2.350550e+01
1.897313e+02	-2.355357e+01
1.908272e+02	-2.360229e+01
1.919294e+02	-2.365004e+01
1.930380e+02	-2.370223e+01
1.941530e+02	-2.375428e+01
1.952744e+02	-2.380343e+01
1.964023e+02	-2.385195e+01
1.975367e+02	-2.390349e+01
1.986777e+02	-2.395202e+01
1.998252e+02	-2.400180e+01
2.009794e+02	-2.405053e+01
2.021403e+02	-2.410155e+01
2.033078e+02	-2.415191e+01
2.044821e+02	-2.420373e+01
2.056632e+02	-2.425085e+01
2.068511e+02	-2.430328e+01
2.080459e+02	-2.434921e+01
2.092475e+02	-2.440068e+01
2.104561e+02	-2.445259e+01
2.116717e+02	-2.449830e+01
2.128943e+02	-2.455112e+01
2.141240e+02	-2.460021e+01
2.153608e+02	-2.465220e+01
2.166047e+02	-2.470258e+01
2.178558e+02	-2.475175e+01
2.191141e+02	-2.480055e+01
2.203797e+02	-2.484714e+01
2.216526e+02	-2.489994e+01
2.229329e+02	-2.495238e+01
2.242205e+02	-2.499870e+01
2.255156e+02	-2.504859e+01
2.268182e+02	-2.510064e+01
2.281283e+02	-2.515013e+01
2.294459e+02	-2.519936e+01
2.307712e+02	-2.524929e+01
2.321041e+02	-2.529792e+01
2.334447e+02	-2.534670e+01
2.347931e+02	-2.539673e+01
2.361493e+02	-2.545173e+01
2.375133e+02	-2.549985e+01
2.388851e+02	-2.554791e+01
2.402649e+02	-2.560067e+01
2.416527e+02	-2.564764e+01
2.430484e+02	-2.569901e+01
2.444523e+02	-2.574919e+01
2.458642e+02	-2.579841e+01
2.472843e+02	-2.585010e+01
2.487126e+02	-2.589793e+01
2.501492e+02	-2.594980e+01
2.515940e+02	-2.599934e+01
2.530472e+02	-2.605011e+01
2.545088e+02	-2.609784e+01
2.559789e+02	-2.614831e+01
2.574574e+02	-2.619849e+01
2.589444e+02	-2.624673e+01
2.604401e+02	-2.629801e+01
2.619444e+02	-2.634908e+01
2.634574e+02	-2.639649e+01
2.649791e+02	-2.644808e+01
2.665096e+02	-2.649627e+01
2.680489e+02	-2.654877e+01
2.695972e+02	-2.659903e+01
2.711544e+02	-2.664819e+01
2.727205e+02	-2.670075e+01
2.742958e+02	-2.675007e+01
2.758801e+02	-2.679648e+01
2.774736e+02	-2.684854e+01
2.790762e+02	-2.689747e+01
2.806882e+02	-2.694916e+01
2.823094e+02	-2.700008e+01
2.839400e+02	-2.704882e+01
2.855800e+02	-2.709856e+01
2.872295e+02	-2.714616e+01
2.888886e+02	-2.719902e+01
2.905572e+02	-2.724887e+01
2.922354e+02	-2.729739e+01
2.939234e+02	-2.735122e+01
2.956211e+02	-2.739565e+01
2.973286e+02	-2.744626e+01
2.990459e+02	-2.749983e+01
3.007732e+02	-2.755109e+01
3.025104e+02	-2.759455e+01
3.042577e+02	-2.764980e+01
3.060151e+02	-2.769851e+01
3.077826e+02	-2.774708e+01
3.095604e+02	-2.779876e+01
3.113484e+02	-2.785234e+01
3.131467e+02	-2.790059e+01
3.149554e+02	-2.794767e+01
3.167746e+02	-2.799699e+01
3.186043e+02	-2.805243e+01
3.204445e+02	-2.809770e+01
3.222954e+02	-2.814698e+01
3.241570e+02	-2.819930e+01
3.260293e+02	-2.824896e+01
3.279124e+02	-2.829835e+01
3.298064e+02	-2.834972e+01
3.317114e+02	-2.839697e+01
3.336273e+02	-2.845117e+01
3.355544e+02	-2.850045e+01
3.374925e+02	-2.854717e+01
3.394418e+02	-2.859861e+01
3.414024e+02	-2.864977e+01
3.433744e+02	-2.869947e+01
3.453577e+02	-2.874611e+01
3.473525e+02	-2.880025e+01
3.493588e+02	-2.884742e+01
3.513766e+02	-2.889702e+01
3.534062e+02	-2.894952e+01
3.554474e+02	-2.899746e+01
3.575005e+02	-2.904844e+01
3.595654e+02	-2.909817e+01
3.616422e+02	-2.914781e+01
3.637311e+02	-2.920353e+01
3.658320e+02	-2.925067e+01
3.679450e+02	-2.929759e+01
3.700702e+02	-2.934844e+01
3.722077e+02	-2.940087e+01
3.743576e+02	-2.945139e+01
3.765199e+02	-2.949836e+01
3.786946e+02	-2.954801e+01
3.808820e+02	-2.959823e+01
3.830819e+02	-2.965453e+01
3.852946e+02	-2.969922e+01
3.875200e+02	-2.975073e+01
3.897583e+02	-2.979934e+01
3.920096e+02	-2.985235e+01
3.942738e+02	-2.989810e+01
3.965511e+02	-2.994922e+01
3.988416e+02	-3.000051e+01
4.011452e+02	-3.004567e+01
4.034622e+02	-3.010236e+01
4.057926e+02	-3.015524e+01
4.081365e+02	-3.020323e+01
4.104938e+02	-3.025626e+01
4.128648e+02	-3.029621e+01
4.152495e+02	-3.034945e+01
4.176480e+02	-3.040171e+01
4.200603e+02	-3.044941e+01
4.224866e+02	-3.050317e+01
4.249268e+02	-3.055431e+01
4.273812e+02	-3.060074e+01
4.298497e+02	-3.065432e+01
4.323325e+02	-3.070385e+01
4.348297e+02	-3.075266e+01
4.373412e+02	-3.080284e+01
4.398673e+02	-3.085326e+01
4.424079e+02	-3.090603e+01
4.449633e+02	-3.095269e+01
4.475334e+02	-3.100271e+01
4.501183e+02	-3.105296e+01
4.527182e+02	-3.110003e+01
4.553330e+02	-3.115549e+01
4.579630e+02	-3.120752e+01
4.606082e+02	-3.125884e+01
4.632687e+02	-3.130099e+01
4.659445e+02	-3.135959e+01
4.686358e+02	-3.140130e+01
4.713426e+02	-3.144964e+01
4.740650e+02	-3.150323e+01
4.768032e+02	-3.155826e+01
4.795572e+02	-3.160259e+01
4.823271e+02	-3.165878e+01
4.851130e+02	-3.170519e+01
4.879150e+02	-3.175615e+01
4.907332e+02	-3.180350e+01
4.935676e+02	-3.185213e+01
4.964185e+02	-3.190906e+01
4.992858e+02	-3.195662e+01
5.021696e+02	-3.200803e+01
5.050701e+02	-3.205655e+01
5.079874e+02	-3.211222e+01
5.109215e+02	-3.215668e+01
5.138726e+02	-3.221048e+01
5.168407e+02	-3.225332e+01
5.198259e+02	-3.230745e+01
5.228284e+02	-3.235016e+01
5.258482e+02	-3.240500e+01
5.288855e+02	-3.245536e+01
5.319403e+02	-3.251183e+01
5.350128e+02	-3.255279e+01
5.381030e+02	-3.260232e+01
5.412111e+02	-3.266038e+01
5.443371e+02	-3.270698e+01
5.474812e+02	-3.276546e+01
5.506434e+02	-3.280850e+01
5.538239e+02	-3.286204e+01
5.570228e+02	-3.291055e+01
5.602401e+02	-3.295980e+01
5.634760e+02	-3.300683e+01
5.667306e+02	-3.306217e+01
5.700040e+02	-3.311618e+01
5.732964e+02	-3.316265e+01
5.766077e+02	-3.321267e+01
5.799382e+02	-3.326399e+01
5.832879e+02	-3.330808e+01
5.866569e+02	-3.335338e+01
5.900454e+02	-3.340931e+01
5.934535e+02	-3.345847e+01
5.968813e+02	-3.351956e+01
6.003288e+02	-3.355804e+01
6.037963e+02	-3.361371e+01
6.072838e+02	-3.366265e+01
6.107914e+02	-3.370582e+01
6.143194e+02	-3.376334e+01
6.178676e+02	-3.381554e+01
6.214364e+02	-3.387243e+01
6.250258e+02	-3.392491e+01
6.286359e+02	-3.396798e+01
6.322669e+02	-3.401275e+01
6.359189e+02	-3.406755e+01
6.395919e+02	-3.412547e+01
6.432862e+02	-3.416349e+01
6.470017e+02	-3.422218e+01
6.507388e+02	-3.426375e+01
6.544974e+02	-3.431338e+01
6.582778e+02	-3.437844e+01
6.620800e+02	-3.441903e+01
6.659041e+02	-3.447264e+01
6.697504e+02	-3.452082e+01
6.736188e+02	-3.457640e+01
6.775096e+02	-3.462248e+01
6.814229e+02	-3.466662e+01
6.853587e+02	-3.472631e+01
6.893173e+02	-3.477658e+01
6.932988e+02	-3.481840e+01
6.973033e+02	-3.486944e+01
7.013309e+02	-3.492668e+01
