Frequency(Hz)	Magnitude(dB)
1.000000e+01	-2.039924e+00
1.005776e+01	-2.058755e+00
1.011585e+01	-2.077860e+00
1.017428e+01	-2.096920e+00
1.023305e+01	-2.116292e+00
1.029215e+01	-2.135518e+00
1.035160e+01	-2.155057e+00
1.041139e+01	-2.174888e+00
1.047153e+01	-2.194590e+00
1.053201e+01	-2.214434e+00
1.059284e+01	-2.234237e+00
1.065403e+01	-2.254635e+00
1.071556e+01	-2.274961e+00
1.077746e+01	-2.295276e+00
1.083971e+01	-2.316039e+00
1.090232e+01	-2.336799e+00
1.096529e+01	-2.357770e+00
1.102862e+01	-2.378770e+00
1.109232e+01	-2.399971e+00
1.115639e+01	-2.421023e+00
1.122083e+01	-2.442316e+00
1.128564e+01	-2.464139e+00
1.135083e+01	-2.485870e+00
1.141639e+01	-2.507650e+00
1.148233e+01	-2.529828e+00
1.154865e+01	-2.552083e+00
1.161536e+01	-2.574163e+00
1.168245e+01	-2.596567e+00
1.174992e+01	-2.619239e+00
1.181779e+01	-2.641878e+00
1.188605e+01	-2.664795e+00
1.195470e+01	-2.687907e+00
1.202375e+01	-2.711015e+00
1.209320e+01	-2.734298e+00
1.216305e+01	-2.757801e+00
1.223330e+01	-2.781301e+00
1.230396e+01	-2.805245e+00
1.237503e+01	-2.828848e+00
1.244651e+01	-2.852915e+00
1.251840e+01	-2.877238e+00
1.259070e+01	-2.901443e+00
1.266343e+01	-2.926130e+00
1.273657e+01	-2.950380e+00
1.281014e+01	-2.975272e+00
1.288413e+01	-3.000070e+00
1.295855e+01	-3.025234e+00
1.303339e+01	-3.050076e+00
1.310867e+01	-3.075798e+00
1.318439e+01	-3.101184e+00
1.326054e+01	-3.126895e+00
1.333713e+01	-3.152579e+00
1.341417e+01	-3.178452e+00
1.349165e+01	-3.204429e+00
1.356958e+01	-3.230615e+00
1.364795e+01	-3.256789e+00
1.372678e+01	-3.283242e+00
1.380607e+01	-3.309751e+00
1.388581e+01	-3.336718e+00
1.396602e+01	-3.363666e+00
1.404668e+01	-3.390322e+00
1.412782e+01	-3.417818e+00
1.420942e+01	-3.445161e+00
1.429149e+01	-3.472434e+00
1.437404e+01	-3.499948e+00
1.445706e+01	-3.528047e+00
1.454057e+01	-3.555697e+00
1.462455e+01	-3.583919e+00
1.470902e+01	-3.612083e+00
1.479398e+01	-3.640314e+00
1.487943e+01	-3.668878e+00
1.496537e+01	-3.697270e+00
1.505181e+01	-3.725969e+00
1.513875e+01	-3.755317e+00
1.522619e+01	-3.784018e+00
1.531414e+01	-3.813246e+00
1.540259e+01	-3.842587e+00
1.549156e+01	-3.872048e+00
1.558103e+01	-3.901509e+00
1.567103e+01	-3.931347e+00
1.576155e+01	-3.961334e+00
1.585258e+01	-3.991033e+00
1.594415e+01	-4.021306e+00
1.603624e+01	-4.051459e+00
1.612886e+01	-4.082075e+00
1.622202e+01	-4.112305e+00
1.631572e+01	-4.143428e+00
1.640996e+01	-4.174015e+00
1.650474e+01	-4.204805e+00
1.660008e+01	-4.236050e+00
1.669596e+01	-4.267228e+00
1.679239e+01	-4.298760e+00
1.688938e+01	-4.330144e+00
1.698694e+01	-4.361953e+00
1.708505e+01	-4.393786e+00
1.718373e+01	-4.425598e+00
1.728299e+01	-4.457470e+00
1.738281e+01	-4.489920e+00
1.748322e+01	-4.521972e+00
1.758420e+01	-4.554326e+00
1.768576e+01	-4.587068e+00
1.778792e+01	-4.619539e+00
1.789066e+01	-4.652466e+00
1.799399e+01	-4.685849e+00
1.809793e+01	-4.718479e+00
1.820246e+01	-4.751897e+00
1.830760e+01	-4.784984e+00
1.841334e+01	-4.818221e+00
1.851969e+01	-4.852045e+00
1.862666e+01	-4.885765e+00
1.873425e+01	-4.919746e+00
1.884246e+01	-4.953662e+00
1.895129e+01	-4.987786e+00
1.906075e+01	-5.021876e+00
1.917085e+01	-5.056190e+00
1.928158e+01	-5.090900e+00
1.939295e+01	-5.125475e+00
1.950496e+01	-5.160137e+00
1.961762e+01	-5.195371e+00
1.973093e+01	-5.229950e+00
1.984490e+01	-5.265363e+00
1.995952e+01	-5.300471e+00
2.007480e+01	-5.335456e+00
2.019076e+01	-5.371146e+00
2.030738e+01	-5.406679e+00
2.042467e+01	-5.442476e+00
2.054264e+01	-5.478247e+00
2.066130e+01	-5.513975e+00
2.078064e+01	-5.550020e+00
2.090066e+01	-5.586487e+00
2.102139e+01	-5.622909e+00
2.114280e+01	-5.658724e+00
2.126492e+01	-5.695037e+00
2.138775e+01	-5.731957e+00
2.151128e+01	-5.768705e+00
2.163553e+01	-5.805412e+00
2.176050e+01	-5.842528e+00
2.188619e+01	-5.879634e+00
2.201260e+01	-5.916677e+00
2.213974e+01	-5.953869e+00
2.226762e+01	-5.991104e+00
2.239624e+01	-6.028762e+00
2.252560e+01	-6.066163e+00
2.265571e+01	-6.104092e+00
2.278656e+01	-6.141866e+00
2.291818e+01	-6.179870e+00
2.305055e+01	-6.217879e+00
2.318369e+01	-6.255919e+00
2.331760e+01	-6.294193e+00
2.345228e+01	-6.332067e+00
2.358774e+01	-6.371213e+00
2.372398e+01	-6.409389e+00
2.386101e+01	-6.447596e+00
2.399883e+01	-6.486816e+00
2.413745e+01	-6.525431e+00
2.427686e+01	-6.564770e+00
2.441709e+01	-6.603791e+00
2.455812e+01	-6.642780e+00
2.469997e+01	-6.681940e+00
2.484263e+01	-6.721262e+00
2.498612e+01	-6.760556e+00
2.513044e+01	-6.800457e+00
2.527559e+01	-6.839739e+00
2.542158e+01	-6.879355e+00
2.556842e+01	-6.919732e+00
2.571610e+01	-6.959549e+00
2.586463e+01	-6.999210e+00
2.601403e+01	-7.039588e+00
2.616428e+01	-7.079608e+00
2.631541e+01	-7.119726e+00
2.646740e+01	-7.160129e+00
2.662028e+01	-7.200174e+00
2.677404e+01	-7.241309e+00
2.692868e+01	-7.281940e+00
2.708422e+01	-7.322589e+00
2.724066e+01	-7.363726e+00
2.739800e+01	-7.404269e+00
2.755625e+01	-7.445367e+00
2.771541e+01	-7.486130e+00
2.787550e+01	-7.527603e+00
2.803650e+01	-7.568510e+00
2.819844e+01	-7.610306e+00
2.836131e+01	-7.651585e+00
2.852513e+01	-7.693138e+00
2.868989e+01	-7.734503e+00
2.885560e+01	-7.775625e+00
2.902227e+01	-7.817791e+00
2.918990e+01	-7.859799e+00
2.935850e+01	-7.901533e+00
2.952807e+01	-7.943483e+00
2.969863e+01	-7.985481e+00
2.987016e+01	-8.027758e+00
3.004269e+01	-8.069785e+00
3.021622e+01	-8.112024e+00
3.039075e+01	-8.154516e+00
3.056628e+01	-8.196942e+00
3.074283e+01	-8.239222e+00
3.092040e+01	-8.281755e+00
3.109900e+01	-8.324268e+00
3.127862e+01	-8.367126e+00
3.145929e+01	-8.409975e+00
3.164099e+01	-8.452690e+00
3.182375e+01	-8.495745e+00
3.200756e+01	-8.538569e+00
3.219244e+01	-8.581317e+00
3.237838e+01	-8.625188e+00
3.256540e+01	-8.667827e+00
3.275349e+01	-8.711210e+00
3.294268e+01	-8.754400e+00
3.313295e+01	-8.797913e+00
3.332433e+01	-8.841197e+00
3.351681e+01	-8.885348e+00
3.371040e+01	-8.928595e+00
3.390511e+01	-8.971656e+00
3.410094e+01	-9.015557e+00
3.429791e+01	-9.059586e+00
3.449601e+01	-9.103176e+00
3.469526e+01	-9.147246e+00
3.489566e+01	-9.191892e+00
3.509721e+01	-9.235759e+00
3.529993e+01	-9.279535e+00
3.550382e+01	-9.323514e+00
3.570889e+01	-9.368000e+00
3.591515e+01	-9.412107e+00
3.612259e+01	-9.456687e+00
3.633123e+01	-9.500945e+00
3.654108e+01	-9.545513e+00
3.675214e+01	-9.589609e+00
3.696442e+01	-9.634646e+00
3.717792e+01	-9.679130e+00
3.739266e+01	-9.723867e+00
3.760864e+01	-9.768428e+00
3.782587e+01	-9.813244e+00
3.804435e+01	-9.858278e+00
3.826409e+01	-9.902886e+00
3.848510e+01	-9.947707e+00
3.870739e+01	-9.992791e+00
3.893096e+01	-1.003760e+01
3.915583e+01	-1.008262e+01
3.938199e+01	-1.012815e+01
3.960946e+01	-1.017352e+01
3.983824e+01	-1.021884e+01
4.006834e+01	-1.026391e+01
4.029978e+01	-1.030932e+01
4.053255e+01	-1.035511e+01
4.076666e+01	-1.039945e+01
4.100213e+01	-1.044573e+01
4.123896e+01	-1.049090e+01
4.147715e+01	-1.053653e+01
4.171672e+01	-1.058234e+01
4.195767e+01	-1.062804e+01
4.220002e+01	-1.067371e+01
4.244377e+01	-1.071955e+01
4.268892e+01	-1.076515e+01
4.293549e+01	-1.081135e+01
4.318348e+01	-1.085641e+01
4.343291e+01	-1.090228e+01
4.368377e+01	-1.094908e+01
4.393609e+01	-1.099561e+01
4.418986e+01	-1.104080e+01
4.444510e+01	-1.108727e+01
4.470182e+01	-1.113278e+01
4.496001e+01	-1.117953e+01
4.521970e+01	-1.122574e+01
4.548089e+01	-1.127193e+01
4.574358e+01	-1.131799e+01
4.600779e+01	-1.136481e+01
4.627353e+01	-1.141065e+01
4.654081e+01	-1.145784e+01
4.680963e+01	-1.150358e+01
4.708000e+01	-1.155072e+01
4.735193e+01	-1.159707e+01
4.762543e+01	-1.164313e+01
4.790051e+01	-1.169065e+01
4.817719e+01	-1.173632e+01
4.845545e+01	-1.178346e+01
4.873533e+01	-1.182996e+01
4.901682e+01	-1.187691e+01
4.929994e+01	-1.192397e+01
4.958470e+01	-1.197010e+01
4.987110e+01	-1.201785e+01
5.015915e+01	-1.206417e+01
5.044887e+01	-1.211120e+01
5.074026e+01	-1.215774e+01
5.103333e+01	-1.220516e+01
5.132810e+01	-1.225272e+01
5.162457e+01	-1.229925e+01
5.192275e+01	-1.234633e+01
5.222265e+01	-1.239374e+01
5.252429e+01	-1.244026e+01
5.282767e+01	-1.248776e+01
5.313280e+01	-1.253483e+01
5.343969e+01	-1.258243e+01
5.374836e+01	-1.262998e+01
5.405880e+01	-1.267741e+01
5.437105e+01	-1.272459e+01
5.468509e+01	-1.277128e+01
5.500095e+01	-1.281922e+01
5.531863e+01	-1.286639e+01
5.563815e+01	-1.291335e+01
5.595951e+01	-1.296128e+01
5.628273e+01	-1.300913e+01
5.660782e+01	-1.305612e+01
5.693479e+01	-1.310384e+01
5.726364e+01	-1.315182e+01
5.759439e+01	-1.319936e+01
5.792705e+01	-1.324708e+01
5.826164e+01	-1.329466e+01
5.859815e+01	-1.334217e+01
5.893662e+01	-1.339000e+01
5.927703e+01	-1.343842e+01
5.961941e+01	-1.348535e+01
5.996377e+01	-1.353374e+01
6.031012e+01	-1.358180e+01
6.065847e+01	-1.362842e+01
6.100883e+01	-1.367614e+01
6.136121e+01	-1.372532e+01
6.171563e+01	-1.377244e+01
6.207210e+01	-1.381976e+01
6.243063e+01	-1.386893e+01
6.279122e+01	-1.391764e+01
6.315390e+01	-1.396477e+01
6.351868e+01	-1.401312e+01
6.388556e+01	-1.406083e+01
6.425456e+01	-1.410926e+01
6.462569e+01	-1.415730e+01
6.499897e+01	-1.420519e+01
6.537440e+01	-1.425249e+01
6.575200e+01	-1.430078e+01
6.613178e+01	-1.434968e+01
6.651375e+01	-1.439812e+01
6.689793e+01	-1.444660e+01
6.728433e+01	-1.449346e+01
6.767297e+01	-1.454238e+01
6.806384e+01	-1.459004e+01
6.845698e+01	-1.464046e+01
6.885238e+01	-1.468746e+01
6.925007e+01	-1.473485e+01
6.965005e+01	-1.478392e+01
7.005235e+01	-1.483283e+01
7.045697e+01	-1.488156e+01
7.086393e+01	-1.492904e+01
7.127323e+01	-1.497717e+01
7.168490e+01	-1.502645e+01
7.209895e+01	-1.507451e+01
7.251539e+01	-1.512242e+01
7.293424e+01	-1.517137e+01
7.335551e+01	-1.521975e+01
7.377920e+01	-1.526860e+01
7.420535e+01	-1.531733e+01
7.463396e+01	-1.536661e+01
7.506504e+01	-1.541473e+01
7.549861e+01	-1.546204e+01
7.593469e+01	-1.551118e+01
7.637328e+01	-1.556023e+01
7.681441e+01	-1.560848e+01
7.725809e+01	-1.565815e+01
7.770433e+01	-1.570622e+01
7.815315e+01	-1.575533e+01
7.860456e+01	-1.580344e+01
7.905857e+01	-1.585229e+01
7.951521e+01	-1.590127e+01
7.997449e+01	-1.594953e+01
8.043642e+01	-1.599795e+01
8.090102e+01	-1.604758e+01
8.136830e+01	-1.609620e+01
8.183828e+01	-1.614602e+01
8.231097e+01	-1.619295e+01
8.278640e+01	-1.624255e+01
8.326457e+01	-1.629123e+01
8.374550e+01	-1.633997e+01
8.422921e+01	-1.638895e+01
8.471572e+01	-1.643752e+01
8.520503e+01	-1.648714e+01
8.569717e+01	-1.653650e+01
8.619215e+01	-1.658406e+01
8.669000e+01	-1.663362e+01
8.719071e+01	-1.668255e+01
8.769432e+01	-1.673236e+01
8.820084e+01	-1.678050e+01
8.871029e+01	-1.682955e+01
8.922267e+01	-1.687844e+01
8.973802e+01	-1.692781e+01
9.025634e+01	-1.697652e+01
9.077766e+01	-1.702542e+01
9.130199e+01	-1.707451e+01
9.182935e+01	-1.712436e+01
9.235975e+01	-1.717301e+01
9.289321e+01	-1.722177e+01
9.342976e+01	-1.727070e+01
9.396941e+01	-1.732100e+01
9.451217e+01	-1.736838e+01
9.505807e+01	-1.741848e+01
9.560712e+01	-1.746821e+01
9.615934e+01	-1.751664e+01
9.671476e+01	-1.756621e+01
9.727338e+01	-1.761473e+01
9.783522e+01	-1.766473e+01
9.840032e+01	-1.771312e+01
9.896867e+01	-1.776163e+01
9.954031e+01	-1.781102e+01
1.001153e+02	-1.786005e+01
1.006935e+02	-1.790938e+01
1.012751e+02	-1.795937e+01
1.018601e+02	-1.800839e+01
1.024484e+02	-1.805755e+01
1.030402e+02	-1.810790e+01
1.036353e+02	-1.815757e+01
1.042339e+02	-1.820521e+01
1.048360e+02	-1.825455e+01
1.054415e+02	-1.830463e+01
1.060505e+02	-1.835392e+01
1.066631e+02	-1.840189e+01
1.072791e+02	-1.845144e+01
1.078988e+02	-1.850058e+01
1.085220e+02	-1.855066e+01
1.091488e+02	-1.859959e+01
1.097793e+02	-1.864884e+01
1.104133e+02	-1.870009e+01
1.110511e+02	-1.874897e+01
1.116925e+02	-1.879812e+01
1.123376e+02	-1.884632e+01
1.129865e+02	-1.889559e+01
1.136391e+02	-1.894472e+01
1.142955e+02	-1.899493e+01
1.149556e+02	-1.904627e+01
1.156196e+02	-1.909432e+01
1.162874e+02	-1.914315e+01
1.169591e+02	-1.919206e+01
1.176347e+02	-1.924272e+01
1.183141e+02	-1.929278e+01
1.189975e+02	-1.934293e+01
1.196848e+02	-1.939114e+01
1.203761e+02	-1.944006e+01
1.210714e+02	-1.948933e+01
1.217707e+02	-1.953863e+01
1.224740e+02	-1.958756e+01
1.231814e+02	-1.963712e+01
1.238929e+02	-1.968830e+01
1.246085e+02	-1.973526e+01
1.253283e+02	-1.978525e+01
1.260522e+02	-1.983570e+01
1.267802e+02	-1.988522e+01
1.275125e+02	-1.993549e+01
1.282490e+02	-1.998544e+01
1.289898e+02	-2.003349e+01
1.297348e+02	-2.008311e+01
1.304842e+02	-2.013219e+01
1.312378e+02	-2.018348e+01
1.319959e+02	-2.023139e+01
1.327583e+02	-2.028369e+01
1.335251e+02	-2.032965e+01
1.342963e+02	-2.037798e+01
1.350720e+02	-2.043061e+01
1.358522e+02	-2.047889e+01
1.366368e+02	-2.052971e+01
1.374260e+02	-2.057996e+01
1.382198e+02	-2.062829e+01
1.390182e+02	-2.067825e+01
1.398211e+02	-2.072788e+01
1.406287e+02	-2.077684e+01
1.414410e+02	-2.082799e+01
1.422579e+02	-2.087738e+01
1.430796e+02	-2.092629e+01
1.439060e+02	-2.097577e+01
1.447372e+02	-2.102446e+01
1.455732e+02	-2.107463e+01
1.464141e+02	-2.112475e+01
1.472597e+02	-2.117427e+01
1.481103e+02	-2.122384e+01
1.489658e+02	-2.127441e+01
1.498262e+02	-2.132502e+01
1.506916e+02	-2.137242e+01
1.515620e+02	-2.142311e+01
1.524374e+02	-2.147370e+01
1.533179e+02	-2.152272e+01
1.542034e+02	-2.157114e+01
1.550941e+02	-2.162165e+01
1.559899e+02	-2.167324e+01
1.568909e+02	-2.172027e+01
1.577971e+02	-2.177130e+01
1.587085e+02	-2.182096e+01
1.596252e+02	-2.187180e+01
1.605472e+02	-2.191928e+01
1.614745e+02	-2.196971e+01
1.624072e+02	-2.202030e+01
1.633453e+02	-2.206873e+01
1.642887e+02	-2.211659e+01
1.652377e+02	-2.216886e+01
1.661921e+02	-2.221852e+01
1.671520e+02	-2.226865e+01
1.681175e+02	-2.231878e+01
1.690885e+02	-2.236827e+01
1.700651e+02	-2.241630e+01
1.710474e+02	-2.246789e+01
1.720354e+02	-2.251849e+01
1.730291e+02	-2.256668e+01
1.740285e+02	-2.261717e+01
1.750337e+02	-2.266635e+01
1.760446e+02	-2.271629e+01
1.770615e+02	-2.276784e+01
1.780842e+02	-2.281496e+01
1.791128e+02	-2.286508e+01
1.801473e+02	-2.291726e+01
1.811878e+02	-2.296432e+01
1.822344e+02	-2.301634e+01
1.832870e+02	-2.306251e+01
1.843456e+02	-2.311659e+01
1.854104e+02	-2.316396e+01
1.864813e+02	-2.321476e+01
1.875584e+02	-2.326159e+01
1.886418e+02	-2.331506e+01
1.897313e+02	-2.336344e+01
1.908272e+02	-2.341361e+01
1.919294e+02	-2.346251e+01
1.930380e+02	-2.351319e+01
1.941530e+02	-2.356420e+01
1.952744e+02	-2.361321e+01
1.964023e+02	-2.366297e+01
1.975367e+02	-2.371169e+01
1.986777e+02	-2.376276e+01
1.998252e+02	-2.381368e+01
2.009794e+02	-2.386329e+01
2.021403e+02	-2.391063e+01
2.033078e+02	-2.395996e+01
2.044821e+02	-2.401093e+01
2.056632e+02	-2.406252e+01
2.068511e+02	-2.410910e+01
2.080459e+02	-2.416156e+01
2.092475e+02	-2.421503e+01
2.104561e+02	-2.426101e+01
2.116717e+02	-2.431079e+01
2.128943e+02	-2.436047e+01
2.141240e+02	-2.440852e+01
2.153608e+02	-2.445977e+01
2.166047e+02	-2.450862e+01
2.178558e+02	-2.456029e+01
2.191141e+02	-2.461153e+01
2.203797e+02	-2.465920e+01
2.216526e+02	-2.470763e+01
2.229329e+02	-2.475790e+01
2.242205e+02	-2.480708e+01
2.255156e+02	-2.486132e+01
2.268182e+02	-2.490864e+01
2.281283e+02	-2.496237e+01
2.294459e+02	-2.501127e+01
2.307712e+02	-2.505988e+01
2.321041e+02	-2.511091e+01
2.334447e+02	-2.515679e+01
2.347931e+02	-2.520752e+01
2.361493e+02	-2.526017e+01
2.375133e+02	-2.530745e+01
2.388851e+02	-2.535715e+01
2.402649e+02	-2.540759e+01
2.416527e+02	-2.545978e+01
2.430484e+02	-2.550854e+01
2.444523e+02	-2.556042e+01
2.458642e+02	-2.560662e+01
2.472843e+02	-2.566037e+01
2.487126e+02	-2.571093e+01
2.501492e+02	-2.575815e+01
2.515940e+02	-2.581047e+01
2.530472e+02	-2.586016e+01
2.545088e+02	-2.590895e+01
2.559789e+02	-2.595629e+01
2.574574e+02	-2.600481e+01
2.589444e+02	-2.605899e+01
2.604401e+02	-2.610550e+01
2.619444e+02	-2.615975e+01
2.634574e+02	-2.620816e+01
2.649791e+02	-2.625812e+01
2.665096e+02	-2.630330e+01
2.680489e+02	-2.635618e+01
2.695972e+02	-2.640732e+01
2.711544e+02	-2.645627e+01
2.727205e+02	-2.650744e+01
2.742958e+02	-2.655648e+01
2.758801e+02	-2.660849e+01
2.774736e+02	-2.666039e+01
2.790762e+02	-2.670389e+01
2.806882e+02	-2.675739e+01
2.823094e+02	-2.680370e+01
2.839400e+02	-2.686155e+01
2.855800e+02	-2.690532e+01
2.872295e+02	-2.695564e+01
2.888886e+02	-2.700988e+01
2.905572e+02	-2.705778e+01
2.922354e+02	-2.710779e+01
2.939234e+02	-2.715565e+01
2.956211e+02	-2.720672e+01
2.973286e+02	-2.725727e+01
2.990459e+02	-2.730671e+01
3.007732e+02	-2.735744e+01
3.025104e+02	-2.740854e+01
3.042577e+02	-2.745743e+01
3.060151e+02	-2.750669e+01
3.077826e+02	-2.755730e+01
3.095604e+02	-2.760824e+01
3.113484e+02	-2.765663e+01
3.131467e+02	-2.771230e+01
3.149554e+02	-2.775572e+01
3.167746e+02	-2.781198e+01
3.186043e+02	-2.786157e+01
3.204445e+02	-2.790577e+01
3.222954e+02	-2.795879e+01
3.241570e+02	-2.800357e+01
3.260293e+02	-2.805362e+01
3.279124e+02	-2.810609e+01
3.298064e+02	-2.815508e+01
3.317114e+02	-2.820573e+01
3.336273e+02	-2.826076e+01
3.355544e+02	-2.830837e+01
3.374925e+02	-2.835985e+01
3.394418e+02	-2.840702e+01
3.414024e+02	-2.846242e+01
3.433744e+02	-2.850622e+01
3.453577e+02	-2.856148e+01
3.473525e+02	-2.860672e+01
3.493588e+02	-2.865558e+01
3.513766e+02	-2.871132e+01
3.534062e+02	-2.875768e+01
3.554474e+02	-2.881291e+01
3.575005e+02	-2.885711e+01
3.595654e+02	-2.890743e+01
3.616422e+02	-2.895711e+01
3.637311e+02	-2.900769e+01
3.658320e+02	-2.906099e+01
3.679450e+02	-2.910770e+01
3.700702e+02	-2.916128e+01
3.722077e+02	-2.921053e+01
3.743576e+02	-2.925633e+01
3.765199e+02	-2.930964e+01
3.786946e+02	-2.936067e+01
3.808820e+02	-2.941064e+01
3.830819e+02	-2.945864e+01
3.852946e+02	-2.950912e+01
3.875200e+02	-2.955962e+01
3.897583e+02	-2.960747e+01
3.920096e+02	-2.966164e+01
3.942738e+02	-2.970723e+01
3.965511e+02	-2.975885e+01
3.988416e+02	-2.981126e+01
4.011452e+02	-2.986189e+01
4.034622e+02	-2.991067e+01
4.057926e+02	-2.996272e+01
4.081365e+02	-3.001257e+01
4.104938e+02	-3.006093e+01
4.128648e+02	-3.011370e+01
4.152495e+02	-3.015544e+01
4.176480e+02	-3.020987e+01
4.200603e+02	-3.025687e+01
4.224866e+02	-3.030809e+01
4.249268e+02	-3.036069e+01
4.273812e+02	-3.040781e+01
4.298497e+02	-3.045726e+01
4.323325e+02	-3.051072e+01
4.348297e+02	-3.055981e+01
4.373412e+02	-3.060835e+01
4.398673e+02	-3.065936e+01
4.424079e+02	-3.071001e+01
4.449633e+02	-3.076747e+01
4.475334e+02	-3.080779e+01
4.501183e+02	-3.086583e+01
4.527182e+02	-3.090833e+01
4.553330e+02	-3.096104e+01
4.579630e+02	-3.101909e+01
4.606082e+02	-3.106307e+01
4.632687e+02	-3.111655e+01
4.659445e+02	-3.115512e+01
4.686358e+02	-3.121405e+01
4.713426e+02	-3.126178e+01
4.740650e+02	-3.131168e+01
4.768032e+02	-3.135937e+01
4.795572e+02	-3.142080e+01
4.823271e+02	-3.146514e+01
4.851130e+02	-3.151729e+01
4.879150e+02	-3.156313e+01
4.907332e+02	-3.161874e+01
4.935676e+02	-3.166289e+01
4.964185e+02	-3.171863e+01
4.992858e+02	-3.177084e+01
5.021696e+02	-3.181516e+01
5.050701e+02	-3.186465e+01
5.079874e+02	-3.191363e+01
5.109215e+02	-3.196196e+01
5.138726e+02	-3.201591e+01
5.168407e+02	-3.206205e+01
5.198259e+02	-3.211629e+01
5.228284e+02	-3.216585e+01
5.258482e+02	-3.221613e+01
5.288855e+02	-3.226561e+01
5.319403e+02	-3.231992e+01
5.350128e+02	-3.235692e+01
5.381030e+02	-3.242578e+01
5.412111e+02	-3.246156e+01
5.443371e+02	-3.251975e+01
5.474812e+02	-3.256543e+01
5.506434e+02	-3.261925e+01
5.538239e+02	-3.267871e+01
5.570228e+02	-3.271633e+01
5.602401e+02	-3.277187e+01
5.634760e+02	-3.281424e+01
5.667306e+02	-3.286335e+01
5.700040e+02	-3.291695e+01
5.732964e+02	-3.297721e+01
5.766077e+02	-3.302244e+01
5.799382e+02	-3.306237e+01
5.832879e+02	-3.312082e+01
5.866569e+02	-3.317771e+01
5.900454e+02	-3.322080e+01
5.934535e+02	-3.327331e+01
5.968813e+02	-3.331865e+01
6.003288e+02	-3.336921e+01
6.037963e+02	-3.342748e+01
6.072838e+02	-3.347834e+01
6.107914e+02	-3.352661e+01
6.143194e+02	-3.357663e+01
6.178676e+02	-3.362472e+01
6.214364e+02	-3.367101e+01
6.250258e+02	-3.372839e+01
6.286359e+02	-3.377475e+01
6.322669e+02	-3.381870e+01
6.359189e+02	-3.387334e+01
6.395919e+02	-3.392559e+01
6.432862e+02	-3.397719e+01
6.470017e+02	-3.403747e+01
6.507388e+02	-3.407941e+01
6.544974e+02	-3.412622e+01
6.582778e+02	-3.417879e+01
6.620800e+02	-3.422012e+01
6.659041e+02	-3.427798e+01
6.697504e+02	-3.433025e+01
6.736188e+02	-3.437807e+01
6.775096e+02	-3.442809e+01
6.814229e+02	-3.447968e+01
6.853587e+02	-3.452515e+01
6.893173e+02	-3.457865e+01
6.932988e+02	-3.464307e+01
6.973033e+02	-3.468014e+01
7.013309e+02	-3.472722e+01
