Frequency(Hz)	Magnitude(dB)
1.000000e+01	-2.038597e+00
1.005776e+01	-2.057476e+00
1.011585e+01	-2.076344e+00
1.017428e+01	-2.095420e+00
1.023305e+01	-2.114731e+00
1.029215e+01	-2.133834e+00
1.035160e+01	-2.153621e+00
1.041139e+01	-2.173063e+00
1.047153e+01	-2.192926e+00
1.053201e+01	-2.212705e+00
1.059284e+01	-2.232878e+00
1.065403e+01	-2.253073e+00
1.071556e+01	-2.273428e+00
1.077746e+01	-2.293510e+00
1.083971e+01	-2.314415e+00
1.090232e+01	-2.335158e+00
1.096529e+01	-2.355858e+00
1.102862e+01	-2.376833e+00
1.109232e+01	-2.398152e+00
1.115639e+01	-2.419434e+00
1.122083e+01	-2.440966e+00
1.128564e+01	-2.462463e+00
1.135083e+01	-2.484313e+00
1.141639e+01	-2.505929e+00
1.148233e+01	-2.528032e+00
1.154865e+01	-2.550083e+00
1.161536e+01	-2.572581e+00
1.168245e+01	-2.594846e+00
1.174992e+01	-2.617453e+00
1.181779e+01	-2.640049e+00
1.188605e+01	-2.663062e+00
1.195470e+01	-2.686269e+00
1.202375e+01	-2.709244e+00
1.209320e+01	-2.732436e+00
1.216305e+01	-2.755843e+00
1.223330e+01	-2.779764e+00
1.230396e+01	-2.803296e+00
1.237503e+01	-2.827265e+00
1.244651e+01	-2.851130e+00
1.251840e+01	-2.875286e+00
1.259070e+01	-2.899413e+00
1.266343e+01	-2.923791e+00
1.273657e+01	-2.948456e+00
1.281014e+01	-2.973245e+00
1.288413e+01	-2.998013e+00
1.295855e+01	-3.023281e+00
1.303339e+01	-3.048295e+00
1.310867e+01	-3.073726e+00
1.318439e+01	-3.098913e+00
1.326054e+01	-3.124598e+00
1.333713e+01	-3.150270e+00
1.341417e+01	-3.176123e+00
1.349165e+01	-3.202219e+00
1.356958e+01	-3.228391e+00
1.364795e+01	-3.254857e+00
1.372678e+01	-3.281300e+00
1.380607e+01	-3.307761e+00
1.388581e+01	-3.334515e+00
1.396602e+01	-3.361481e+00
1.404668e+01	-3.388216e+00
1.412782e+01	-3.415706e+00
1.420942e+01	-3.442848e+00
1.429149e+01	-3.470510e+00
1.437404e+01	-3.498078e+00
1.445706e+01	-3.525849e+00
1.454057e+01	-3.553528e+00
1.462455e+01	-3.581650e+00
1.470902e+01	-3.609819e+00
1.479398e+01	-3.638174e+00
1.487943e+01	-3.666681e+00
1.496537e+01	-3.695104e+00
1.505181e+01	-3.724005e+00
1.513875e+01	-3.752665e+00
1.522619e+01	-3.781936e+00
1.531414e+01	-3.811029e+00
1.540259e+01	-3.840385e+00
1.549156e+01	-3.869648e+00
1.558103e+01	-3.899451e+00
1.567103e+01	-3.928792e+00
1.576155e+01	-3.958865e+00
1.585258e+01	-3.988584e+00
1.594415e+01	-4.018666e+00
1.603624e+01	-4.049123e+00
1.612886e+01	-4.079501e+00
1.622202e+01	-4.110064e+00
1.631572e+01	-4.140883e+00
1.640996e+01	-4.171635e+00
1.650474e+01	-4.202486e+00
1.660008e+01	-4.233638e+00
1.669596e+01	-4.264843e+00
1.679239e+01	-4.296162e+00
1.688938e+01	-4.327578e+00
1.698694e+01	-4.359345e+00
1.708505e+01	-4.391150e+00
1.718373e+01	-4.422942e+00
1.728299e+01	-4.455155e+00
1.738281e+01	-4.487236e+00
1.748322e+01	-4.519435e+00
1.758420e+01	-4.551635e+00
1.768576e+01	-4.584486e+00
1.778792e+01	-4.617049e+00
1.789066e+01	-4.649998e+00
1.799399e+01	-4.682910e+00
1.809793e+01	-4.715983e+00
1.820246e+01	-4.749065e+00
1.830760e+01	-4.782588e+00
1.841334e+01	-4.816022e+00
1.851969e+01	-4.849714e+00
1.862666e+01	-4.883344e+00
1.873425e+01	-4.917158e+00
1.884246e+01	-4.950696e+00
1.895129e+01	-4.985353e+00
1.906075e+01	-5.019376e+00
1.917085e+01	-5.053707e+00
1.928158e+01	-5.087980e+00
1.939295e+01	-5.122677e+00
1.950496e+01	-5.157511e+00
1.961762e+01	-5.192122e+00
1.973093e+01	-5.226980e+00
1.984490e+01	-5.262389e+00
1.995952e+01	-5.297384e+00
2.007480e+01	-5.332541e+00
2.019076e+01	-5.368370e+00
2.030738e+01	-5.403607e+00
2.042467e+01	-5.439224e+00
2.054264e+01	-5.475414e+00
2.066130e+01	-5.511027e+00
2.078064e+01	-5.547108e+00
2.090066e+01	-5.583104e+00
2.102139e+01	-5.619432e+00
2.114280e+01	-5.656076e+00
2.126492e+01	-5.692166e+00
2.138775e+01	-5.728808e+00
2.151128e+01	-5.765535e+00
2.163553e+01	-5.802371e+00
2.176050e+01	-5.839444e+00
2.188619e+01	-5.876708e+00
2.201260e+01	-5.913734e+00
2.213974e+01	-5.950982e+00
2.226762e+01	-5.988305e+00
2.239624e+01	-6.025510e+00
2.252560e+01	-6.063330e+00
2.265571e+01	-6.100948e+00
2.278656e+01	-6.138691e+00
2.291818e+01	-6.176748e+00
2.305055e+01	-6.214641e+00
2.318369e+01	-6.252716e+00
2.331760e+01	-6.291061e+00
2.345228e+01	-6.329464e+00
2.358774e+01	-6.367487e+00
2.372398e+01	-6.406461e+00
2.386101e+01	-6.444839e+00
2.399883e+01	-6.483993e+00
2.413745e+01	-6.522680e+00
2.427686e+01	-6.561352e+00
2.441709e+01	-6.600597e+00
2.455812e+01	-6.639806e+00
2.469997e+01	-6.678830e+00
2.484263e+01	-6.718282e+00
2.498612e+01	-6.757782e+00
2.513044e+01	-6.797366e+00
2.527559e+01	-6.836815e+00
2.542158e+01	-6.876384e+00
2.556842e+01	-6.916123e+00
2.571610e+01	-6.956440e+00
2.586463e+01	-6.996206e+00
2.601403e+01	-7.036009e+00
2.616428e+01	-7.076590e+00
2.631541e+01	-7.116605e+00
2.646740e+01	-7.157052e+00
2.662028e+01	-7.197637e+00
2.677404e+01	-7.237803e+00
2.692868e+01	-7.278438e+00
2.708422e+01	-7.319287e+00
2.724066e+01	-7.360006e+00
2.739800e+01	-7.401151e+00
2.755625e+01	-7.441993e+00
2.771541e+01	-7.483470e+00
2.787550e+01	-7.524512e+00
2.803650e+01	-7.565383e+00
2.819844e+01	-7.606944e+00
2.836131e+01	-7.647911e+00
2.852513e+01	-7.689393e+00
2.868989e+01	-7.731188e+00
2.885560e+01	-7.772660e+00
2.902227e+01	-7.814514e+00
2.918990e+01	-7.856009e+00
2.935850e+01	-7.898421e+00
2.952807e+01	-7.939714e+00
2.969863e+01	-7.981784e+00
2.987016e+01	-8.024318e+00
3.004269e+01	-8.066632e+00
3.021622e+01	-8.108263e+00
3.039075e+01	-8.151040e+00
3.056628e+01	-8.193019e+00
3.074283e+01	-8.235436e+00
3.092040e+01	-8.278578e+00
3.109900e+01	-8.320945e+00
3.127862e+01	-8.363842e+00
3.145929e+01	-8.406692e+00
3.164099e+01	-8.449256e+00
3.182375e+01	-8.492678e+00
3.200756e+01	-8.535152e+00
3.219244e+01	-8.578448e+00
3.237838e+01	-8.621697e+00
3.256540e+01	-8.664883e+00
3.275349e+01	-8.707550e+00
3.294268e+01	-8.751240e+00
3.313295e+01	-8.794899e+00
3.332433e+01	-8.838241e+00
3.351681e+01	-8.881742e+00
3.371040e+01	-8.924924e+00
3.390511e+01	-8.968864e+00
3.410094e+01	-9.012595e+00
3.429791e+01	-9.056163e+00
3.449601e+01	-9.100649e+00
3.469526e+01	-9.144226e+00
3.489566e+01	-9.188247e+00
3.509721e+01	-9.232006e+00
3.529993e+01	-9.276058e+00
3.550382e+01	-9.320203e+00
3.570889e+01	-9.364439e+00
3.591515e+01	-9.408641e+00
3.612259e+01	-9.452478e+00
3.633123e+01	-9.497143e+00
3.654108e+01	-9.542324e+00
3.675214e+01	-9.586164e+00
3.696442e+01	-9.630474e+00
3.717792e+01	-9.675175e+00
3.739266e+01	-9.720261e+00
3.760864e+01	-9.764668e+00
3.782587e+01	-9.809654e+00
3.804435e+01	-9.854530e+00
3.826409e+01	-9.899349e+00
3.848510e+01	-9.943892e+00
3.870739e+01	-9.989224e+00
3.893096e+01	-1.003448e+01
3.915583e+01	-1.007935e+01
3.938199e+01	-1.012480e+01
3.960946e+01	-1.016960e+01
3.983824e+01	-1.021472e+01
4.006834e+01	-1.026016e+01
4.029978e+01	-1.030592e+01
4.053255e+01	-1.035033e+01
4.076666e+01	-1.039620e+01
4.100213e+01	-1.044131e+01
4.123896e+01	-1.048750e+01
4.147715e+01	-1.053322e+01
4.171672e+01	-1.057903e+01
4.195767e+01	-1.062400e+01
4.220002e+01	-1.067001e+01
4.244377e+01	-1.071582e+01
4.268892e+01	-1.076121e+01
4.293549e+01	-1.080717e+01
4.318348e+01	-1.085300e+01
4.343291e+01	-1.089951e+01
4.368377e+01	-1.094533e+01
4.393609e+01	-1.099130e+01
4.418986e+01	-1.103702e+01
4.444510e+01	-1.108293e+01
4.470182e+01	-1.112919e+01
4.496001e+01	-1.117561e+01
4.521970e+01	-1.122140e+01
4.548089e+01	-1.126832e+01
4.574358e+01	-1.131433e+01
4.600779e+01	-1.136031e+01
4.627353e+01	-1.140712e+01
4.654081e+01	-1.145430e+01
4.680963e+01	-1.150049e+01
4.708000e+01	-1.154639e+01
4.735193e+01	-1.159294e+01
4.762543e+01	-1.164018e+01
4.790051e+01	-1.168630e+01
4.817719e+01	-1.173294e+01
4.845545e+01	-1.178010e+01
4.873533e+01	-1.182674e+01
4.901682e+01	-1.187352e+01
4.929994e+01	-1.192093e+01
4.958470e+01	-1.196704e+01
4.987110e+01	-1.201381e+01
5.015915e+01	-1.206103e+01
5.044887e+01	-1.210746e+01
5.074026e+01	-1.215454e+01
5.103333e+01	-1.220157e+01
5.132810e+01	-1.224819e+01
5.162457e+01	-1.229559e+01
5.192275e+01	-1.234229e+01
5.222265e+01	-1.238954e+01
5.252429e+01	-1.243748e+01
5.282767e+01	-1.248373e+01
5.313280e+01	-1.253147e+01
5.343969e+01	-1.257829e+01
5.374836e+01	-1.262567e+01
5.405880e+01	-1.267341e+01
5.437105e+01	-1.272052e+01
5.468509e+01	-1.276769e+01
5.500095e+01	-1.281522e+01
5.531863e+01	-1.286260e+01
5.563815e+01	-1.291053e+01
5.595951e+01	-1.295785e+01
5.628273e+01	-1.300503e+01
5.660782e+01	-1.305249e+01
5.693479e+01	-1.310073e+01
5.726364e+01	-1.314792e+01
5.759439e+01	-1.319614e+01
5.792705e+01	-1.324291e+01
5.826164e+01	-1.329134e+01
5.859815e+01	-1.333906e+01
5.893662e+01	-1.338643e+01
5.927703e+01	-1.343413e+01
5.961941e+01	-1.348179e+01
5.996377e+01	-1.352997e+01
6.031012e+01	-1.357726e+01
6.065847e+01	-1.362535e+01
6.100883e+01	-1.367331e+01
6.136121e+01	-1.372071e+01
6.171563e+01	-1.376852e+01
6.207210e+01	-1.381740e+01
6.243063e+01	-1.386460e+01
6.279122e+01	-1.391271e+01
6.315390e+01	-1.396045e+01
6.351868e+01	-1.400968e+01
6.388556e+01	-1.405703e+01
6.425456e+01	-1.410402e+01
6.462569e+01	-1.415257e+01
6.499897e+01	-1.420113e+01
6.537440e+01	-1.424977e+01
6.575200e+01	-1.429815e+01
6.613178e+01	-1.434528e+01
6.651375e+01	-1.439411e+01
6.689793e+01	-1.444184e+01
6.728433e+01	-1.449056e+01
6.767297e+01	-1.453879e+01
6.806384e+01	-1.458603e+01
6.845698e+01	-1.463505e+01
6.885238e+01	-1.468292e+01
6.925007e+01	-1.473140e+01
6.965005e+01	-1.478004e+01
7.005235e+01	-1.482875e+01
7.045697e+01	-1.487623e+01
7.086393e+01	-1.492493e+01
7.127323e+01	-1.497386e+01
7.168490e+01	-1.502249e+01
7.209895e+01	-1.507076e+01
7.251539e+01	-1.511945e+01
7.293424e+01	-1.516715e+01
7.335551e+01	-1.521613e+01
7.377920e+01	-1.526383e+01
7.420535e+01	-1.531285e+01
7.463396e+01	-1.536198e+01
7.506504e+01	-1.541079e+01
7.549861e+01	-1.545888e+01
7.593469e+01	-1.550778e+01
7.637328e+01	-1.555624e+01
7.681441e+01	-1.560438e+01
7.725809e+01	-1.565389e+01
7.770433e+01	-1.570332e+01
7.815315e+01	-1.575121e+01
7.860456e+01	-1.579958e+01
7.905857e+01	-1.584780e+01
7.951521e+01	-1.589700e+01
7.997449e+01	-1.594604e+01
8.043642e+01	-1.599538e+01
8.090102e+01	-1.604362e+01
8.136830e+01	-1.609266e+01
8.183828e+01	-1.614078e+01
8.231097e+01	-1.618932e+01
8.278640e+01	-1.623887e+01
8.326457e+01	-1.628805e+01
8.374550e+01	-1.633662e+01
8.422921e+01	-1.638562e+01
8.471572e+01	-1.643488e+01
8.520503e+01	-1.648324e+01
8.569717e+01	-1.653182e+01
8.619215e+01	-1.657999e+01
8.669000e+01	-1.663012e+01
8.719071e+01	-1.667916e+01
8.769432e+01	-1.672745e+01
8.820084e+01	-1.677672e+01
8.871029e+01	-1.682594e+01
8.922267e+01	-1.687461e+01
8.973802e+01	-1.692320e+01
9.025634e+01	-1.697173e+01
9.077766e+01	-1.702177e+01
9.130199e+01	-1.707146e+01
9.182935e+01	-1.711964e+01
9.235975e+01	-1.716911e+01
9.289321e+01	-1.721694e+01
9.342976e+01	-1.726708e+01
9.396941e+01	-1.731557e+01
9.451217e+01	-1.736512e+01
9.505807e+01	-1.741434e+01
9.560712e+01	-1.746338e+01
9.615934e+01	-1.751233e+01
9.671476e+01	-1.756207e+01
9.727338e+01	-1.761079e+01
9.783522e+01	-1.766034e+01
9.840032e+01	-1.771017e+01
9.896867e+01	-1.775799e+01
9.954031e+01	-1.780916e+01
1.001153e+02	-1.785623e+01
1.006935e+02	-1.790699e+01
1.012751e+02	-1.795466e+01
1.018601e+02	-1.800394e+01
1.024484e+02	-1.805343e+01
1.030402e+02	-1.810325e+01
1.036353e+02	-1.815297e+01
1.042339e+02	-1.820173e+01
1.048360e+02	-1.824999e+01
1.054415e+02	-1.830129e+01
1.060505e+02	-1.834973e+01
1.066631e+02	-1.840022e+01
1.072791e+02	-1.844772e+01
1.078988e+02	-1.849731e+01
1.085220e+02	-1.854672e+01
1.091488e+02	-1.859434e+01
1.097793e+02	-1.864558e+01
1.104133e+02	-1.869454e+01
1.110511e+02	-1.874420e+01
1.116925e+02	-1.879429e+01
1.123376e+02	-1.884214e+01
1.129865e+02	-1.889202e+01
1.136391e+02	-1.894063e+01
1.142955e+02	-1.899043e+01
1.149556e+02	-1.904065e+01
1.156196e+02	-1.909079e+01
1.162874e+02	-1.914073e+01
1.169591e+02	-1.918878e+01
1.176347e+02	-1.923823e+01
1.183141e+02	-1.928887e+01
1.189975e+02	-1.933677e+01
1.196848e+02	-1.938684e+01
1.203761e+02	-1.943596e+01
1.210714e+02	-1.948609e+01
1.217707e+02	-1.953396e+01
1.224740e+02	-1.958380e+01
1.231814e+02	-1.963545e+01
1.238929e+02	-1.968269e+01
1.246085e+02	-1.973377e+01
1.253283e+02	-1.978313e+01
1.260522e+02	-1.983255e+01
1.267802e+02	-1.988142e+01
1.275125e+02	-1.993166e+01
1.282490e+02	-1.997995e+01
1.289898e+02	-2.002920e+01
1.297348e+02	-2.007833e+01
1.304842e+02	-2.012961e+01
1.312378e+02	-2.017863e+01
1.319959e+02	-2.022818e+01
1.327583e+02	-2.027766e+01
1.335251e+02	-2.032891e+01
1.342963e+02	-2.037787e+01
1.350720e+02	-2.042750e+01
1.358522e+02	-2.047476e+01
1.366368e+02	-2.052492e+01
1.374260e+02	-2.057660e+01
1.382198e+02	-2.062565e+01
1.390182e+02	-2.067446e+01
1.398211e+02	-2.072498e+01
1.406287e+02	-2.077476e+01
1.414410e+02	-2.082536e+01
1.422579e+02	-2.087408e+01
1.430796e+02	-2.092244e+01
1.439060e+02	-2.097332e+01
1.447372e+02	-2.102181e+01
1.455732e+02	-2.107099e+01
1.464141e+02	-2.112268e+01
1.472597e+02	-2.117096e+01
1.481103e+02	-2.122235e+01
1.489658e+02	-2.127079e+01
1.498262e+02	-2.131887e+01
1.506916e+02	-2.137115e+01
1.515620e+02	-2.141982e+01
1.524374e+02	-2.146992e+01
1.533179e+02	-2.151754e+01
1.542034e+02	-2.156883e+01
1.550941e+02	-2.161769e+01
1.559899e+02	-2.166752e+01
1.568909e+02	-2.171652e+01
1.577971e+02	-2.176651e+01
1.587085e+02	-2.181763e+01
1.596252e+02	-2.186782e+01
1.605472e+02	-2.191598e+01
1.614745e+02	-2.196539e+01
1.624072e+02	-2.201785e+01
1.633453e+02	-2.206679e+01
1.642887e+02	-2.211584e+01
1.652377e+02	-2.216442e+01
1.661921e+02	-2.221614e+01
1.671520e+02	-2.226536e+01
1.681175e+02	-2.231363e+01
1.690885e+02	-2.236408e+01
1.700651e+02	-2.241545e+01
1.710474e+02	-2.246529e+01
1.720354e+02	-2.251362e+01
1.730291e+02	-2.256580e+01
1.740285e+02	-2.261503e+01
1.750337e+02	-2.266218e+01
1.760446e+02	-2.271191e+01
1.770615e+02	-2.276319e+01
1.780842e+02	-2.281220e+01
1.791128e+02	-2.286363e+01
1.801473e+02	-2.291322e+01
1.811878e+02	-2.295930e+01
1.822344e+02	-2.301235e+01
1.832870e+02	-2.305967e+01
1.843456e+02	-2.311143e+01
1.854104e+02	-2.316159e+01
1.864813e+02	-2.320967e+01
1.875584e+02	-2.325939e+01
1.886418e+02	-2.330976e+01
1.897313e+02	-2.336046e+01
1.908272e+02	-2.340981e+01
1.919294e+02	-2.345979e+01
1.930380e+02	-2.350929e+01
1.941530e+02	-2.355837e+01
1.952744e+02	-2.360976e+01
1.964023e+02	-2.365934e+01
1.975367e+02	-2.371039e+01
1.986777e+02	-2.375938e+01
1.998252e+02	-2.380961e+01
2.009794e+02	-2.386167e+01
2.021403e+02	-2.390992e+01
2.033078e+02	-2.395719e+01
2.044821e+02	-2.400662e+01
2.056632e+02	-2.405742e+01
2.068511e+02	-2.410696e+01
2.080459e+02	-2.415948e+01
2.092475e+02	-2.420773e+01
2.104561e+02	-2.425777e+01
2.116717e+02	-2.430691e+01
2.128943e+02	-2.435570e+01
2.141240e+02	-2.440658e+01
2.153608e+02	-2.445273e+01
2.166047e+02	-2.450610e+01
2.178558e+02	-2.455753e+01
2.191141e+02	-2.460633e+01
2.203797e+02	-2.465460e+01
2.216526e+02	-2.470349e+01
2.229329e+02	-2.475632e+01
2.242205e+02	-2.480368e+01
2.255156e+02	-2.485718e+01
2.268182e+02	-2.490440e+01
2.281283e+02	-2.495726e+01
2.294459e+02	-2.500497e+01
2.307712e+02	-2.505512e+01
2.321041e+02	-2.510636e+01
2.334447e+02	-2.515451e+01
2.347931e+02	-2.520336e+01
2.361493e+02	-2.525412e+01
2.375133e+02	-2.530392e+01
2.388851e+02	-2.535376e+01
2.402649e+02	-2.540412e+01
2.416527e+02	-2.545364e+01
2.430484e+02	-2.550264e+01
2.444523e+02	-2.555442e+01
2.458642e+02	-2.560349e+01
2.472843e+02	-2.565375e+01
2.487126e+02	-2.570693e+01
2.501492e+02	-2.575072e+01
2.515940e+02	-2.580344e+01
2.530472e+02	-2.585242e+01
2.545088e+02	-2.590405e+01
2.559789e+02	-2.594975e+01
2.574574e+02	-2.600326e+01
2.589444e+02	-2.605047e+01
2.604401e+02	-2.610352e+01
2.619444e+02	-2.615553e+01
2.634574e+02	-2.620496e+01
2.649791e+02	-2.625241e+01
2.665096e+02	-2.630484e+01
2.680489e+02	-2.635465e+01
2.695972e+02	-2.640344e+01
2.711544e+02	-2.644981e+01
2.727205e+02	-2.650516e+01
2.742958e+02	-2.655313e+01
2.758801e+02	-2.660354e+01
2.774736e+02	-2.665696e+01
2.790762e+02	-2.670443e+01
2.806882e+02	-2.675484e+01
2.823094e+02	-2.680433e+01
2.839400e+02	-2.685611e+01
2.855800e+02	-2.689687e+01
2.872295e+02	-2.695056e+01
2.888886e+02	-2.700286e+01
2.905572e+02	-2.705409e+01
2.922354e+02	-2.710183e+01
2.939234e+02	-2.715754e+01
2.956211e+02	-2.720264e+01
2.973286e+02	-2.725220e+01
2.990459e+02	-2.730147e+01
3.007732e+02	-2.734994e+01
3.025104e+02	-2.740781e+01
3.042577e+02	-2.745413e+01
3.060151e+02	-2.750469e+01
3.077826e+02	-2.755400e+01
3.095604e+02	-2.760163e+01
3.113484e+02	-2.765534e+01
3.131467e+02	-2.770123e+01
3.149554e+02	-2.775500e+01
3.167746e+02	-2.780571e+01
3.186043e+02	-2.785504e+01
3.204445e+02	-2.790437e+01
3.222954e+02	-2.795404e+01
3.241570e+02	-2.800274e+01
3.260293e+02	-2.805304e+01
3.279124e+02	-2.810548e+01
3.298064e+02	-2.815421e+01
3.317114e+02	-2.820067e+01
3.336273e+02	-2.825734e+01
3.355544e+02	-2.830412e+01
3.374925e+02	-2.835251e+01
3.394418e+02	-2.840620e+01
3.414024e+02	-2.844957e+01
3.433744e+02	-2.850560e+01
3.453577e+02	-2.855532e+01
3.473525e+02	-2.860039e+01
3.493588e+02	-2.865251e+01
3.513766e+02	-2.870698e+01
3.534062e+02	-2.875314e+01
3.554474e+02	-2.880229e+01
3.575005e+02	-2.885277e+01
3.595654e+02	-2.890341e+01
3.616422e+02	-2.895399e+01
3.637311e+02	-2.900465e+01
3.658320e+02	-2.905505e+01
3.679450e+02	-2.910249e+01
3.700702e+02	-2.915291e+01
3.722077e+02	-2.920128e+01
3.743576e+02	-2.925807e+01
3.765199e+02	-2.930664e+01
3.786946e+02	-2.935220e+01
3.808820e+02	-2.940689e+01
3.830819e+02	-2.945544e+01
3.852946e+02	-2.950035e+01
3.875200e+02	-2.955577e+01
3.897583e+02	-2.960545e+01
3.920096e+02	-2.965460e+01
3.942738e+02	-2.970348e+01
3.965511e+02	-2.975690e+01
3.988416e+02	-2.980624e+01
4.011452e+02	-2.985636e+01
4.034622e+02	-2.990979e+01
4.057926e+02	-2.995854e+01
4.081365e+02	-3.000492e+01
4.104938e+02	-3.005563e+01
4.128648e+02	-3.010753e+01
4.152495e+02	-3.015421e+01
4.176480e+02	-3.020670e+01
4.200603e+02	-3.025906e+01
4.224866e+02	-3.031146e+01
4.249268e+02	-3.035737e+01
4.273812e+02	-3.041101e+01
4.298497e+02	-3.045653e+01
4.323325e+02	-3.050918e+01
4.348297e+02	-3.055411e+01
4.373412e+02	-3.060490e+01
4.398673e+02	-3.065203e+01
4.424079e+02	-3.070577e+01
4.449633e+02	-3.075761e+01
4.475334e+02	-3.080587e+01
4.501183e+02	-3.085801e+01
4.527182e+02	-3.090245e+01
4.553330e+02	-3.095821e+01
4.579630e+02	-3.100614e+01
4.606082e+02	-3.105787e+01
4.632687e+02	-3.111008e+01
4.659445e+02	-3.115688e+01
4.686358e+02	-3.121173e+01
4.713426e+02	-3.126231e+01
4.740650e+02	-3.131381e+01
4.768032e+02	-3.135436e+01
4.795572e+02	-3.141296e+01
4.823271e+02	-3.145736e+01
4.851130e+02	-3.150683e+01
4.879150e+02	-3.156677e+01
4.907332e+02	-3.160958e+01
4.935676e+02	-3.166163e+01
4.964185e+02	-3.170987e+01
4.992858e+02	-3.176499e+01
5.021696e+02	-3.182008e+01
5.050701e+02	-3.185876e+01
5.079874e+02	-3.191572e+01
5.109215e+02	-3.195923e+01
5.138726e+02	-3.201206e+01
5.168407e+02	-3.205934e+01
5.198259e+02	-3.211411e+01
5.228284e+02	-3.215912e+01
5.258482e+02	-3.221176e+01
5.288855e+02	-3.226332e+01
5.319403e+02	-3.231618e+01
5.350128e+02	-3.236597e+01
5.381030e+02	-3.240876e+01
5.412111e+02	-3.246063e+01
5.443371e+02	-3.252188e+01
5.474812e+02	-3.256294e+01
5.506434e+02	-3.261603e+01
5.538239e+02	-3.267138e+01
5.570228e+02	-3.271987e+01
5.602401e+02	-3.276544e+01
5.634760e+02	-3.281884e+01
5.667306e+02	-3.286514e+01
5.700040e+02	-3.291485e+01
5.732964e+02	-3.296461e+01
5.766077e+02	-3.301992e+01
5.799382e+02	-3.307105e+01
5.832879e+02	-3.312136e+01
5.866569e+02	-3.316707e+01
5.900454e+02	-3.321644e+01
5.934535e+02	-3.327615e+01
5.968813e+02	-3.331857e+01
6.003288e+02	-3.336174e+01
6.037963e+02	-3.342010e+01
6.072838e+02	-3.347312e+01
6.107914e+02	-3.352142e+01
6.143194e+02	-3.357029e+01
6.178676e+02	-3.362090e+01
6.214364e+02	-3.366676e+01
6.250258e+02	-3.372272e+01
6.286359e+02	-3.376961e+01
6.322669e+02	-3.382621e+01
6.359189e+02	-3.387261e+01
6.395919e+02	-3.391745e+01
6.432862e+02	-3.397119e+01
6.470017e+02	-3.402814e+01
6.507388e+02	-3.407766e+01
6.544974e+02	-3.412149e+01
6.582778e+02	-3.416968e+01
6.620800e+02	-3.423391e+01
6.659041e+02	-3.426990e+01
6.697504e+02	-3.432580e+01
6.736188e+02	-3.437238e+01
6.775096e+02	-3.442200e+01
6.814229e+02	-3.447348e+01
6.853587e+02	-3.452958e+01
6.893173e+02	-3.457068e+01
6.932988e+02	-3.463189e+01
6.973033e+02	-3.467382e+01
7.013309e+02	-3.472397e+01
