Frequency(Hz)	Magnitude(dB)
1.000000e+01	-2.005617e+00
1.005776e+01	-2.024450e+00
1.011585e+01	-2.043046e+00
1.017428e+01	-2.061680e+00
1.023305e+01	-2.080642e+00
1.029215e+01	-2.100002e+00
1.035160e+01	-2.118857e+00
1.041139e+01	-2.138398e+00
1.047153e+01	-2.158014e+00
1.053201e+01	-2.177569e+00
1.059284e+01	-2.197552e+00
1.065403e+01	-2.217290e+00
1.071556e+01	-2.237288e+00
1.077746e+01	-2.257821e+00
1.083971e+01	-2.277913e+00
1.090232e+01	-2.298518e+00
1.096529e+01	-2.319241e+00
1.102862e+01	-2.339913e+00
1.109232e+01	-2.360830e+00
1.115639e+01	-2.381677e+00
1.122083e+01	-2.402948e+00
1.128564e+01	-2.424422e+00
1.135083e+01	-2.445842e+00
1.141639e+01	-2.467595e+00
1.148233e+01	-2.489417e+00
1.154865e+01	-2.511009e+00
1.161536e+01	-2.533193e+00
1.168245e+01	-2.555275e+00
1.174992e+01	-2.577706e+00
1.181779e+01	-2.599975e+00
1.188605e+01	-2.622816e+00
1.195470e+01	-2.645342e+00
1.202375e+01	-2.668289e+00
1.209320e+01	-2.691359e+00
1.216305e+01	-2.714677e+00
1.223330e+01	-2.738107e+00
1.230396e+01	-2.761182e+00
1.237503e+01	-2.784897e+00
1.244651e+01	-2.808628e+00
1.251840e+01	-2.832484e+00
1.259070e+01	-2.856577e+00
1.266343e+01	-2.880860e+00
1.273657e+01	-2.905052e+00
1.281014e+01	-2.929412e+00
1.288413e+01	-2.954426e+00
1.295855e+01	-2.978778e+00
1.303339e+01	-3.003787e+00
1.310867e+01	-3.028950e+00
1.318439e+01	-3.054220e+00
1.326054e+01	-3.079338e+00
1.333713e+01	-3.104802e+00
1.341417e+01	-3.130443e+00
1.349165e+01	-3.156206e+00
1.356958e+01	-3.182119e+00
1.364795e+01	-3.208361e+00
1.372678e+01	-3.234401e+00
1.380607e+01	-3.260958e+00
1.388581e+01	-3.287372e+00
1.396602e+01	-3.313954e+00
1.404668e+01	-3.340852e+00
1.412782e+01	-3.367739e+00
1.420942e+01	-3.394856e+00
1.429149e+01	-3.421914e+00
1.437404e+01	-3.449081e+00
1.445706e+01	-3.476794e+00
1.454057e+01	-3.504242e+00
1.462455e+01	-3.532075e+00
1.470902e+01	-3.559916e+00
1.479398e+01	-3.588138e+00
1.487943e+01	-3.616351e+00
1.496537e+01	-3.644517e+00
1.505181e+01	-3.673216e+00
1.513875e+01	-3.701935e+00
1.522619e+01	-3.730583e+00
1.531414e+01	-3.759463e+00
1.540259e+01	-3.788594e+00
1.549156e+01	-3.817730e+00
1.558103e+01	-3.847152e+00
1.567103e+01	-3.876636e+00
1.576155e+01	-3.906114e+00
1.585258e+01	-3.936050e+00
1.594415e+01	-3.965512e+00
1.603624e+01	-3.995781e+00
1.612886e+01	-4.025996e+00
1.622202e+01	-4.056388e+00
1.631572e+01	-4.086797e+00
1.640996e+01	-4.117226e+00
1.650474e+01	-4.147930e+00
1.660008e+01	-4.178866e+00
1.669596e+01	-4.209835e+00
1.679239e+01	-4.240995e+00
1.688938e+01	-4.272114e+00
1.698694e+01	-4.303514e+00
1.708505e+01	-4.334787e+00
1.718373e+01	-4.366580e+00
1.728299e+01	-4.398420e+00
1.738281e+01	-4.430298e+00
1.748322e+01	-4.462467e+00
1.758420e+01	-4.494704e+00
1.768576e+01	-4.526814e+00
1.778792e+01	-4.559485e+00
1.789066e+01	-4.592010e+00
1.799399e+01	-4.624404e+00
1.809793e+01	-4.657719e+00
1.820246e+01	-4.690565e+00
1.830760e+01	-4.723555e+00
1.841334e+01	-4.756890e+00
1.851969e+01	-4.790037e+00
1.862666e+01	-4.823789e+00
1.873425e+01	-4.857329e+00
1.884246e+01	-4.891098e+00
1.895129e+01	-4.924738e+00
1.906075e+01	-4.958858e+00
1.917085e+01	-4.993129e+00
1.928158e+01	-5.027159e+00
1.939295e+01	-5.061689e+00
1.950496e+01	-5.095917e+00
1.961762e+01	-5.130590e+00
1.973093e+01	-5.165354e+00
1.984490e+01	-5.200178e+00
1.995952e+01	-5.235217e+00
2.007480e+01	-5.270361e+00
2.019076e+01	-5.305583e+00
2.030738e+01	-5.341018e+00
2.042467e+01	-5.376274e+00
2.054264e+01	-5.412031e+00
2.066130e+01	-5.447345e+00
2.078064e+01	-5.483708e+00
2.090066e+01	-5.519494e+00
2.102139e+01	-5.555266e+00
2.114280e+01	-5.591600e+00
2.126492e+01	-5.628216e+00
2.138775e+01	-5.664339e+00
2.151128e+01	-5.700840e+00
2.163553e+01	-5.737436e+00
2.176050e+01	-5.774061e+00
2.188619e+01	-5.811276e+00
2.201260e+01	-5.847692e+00
2.213974e+01	-5.884949e+00
2.226762e+01	-5.922499e+00
2.239624e+01	-5.959254e+00
2.252560e+01	-5.996801e+00
2.265571e+01	-6.034203e+00
2.278656e+01	-6.071913e+00
2.291818e+01	-6.109960e+00
2.305055e+01	-6.147727e+00
2.318369e+01	-6.185486e+00
2.331760e+01	-6.223401e+00
2.345228e+01	-6.261550e+00
2.358774e+01	-6.299934e+00
2.372398e+01	-6.338010e+00
2.386101e+01	-6.376469e+00
2.399883e+01	-6.415014e+00
2.413745e+01	-6.453949e+00
2.427686e+01	-6.492611e+00
2.441709e+01	-6.531712e+00
2.455812e+01	-6.570464e+00
2.469997e+01	-6.609741e+00
2.484263e+01	-6.648748e+00
2.498612e+01	-6.687866e+00
2.513044e+01	-6.727349e+00
2.527559e+01	-6.766343e+00
2.542158e+01	-6.806444e+00
2.556842e+01	-6.846132e+00
2.571610e+01	-6.885517e+00
2.586463e+01	-6.925567e+00
2.601403e+01	-6.965395e+00
2.616428e+01	-7.005477e+00
2.631541e+01	-7.045393e+00
2.646740e+01	-7.085490e+00
2.662028e+01	-7.126212e+00
2.677404e+01	-7.166336e+00
2.692868e+01	-7.206551e+00
2.708422e+01	-7.247270e+00
2.724066e+01	-7.288049e+00
2.739800e+01	-7.328997e+00
2.755625e+01	-7.369596e+00
2.771541e+01	-7.410154e+00
2.787550e+01	-7.451251e+00
2.803650e+01	-7.492816e+00
2.819844e+01	-7.533371e+00
2.836131e+01	-7.574743e+00
2.852513e+01	-7.616078e+00
2.868989e+01	-7.657722e+00
2.885560e+01	-7.699046e+00
2.902227e+01	-7.740760e+00
2.918990e+01	-7.782066e+00
2.935850e+01	-7.824156e+00
2.952807e+01	-7.865734e+00
2.969863e+01	-7.907926e+00
2.987016e+01	-7.949939e+00
3.004269e+01	-7.991771e+00
3.021622e+01	-8.034014e+00
3.039075e+01	-8.076174e+00
3.056628e+01	-8.118223e+00
3.074283e+01	-8.160254e+00
3.092040e+01	-8.203374e+00
3.109900e+01	-8.245788e+00
3.127862e+01	-8.288312e+00
3.145929e+01	-8.330782e+00
3.164099e+01	-8.373605e+00
3.182375e+01	-8.416578e+00
3.200756e+01	-8.458635e+00
3.219244e+01	-8.502404e+00
3.237838e+01	-8.544957e+00
3.256540e+01	-8.587994e+00
3.275349e+01	-8.631690e+00
3.294268e+01	-8.674649e+00
3.313295e+01	-8.717970e+00
3.332433e+01	-8.761157e+00
3.351681e+01	-8.804384e+00
3.371040e+01	-8.848302e+00
3.390511e+01	-8.891316e+00
3.410094e+01	-8.935056e+00
3.429791e+01	-8.978937e+00
3.449601e+01	-9.022843e+00
3.469526e+01	-9.066488e+00
3.489566e+01	-9.110481e+00
3.509721e+01	-9.154337e+00
3.529993e+01	-9.198682e+00
3.550382e+01	-9.242449e+00
3.570889e+01	-9.286003e+00
3.591515e+01	-9.330545e+00
3.612259e+01	-9.374852e+00
3.633123e+01	-9.419237e+00
3.654108e+01	-9.463207e+00
3.675214e+01	-9.507546e+00
3.696442e+01	-9.551960e+00
3.717792e+01	-9.596754e+00
3.739266e+01	-9.641398e+00
3.760864e+01	-9.685528e+00
3.782587e+01	-9.730443e+00
3.804435e+01	-9.775501e+00
3.826409e+01	-9.819994e+00
3.848510e+01	-9.864391e+00
3.870739e+01	-9.909585e+00
3.893096e+01	-9.954829e+00
3.915583e+01	-9.999784e+00
3.938199e+01	-1.004502e+01
3.960946e+01	-1.008943e+01
3.983824e+01	-1.013490e+01
4.006834e+01	-1.018053e+01
4.029978e+01	-1.022554e+01
4.053255e+01	-1.027116e+01
4.076666e+01	-1.031635e+01
4.100213e+01	-1.036175e+01
4.123896e+01	-1.040671e+01
4.147715e+01	-1.045252e+01
4.171672e+01	-1.049814e+01
4.195767e+01	-1.054325e+01
4.220002e+01	-1.058952e+01
4.244377e+01	-1.063523e+01
4.268892e+01	-1.068072e+01
4.293549e+01	-1.072607e+01
4.318348e+01	-1.077265e+01
4.343291e+01	-1.081807e+01
4.368377e+01	-1.086393e+01
4.393609e+01	-1.090984e+01
4.418986e+01	-1.095540e+01
4.444510e+01	-1.100240e+01
4.470182e+01	-1.104767e+01
4.496001e+01	-1.109450e+01
4.521970e+01	-1.114039e+01
4.548089e+01	-1.118609e+01
4.574358e+01	-1.123341e+01
4.600779e+01	-1.127875e+01
4.627353e+01	-1.132559e+01
4.654081e+01	-1.137128e+01
4.680963e+01	-1.141834e+01
4.708000e+01	-1.146466e+01
4.735193e+01	-1.151135e+01
4.762543e+01	-1.155745e+01
4.790051e+01	-1.160474e+01
4.817719e+01	-1.165020e+01
4.845545e+01	-1.169716e+01
4.873533e+01	-1.174348e+01
4.901682e+01	-1.179013e+01
4.929994e+01	-1.183725e+01
4.958470e+01	-1.188445e+01
4.987110e+01	-1.193134e+01
5.015915e+01	-1.197746e+01
5.044887e+01	-1.202454e+01
5.074026e+01	-1.207214e+01
5.103333e+01	-1.211895e+01
5.132810e+01	-1.216554e+01
5.162457e+01	-1.221345e+01
5.192275e+01	-1.226025e+01
5.222265e+01	-1.230692e+01
5.252429e+01	-1.235386e+01
5.282767e+01	-1.240007e+01
5.313280e+01	-1.244764e+01
5.343969e+01	-1.249498e+01
5.374836e+01	-1.254198e+01
5.405880e+01	-1.258986e+01
5.437105e+01	-1.263688e+01
5.468509e+01	-1.268529e+01
5.500095e+01	-1.273187e+01
5.531863e+01	-1.277875e+01
5.563815e+01	-1.282637e+01
5.595951e+01	-1.287377e+01
5.628273e+01	-1.292153e+01
5.660782e+01	-1.296863e+01
5.693479e+01	-1.301616e+01
5.726364e+01	-1.306372e+01
5.759439e+01	-1.311159e+01
5.792705e+01	-1.315958e+01
5.826164e+01	-1.320654e+01
5.859815e+01	-1.325397e+01
5.893662e+01	-1.330200e+01
5.927703e+01	-1.334995e+01
5.961941e+01	-1.339766e+01
5.996377e+01	-1.344511e+01
6.031012e+01	-1.349275e+01
6.065847e+01	-1.354097e+01
6.100883e+01	-1.358835e+01
6.136121e+01	-1.363636e+01
6.171563e+01	-1.368423e+01
6.207210e+01	-1.373236e+01
6.243063e+01	-1.378024e+01
6.279122e+01	-1.382850e+01
6.315390e+01	-1.387626e+01
6.351868e+01	-1.392440e+01
6.388556e+01	-1.397219e+01
6.425456e+01	-1.402013e+01
6.462569e+01	-1.406789e+01
6.499897e+01	-1.411625e+01
6.537440e+01	-1.416334e+01
6.575200e+01	-1.421132e+01
6.613178e+01	-1.426055e+01
6.651375e+01	-1.430894e+01
6.689793e+01	-1.435719e+01
6.728433e+01	-1.440464e+01
6.767297e+01	-1.445330e+01
6.806384e+01	-1.450183e+01
6.845698e+01	-1.455062e+01
6.885238e+01	-1.459795e+01
6.925007e+01	-1.464672e+01
6.965005e+01	-1.469553e+01
7.005235e+01	-1.474329e+01
7.045697e+01	-1.479215e+01
7.086393e+01	-1.483961e+01
7.127323e+01	-1.488776e+01
7.168490e+01	-1.493640e+01
7.209895e+01	-1.498570e+01
7.251539e+01	-1.503385e+01
7.293424e+01	-1.508124e+01
7.335551e+01	-1.512955e+01
7.377920e+01	-1.517943e+01
7.420535e+01	-1.522726e+01
7.463396e+01	-1.527611e+01
7.506504e+01	-1.532449e+01
7.549861e+01	-1.537346e+01
7.593469e+01	-1.542167e+01
7.637328e+01	-1.547104e+01
7.681441e+01	-1.551819e+01
7.725809e+01	-1.556735e+01
7.770433e+01	-1.561619e+01
7.815315e+01	-1.566481e+01
7.860456e+01	-1.571343e+01
7.905857e+01	-1.576156e+01
7.951521e+01	-1.581145e+01
7.997449e+01	-1.585926e+01
8.043642e+01	-1.590784e+01
8.090102e+01	-1.595872e+01
8.136830e+01	-1.600522e+01
8.183828e+01	-1.605566e+01
8.231097e+01	-1.610290e+01
8.278640e+01	-1.615397e+01
8.326457e+01	-1.620164e+01
8.374550e+01	-1.625013e+01
8.422921e+01	-1.629891e+01
8.471572e+01	-1.634766e+01
8.520503e+01	-1.639569e+01
8.569717e+01	-1.644526e+01
8.619215e+01	-1.649497e+01
8.669000e+01	-1.654228e+01
8.719071e+01	-1.659250e+01
8.769432e+01	-1.664105e+01
8.820084e+01	-1.668895e+01
8.871029e+01	-1.673914e+01
8.922267e+01	-1.678802e+01
8.973802e+01	-1.683639e+01
9.025634e+01	-1.688649e+01
9.077766e+01	-1.693543e+01
9.130199e+01	-1.698428e+01
9.182935e+01	-1.703319e+01
9.235975e+01	-1.708165e+01
9.289321e+01	-1.713092e+01
9.342976e+01	-1.718122e+01
9.396941e+01	-1.722880e+01
9.451217e+01	-1.727900e+01
9.505807e+01	-1.732731e+01
9.560712e+01	-1.737643e+01
9.615934e+01	-1.742631e+01
9.671476e+01	-1.747407e+01
9.727338e+01	-1.752386e+01
9.783522e+01	-1.757310e+01
9.840032e+01	-1.762246e+01
9.896867e+01	-1.767150e+01
9.954031e+01	-1.771999e+01
1.001153e+02	-1.776974e+01
1.006935e+02	-1.781954e+01
1.012751e+02	-1.786852e+01
1.018601e+02	-1.791747e+01
1.024484e+02	-1.796659e+01
1.030402e+02	-1.801629e+01
1.036353e+02	-1.806523e+01
1.042339e+02	-1.811521e+01
1.048360e+02	-1.816381e+01
1.054415e+02	-1.821439e+01
1.060505e+02	-1.826238e+01
1.066631e+02	-1.831100e+01
1.072791e+02	-1.836173e+01
1.078988e+02	-1.841142e+01
1.085220e+02	-1.845870e+01
1.091488e+02	-1.850820e+01
1.097793e+02	-1.855641e+01
1.104133e+02	-1.860736e+01
1.110511e+02	-1.865628e+01
1.116925e+02	-1.870632e+01
1.123376e+02	-1.875559e+01
1.129865e+02	-1.880505e+01
1.136391e+02	-1.885379e+01
1.142955e+02	-1.890458e+01
1.149556e+02	-1.895464e+01
1.156196e+02	-1.900199e+01
1.162874e+02	-1.905195e+01
1.169591e+02	-1.910232e+01
1.176347e+02	-1.915022e+01
1.183141e+02	-1.920103e+01
1.189975e+02	-1.924926e+01
1.196848e+02	-1.929936e+01
1.203761e+02	-1.934751e+01
1.210714e+02	-1.939858e+01
1.217707e+02	-1.944761e+01
1.224740e+02	-1.949739e+01
1.231814e+02	-1.954641e+01
1.238929e+02	-1.959486e+01
1.246085e+02	-1.964656e+01
1.253283e+02	-1.969510e+01
1.260522e+02	-1.974679e+01
1.267802e+02	-1.979374e+01
1.275125e+02	-1.984402e+01
1.282490e+02	-1.989210e+01
1.289898e+02	-1.994275e+01
1.297348e+02	-1.999297e+01
1.304842e+02	-2.004303e+01
1.312378e+02	-2.009081e+01
1.319959e+02	-2.014159e+01
1.327583e+02	-2.018764e+01
1.335251e+02	-2.023948e+01
1.342963e+02	-2.029029e+01
1.350720e+02	-2.033921e+01
1.358522e+02	-2.038701e+01
1.366368e+02	-2.043765e+01
1.374260e+02	-2.048794e+01
1.382198e+02	-2.053732e+01
1.390182e+02	-2.058810e+01
1.398211e+02	-2.063684e+01
1.406287e+02	-2.068623e+01
1.414410e+02	-2.073435e+01
1.422579e+02	-2.078447e+01
1.430796e+02	-2.083628e+01
1.439060e+02	-2.088668e+01
1.447372e+02	-2.093673e+01
1.455732e+02	-2.098515e+01
1.464141e+02	-2.103442e+01
1.472597e+02	-2.108360e+01
1.481103e+02	-2.113061e+01
1.489658e+02	-2.118460e+01
1.498262e+02	-2.123035e+01
1.506916e+02	-2.128003e+01
1.515620e+02	-2.133106e+01
1.524374e+02	-2.138134e+01
1.533179e+02	-2.142964e+01
1.542034e+02	-2.148186e+01
1.550941e+02	-2.153017e+01
1.559899e+02	-2.157836e+01
1.568909e+02	-2.162791e+01
1.577971e+02	-2.167840e+01
1.587085e+02	-2.172921e+01
1.596252e+02	-2.177882e+01
1.605472e+02	-2.182728e+01
1.614745e+02	-2.187763e+01
1.624072e+02	-2.192704e+01
1.633453e+02	-2.197908e+01
1.642887e+02	-2.202804e+01
1.652377e+02	-2.207755e+01
1.661921e+02	-2.212740e+01
1.671520e+02	-2.217742e+01
1.681175e+02	-2.222539e+01
1.690885e+02	-2.227627e+01
1.700651e+02	-2.232610e+01
1.710474e+02	-2.237549e+01
1.720354e+02	-2.242387e+01
1.730291e+02	-2.247195e+01
1.740285e+02	-2.252572e+01
1.750337e+02	-2.257440e+01
1.760446e+02	-2.262437e+01
1.770615e+02	-2.267553e+01
1.780842e+02	-2.272482e+01
1.791128e+02	-2.277327e+01
1.801473e+02	-2.282140e+01
1.811878e+02	-2.287251e+01
1.822344e+02	-2.292455e+01
1.832870e+02	-2.297193e+01
1.843456e+02	-2.302090e+01
1.854104e+02	-2.307007e+01
1.864813e+02	-2.312266e+01
1.875584e+02	-2.317165e+01
1.886418e+02	-2.322398e+01
1.897313e+02	-2.327078e+01
1.908272e+02	-2.332075e+01
1.919294e+02	-2.337090e+01
1.930380e+02	-2.342420e+01
1.941530e+02	-2.347105e+01
1.952744e+02	-2.352110e+01
1.964023e+02	-2.357187e+01
1.975367e+02	-2.362141e+01
1.986777e+02	-2.367139e+01
1.998252e+02	-2.371988e+01
2.009794e+02	-2.377141e+01
2.021403e+02	-2.381932e+01
2.033078e+02	-2.387185e+01
2.044821e+02	-2.391770e+01
2.056632e+02	-2.396954e+01
2.068511e+02	-2.401881e+01
2.080459e+02	-2.406774e+01
2.092475e+02	-2.411841e+01
2.104561e+02	-2.417114e+01
2.116717e+02	-2.421892e+01
2.128943e+02	-2.427034e+01
2.141240e+02	-2.432020e+01
2.153608e+02	-2.436895e+01
2.166047e+02	-2.441765e+01
2.178558e+02	-2.446854e+01
2.191141e+02	-2.451711e+01
2.203797e+02	-2.456896e+01
2.216526e+02	-2.461906e+01
2.229329e+02	-2.466956e+01
2.242205e+02	-2.471789e+01
2.255156e+02	-2.476728e+01
2.268182e+02	-2.481641e+01
2.281283e+02	-2.486904e+01
2.294459e+02	-2.491875e+01
2.307712e+02	-2.496571e+01
2.321041e+02	-2.501562e+01
2.334447e+02	-2.506790e+01
2.347931e+02	-2.511908e+01
2.361493e+02	-2.516794e+01
2.375133e+02	-2.521719e+01
2.388851e+02	-2.526519e+01
2.402649e+02	-2.531867e+01
2.416527e+02	-2.536475e+01
2.430484e+02	-2.541764e+01
2.444523e+02	-2.546391e+01
2.458642e+02	-2.551610e+01
2.472843e+02	-2.556614e+01
2.487126e+02	-2.561600e+01
2.501492e+02	-2.566403e+01
2.515940e+02	-2.571817e+01
2.530472e+02	-2.576684e+01
2.545088e+02	-2.581438e+01
2.559789e+02	-2.586805e+01
2.574574e+02	-2.591830e+01
2.589444e+02	-2.596660e+01
2.604401e+02	-2.601390e+01
2.619444e+02	-2.606783e+01
2.634574e+02	-2.611603e+01
2.649791e+02	-2.616426e+01
2.665096e+02	-2.621661e+01
2.680489e+02	-2.626636e+01
2.695972e+02	-2.631880e+01
2.711544e+02	-2.636617e+01
2.727205e+02	-2.641703e+01
2.742958e+02	-2.646926e+01
2.758801e+02	-2.651570e+01
2.774736e+02	-2.656291e+01
2.790762e+02	-2.661413e+01
2.806882e+02	-2.666482e+01
2.823094e+02	-2.671829e+01
2.839400e+02	-2.676225e+01
2.855800e+02	-2.681739e+01
2.872295e+02	-2.686526e+01
2.888886e+02	-2.691243e+01
2.905572e+02	-2.696440e+01
2.922354e+02	-2.701011e+01
2.939234e+02	-2.706866e+01
2.956211e+02	-2.711701e+01
2.973286e+02	-2.716945e+01
2.990459e+02	-2.721533e+01
3.007732e+02	-2.726601e+01
3.025104e+02	-2.731617e+01
3.042577e+02	-2.736494e+01
3.060151e+02	-2.741536e+01
3.077826e+02	-2.746478e+01
3.095604e+02	-2.751417e+01
3.113484e+02	-2.756641e+01
3.131467e+02	-2.761956e+01
3.149554e+02	-2.766473e+01
3.167746e+02	-2.771614e+01
3.186043e+02	-2.776512e+01
3.204445e+02	-2.781482e+01
3.222954e+02	-2.786590e+01
3.241570e+02	-2.791583e+01
3.260293e+02	-2.796569e+01
3.279124e+02	-2.801670e+01
3.298064e+02	-2.806805e+01
3.317114e+02	-2.811421e+01
3.336273e+02	-2.816473e+01
3.355544e+02	-2.821834e+01
3.374925e+02	-2.826015e+01
3.394418e+02	-2.831844e+01
3.414024e+02	-2.836908e+01
3.433744e+02	-2.841195e+01
3.453577e+02	-2.846534e+01
3.473525e+02	-2.851683e+01
3.493588e+02	-2.856329e+01
3.513766e+02	-2.861402e+01
3.534062e+02	-2.866696e+01
3.554474e+02	-2.871648e+01
3.575005e+02	-2.876868e+01
3.595654e+02	-2.881894e+01
3.616422e+02	-2.886300e+01
3.637311e+02	-2.891676e+01
3.658320e+02	-2.896153e+01
3.679450e+02	-2.901549e+01
3.700702e+02	-2.906866e+01
3.722077e+02	-2.911769e+01
3.743576e+02	-2.917144e+01
3.765199e+02	-2.921849e+01
3.786946e+02	-2.925900e+01
3.808820e+02	-2.931825e+01
3.830819e+02	-2.936387e+01
3.852946e+02	-2.941798e+01
3.875200e+02	-2.946479e+01
3.897583e+02	-2.952036e+01
3.920096e+02	-2.956979e+01
3.942738e+02	-2.961625e+01
3.965511e+02	-2.966639e+01
3.988416e+02	-2.971947e+01
4.011452e+02	-2.977022e+01
4.034622e+02	-2.982165e+01
4.057926e+02	-2.986671e+01
4.081365e+02	-2.992083e+01
4.104938e+02	-2.996929e+01
4.128648e+02	-3.001975e+01
4.152495e+02	-3.006854e+01
4.176480e+02	-3.012033e+01
4.200603e+02	-3.016770e+01
4.224866e+02	-3.021308e+01
4.249268e+02	-3.026445e+01
4.273812e+02	-3.032344e+01
4.298497e+02	-3.037017e+01
4.323325e+02	-3.042144e+01
4.348297e+02	-3.047272e+01
4.373412e+02	-3.052420e+01
4.398673e+02	-3.057017e+01
4.424079e+02	-3.062388e+01
4.449633e+02	-3.067738e+01
4.475334e+02	-3.072000e+01
4.501183e+02	-3.077246e+01
4.527182e+02	-3.082030e+01
4.553330e+02	-3.087339e+01
4.579630e+02	-3.091753e+01
4.606082e+02	-3.096795e+01
4.632687e+02	-3.102184e+01
4.659445e+02	-3.107583e+01
4.686358e+02	-3.112830e+01
4.713426e+02	-3.117297e+01
4.740650e+02	-3.121876e+01
4.768032e+02	-3.126924e+01
4.795572e+02	-3.132166e+01
4.823271e+02	-3.137667e+01
4.851130e+02	-3.142511e+01
4.879150e+02	-3.146737e+01
4.907332e+02	-3.152016e+01
4.935676e+02	-3.157281e+01
4.964185e+02	-3.162015e+01
4.992858e+02	-3.167279e+01
5.021696e+02	-3.172458e+01
5.050701e+02	-3.176898e+01
5.079874e+02	-3.182394e+01
5.109215e+02	-3.187943e+01
5.138726e+02	-3.192825e+01
5.168407e+02	-3.197471e+01
5.198259e+02	-3.202365e+01
5.228284e+02	-3.207784e+01
5.258482e+02	-3.212338e+01
5.288855e+02	-3.217412e+01
5.319403e+02	-3.222241e+01
5.350128e+02	-3.227870e+01
5.381030e+02	-3.232431e+01
5.412111e+02	-3.237536e+01
5.443371e+02	-3.242210e+01
5.474812e+02	-3.247405e+01
5.506434e+02	-3.253376e+01
5.538239e+02	-3.257751e+01
5.570228e+02	-3.262549e+01
5.602401e+02	-3.267377e+01
5.634760e+02	-3.273001e+01
5.667306e+02	-3.277620e+01
5.700040e+02	-3.283254e+01
5.732964e+02	-3.287805e+01
5.766077e+02	-3.292706e+01
5.799382e+02	-3.297955e+01
5.832879e+02	-3.302189e+01
5.866569e+02	-3.307243e+01
5.900454e+02	-3.313485e+01
5.934535e+02	-3.318173e+01
5.968813e+02	-3.322307e+01
6.003288e+02	-3.328058e+01
6.037963e+02	-3.333094e+01
6.072838e+02	-3.338447e+01
6.107914e+02	-3.342958e+01
6.143194e+02	-3.348426e+01
6.178676e+02	-3.352944e+01
6.214364e+02	-3.358124e+01
6.250258e+02	-3.363166e+01
6.286359e+02	-3.368084e+01
6.322669e+02	-3.372441e+01
6.359189e+02	-3.378376e+01
6.395919e+02	-3.383268e+01
6.432862e+02	-3.389038e+01
6.470017e+02	-3.393021e+01
6.507388e+02	-3.398035e+01
6.544974e+02	-3.403312e+01
6.582778e+02	-3.408187e+01
6.620800e+02	-3.412926e+01
6.659041e+02	-3.417699e+01
6.697504e+02	-3.423869e+01
6.736188e+02	-3.428651e+01
6.775096e+02	-3.434549e+01
6.814229e+02	-3.438648e+01
6.853587e+02	-3.443083e+01
6.893173e+02	-3.448589e+01
6.932988e+02	-3.454380e+01
6.973033e+02	-3.459621e+01
7.013309e+02	-3.464285e+01
