Frequency(Hz)	Magnitude(dB)
1.000000e+01	-2.249328e+00
1.005776e+01	-2.269510e+00
1.011585e+01	-2.290164e+00
1.017428e+01	-2.310507e+00
1.023305e+01	-2.331370e+00
1.029215e+01	-2.352214e+00
1.035160e+01	-2.373542e+00
1.041139e+01	-2.394421e+00
1.047153e+01	-2.415863e+00
1.053201e+01	-2.437126e+00
1.059284e+01	-2.458561e+00
1.065403e+01	-2.480303e+00
1.071556e+01	-2.502081e+00
1.077746e+01	-2.524028e+00
1.083971e+01	-2.546189e+00
1.090232e+01	-2.568346e+00
1.096529e+01	-2.591057e+00
1.102862e+01	-2.613645e+00
1.109232e+01	-2.636380e+00
1.115639e+01	-2.659017e+00
1.122083e+01	-2.682236e+00
1.128564e+01	-2.705180e+00
1.135083e+01	-2.728459e+00
1.141639e+01	-2.751888e+00
1.148233e+01	-2.775283e+00
1.154865e+01	-2.798965e+00
1.161536e+01	-2.822762e+00
1.168245e+01	-2.846805e+00
1.174992e+01	-2.870970e+00
1.181779e+01	-2.895005e+00
1.188605e+01	-2.919753e+00
1.195470e+01	-2.944371e+00
1.202375e+01	-2.968943e+00
1.209320e+01	-2.993509e+00
1.216305e+01	-3.018470e+00
1.223330e+01	-3.043936e+00
1.230396e+01	-3.069123e+00
1.237503e+01	-3.094609e+00
1.244651e+01	-3.120013e+00
1.251840e+01	-3.145647e+00
1.259070e+01	-3.171717e+00
1.266343e+01	-3.197599e+00
1.273657e+01	-3.224081e+00
1.281014e+01	-3.250263e+00
1.288413e+01	-3.276423e+00
1.295855e+01	-3.303160e+00
1.303339e+01	-3.329829e+00
1.310867e+01	-3.356830e+00
1.318439e+01	-3.383553e+00
1.326054e+01	-3.410834e+00
1.333713e+01	-3.438064e+00
1.341417e+01	-3.465603e+00
1.349165e+01	-3.492987e+00
1.356958e+01	-3.520750e+00
1.364795e+01	-3.548401e+00
1.372678e+01	-3.576624e+00
1.380607e+01	-3.604838e+00
1.388581e+01	-3.633148e+00
1.396602e+01	-3.661378e+00
1.404668e+01	-3.690046e+00
1.412782e+01	-3.718729e+00
1.420942e+01	-3.747566e+00
1.429149e+01	-3.776914e+00
1.437404e+01	-3.806095e+00
1.445706e+01	-3.835237e+00
1.454057e+01	-3.864497e+00
1.462455e+01	-3.894003e+00
1.470902e+01	-3.923764e+00
1.479398e+01	-3.953449e+00
1.487943e+01	-3.983353e+00
1.496537e+01	-4.013282e+00
1.505181e+01	-4.043806e+00
1.513875e+01	-4.074059e+00
1.522619e+01	-4.104416e+00
1.531414e+01	-4.135476e+00
1.540259e+01	-4.165968e+00
1.549156e+01	-4.197071e+00
1.558103e+01	-4.227967e+00
1.567103e+01	-4.259254e+00
1.576155e+01	-4.290652e+00
1.585258e+01	-4.322187e+00
1.594415e+01	-4.353723e+00
1.603624e+01	-4.385485e+00
1.612886e+01	-4.417174e+00
1.622202e+01	-4.449338e+00
1.631572e+01	-4.481409e+00
1.640996e+01	-4.513731e+00
1.650474e+01	-4.546121e+00
1.660008e+01	-4.578675e+00
1.669596e+01	-4.611336e+00
1.679239e+01	-4.644062e+00
1.688938e+01	-4.676800e+00
1.698694e+01	-4.710183e+00
1.708505e+01	-4.743483e+00
1.718373e+01	-4.776635e+00
1.728299e+01	-4.810041e+00
1.738281e+01	-4.843650e+00
1.748322e+01	-4.877243e+00
1.758420e+01	-4.911084e+00
1.768576e+01	-4.945132e+00
1.778792e+01	-4.979039e+00
1.789066e+01	-5.013127e+00
1.799399e+01	-5.047600e+00
1.809793e+01	-5.082222e+00
1.820246e+01	-5.116486e+00
1.830760e+01	-5.151443e+00
1.841334e+01	-5.185918e+00
1.851969e+01	-5.220781e+00
1.862666e+01	-5.256203e+00
1.873425e+01	-5.291426e+00
1.884246e+01	-5.326422e+00
1.895129e+01	-5.361849e+00
1.906075e+01	-5.397374e+00
1.917085e+01	-5.433041e+00
1.928158e+01	-5.468577e+00
1.939295e+01	-5.504565e+00
1.950496e+01	-5.540622e+00
1.961762e+01	-5.576787e+00
1.973093e+01	-5.612818e+00
1.984490e+01	-5.649550e+00
1.995952e+01	-5.685740e+00
2.007480e+01	-5.722495e+00
2.019076e+01	-5.759417e+00
2.030738e+01	-5.795905e+00
2.042467e+01	-5.832940e+00
2.054264e+01	-5.869806e+00
2.066130e+01	-5.907240e+00
2.078064e+01	-5.943963e+00
2.090066e+01	-5.981967e+00
2.102139e+01	-6.019091e+00
2.114280e+01	-6.056809e+00
2.126492e+01	-6.094003e+00
2.138775e+01	-6.132456e+00
2.151128e+01	-6.170138e+00
2.163553e+01	-6.208208e+00
2.176050e+01	-6.246300e+00
2.188619e+01	-6.284196e+00
2.201260e+01	-6.322352e+00
2.213974e+01	-6.361072e+00
2.226762e+01	-6.399546e+00
2.239624e+01	-6.438177e+00
2.252560e+01	-6.477143e+00
2.265571e+01	-6.515512e+00
2.278656e+01	-6.554359e+00
2.291818e+01	-6.593387e+00
2.305055e+01	-6.632909e+00
2.318369e+01	-6.672163e+00
2.331760e+01	-6.711175e+00
2.345228e+01	-6.750350e+00
2.358774e+01	-6.790346e+00
2.372398e+01	-6.829597e+00
2.386101e+01	-6.869735e+00
2.399883e+01	-6.909542e+00
2.413745e+01	-6.948999e+00
2.427686e+01	-6.989442e+00
2.441709e+01	-7.029538e+00
2.455812e+01	-7.069201e+00
2.469997e+01	-7.109280e+00
2.484263e+01	-7.150163e+00
2.498612e+01	-7.190338e+00
2.513044e+01	-7.230780e+00
2.527559e+01	-7.271606e+00
2.542158e+01	-7.311856e+00
2.556842e+01	-7.352802e+00
2.571610e+01	-7.393649e+00
2.586463e+01	-7.434605e+00
2.601403e+01	-7.475799e+00
2.616428e+01	-7.517054e+00
2.631541e+01	-7.558437e+00
2.646740e+01	-7.599358e+00
2.662028e+01	-7.640542e+00
2.677404e+01	-7.681956e+00
2.692868e+01	-7.723778e+00
2.708422e+01	-7.765363e+00
2.724066e+01	-7.807409e+00
2.739800e+01	-7.848916e+00
2.755625e+01	-7.890484e+00
2.771541e+01	-7.932480e+00
2.787550e+01	-7.974678e+00
2.803650e+01	-8.016887e+00
2.819844e+01	-8.058818e+00
2.836131e+01	-8.101201e+00
2.852513e+01	-8.143563e+00
2.868989e+01	-8.185683e+00
2.885560e+01	-8.228241e+00
2.902227e+01	-8.270633e+00
2.918990e+01	-8.313580e+00
2.935850e+01	-8.356409e+00
2.952807e+01	-8.399015e+00
2.969863e+01	-8.441808e+00
2.987016e+01	-8.484714e+00
3.004269e+01	-8.527441e+00
3.021622e+01	-8.570730e+00
3.039075e+01	-8.613517e+00
3.056628e+01	-8.656881e+00
3.074283e+01	-8.699678e+00
3.092040e+01	-8.743644e+00
3.109900e+01	-8.786300e+00
3.127862e+01	-8.830469e+00
3.145929e+01	-8.873717e+00
3.164099e+01	-8.917385e+00
3.182375e+01	-8.960735e+00
3.200756e+01	-9.005031e+00
3.219244e+01	-9.048696e+00
3.237838e+01	-9.092567e+00
3.256540e+01	-9.136425e+00
3.275349e+01	-9.179980e+00
3.294268e+01	-9.224470e+00
3.313295e+01	-9.268200e+00
3.332433e+01	-9.312381e+00
3.351681e+01	-9.356181e+00
3.371040e+01	-9.401088e+00
3.390511e+01	-9.445164e+00
3.410094e+01	-9.489745e+00
3.429791e+01	-9.533984e+00
3.449601e+01	-9.578518e+00
3.469526e+01	-9.623193e+00
3.489566e+01	-9.667508e+00
3.509721e+01	-9.712028e+00
3.529993e+01	-9.757445e+00
3.550382e+01	-9.801763e+00
3.570889e+01	-9.846620e+00
3.591515e+01	-9.891451e+00
3.612259e+01	-9.936371e+00
3.633123e+01	-9.981098e+00
3.654108e+01	-1.002648e+01
3.675214e+01	-1.007170e+01
3.696442e+01	-1.011631e+01
3.717792e+01	-1.016178e+01
3.739266e+01	-1.020642e+01
3.760864e+01	-1.025191e+01
3.782587e+01	-1.029721e+01
3.804435e+01	-1.034236e+01
3.826409e+01	-1.038819e+01
3.848510e+01	-1.043361e+01
3.870739e+01	-1.047903e+01
3.893096e+01	-1.052476e+01
3.915583e+01	-1.057074e+01
3.938199e+01	-1.061694e+01
3.960946e+01	-1.066212e+01
3.983824e+01	-1.070771e+01
4.006834e+01	-1.075365e+01
4.029978e+01	-1.079930e+01
4.053255e+01	-1.084436e+01
4.076666e+01	-1.089118e+01
4.100213e+01	-1.093701e+01
4.123896e+01	-1.098297e+01
4.147715e+01	-1.102946e+01
4.171672e+01	-1.107469e+01
4.195767e+01	-1.112175e+01
4.220002e+01	-1.116710e+01
4.244377e+01	-1.121363e+01
4.268892e+01	-1.125943e+01
4.293549e+01	-1.130614e+01
4.318348e+01	-1.135299e+01
4.343291e+01	-1.139924e+01
4.368377e+01	-1.144564e+01
4.393609e+01	-1.149149e+01
4.418986e+01	-1.153825e+01
4.444510e+01	-1.158529e+01
4.470182e+01	-1.163167e+01
4.496001e+01	-1.167834e+01
4.521970e+01	-1.172475e+01
4.548089e+01	-1.177150e+01
4.574358e+01	-1.181808e+01
4.600779e+01	-1.186478e+01
4.627353e+01	-1.191219e+01
4.654081e+01	-1.195872e+01
4.680963e+01	-1.200524e+01
4.708000e+01	-1.205251e+01
4.735193e+01	-1.209953e+01
4.762543e+01	-1.214643e+01
4.790051e+01	-1.219350e+01
4.817719e+01	-1.224021e+01
4.845545e+01	-1.228756e+01
4.873533e+01	-1.233475e+01
4.901682e+01	-1.238180e+01
4.929994e+01	-1.242831e+01
4.958470e+01	-1.247639e+01
4.987110e+01	-1.252289e+01
5.015915e+01	-1.257051e+01
5.044887e+01	-1.261830e+01
5.074026e+01	-1.266530e+01
5.103333e+01	-1.271201e+01
5.132810e+01	-1.275940e+01
5.162457e+01	-1.280721e+01
5.192275e+01	-1.285466e+01
5.222265e+01	-1.290185e+01
5.252429e+01	-1.294913e+01
5.282767e+01	-1.299622e+01
5.313280e+01	-1.304392e+01
5.343969e+01	-1.309115e+01
5.374836e+01	-1.313900e+01
5.405880e+01	-1.318707e+01
5.437105e+01	-1.323495e+01
5.468509e+01	-1.328187e+01
5.500095e+01	-1.332965e+01
5.531863e+01	-1.337808e+01
5.563815e+01	-1.342568e+01
5.595951e+01	-1.347318e+01
5.628273e+01	-1.352110e+01
5.660782e+01	-1.356806e+01
5.693479e+01	-1.361652e+01
5.726364e+01	-1.366523e+01
5.759439e+01	-1.371315e+01
5.792705e+01	-1.376120e+01
5.826164e+01	-1.380831e+01
5.859815e+01	-1.385619e+01
5.893662e+01	-1.390486e+01
5.927703e+01	-1.395255e+01
5.961941e+01	-1.399984e+01
5.996377e+01	-1.404785e+01
6.031012e+01	-1.409595e+01
6.065847e+01	-1.414520e+01
6.100883e+01	-1.419217e+01
6.136121e+01	-1.424049e+01
6.171563e+01	-1.428877e+01
6.207210e+01	-1.433659e+01
6.243063e+01	-1.438524e+01
6.279122e+01	-1.443277e+01
6.315390e+01	-1.448187e+01
6.351868e+01	-1.453027e+01
6.388556e+01	-1.457889e+01
6.425456e+01	-1.462719e+01
6.462569e+01	-1.467460e+01
6.499897e+01	-1.472369e+01
6.537440e+01	-1.477189e+01
6.575200e+01	-1.482077e+01
6.613178e+01	-1.486877e+01
6.651375e+01	-1.491716e+01
6.689793e+01	-1.496485e+01
6.728433e+01	-1.501355e+01
6.767297e+01	-1.506103e+01
6.806384e+01	-1.511058e+01
6.845698e+01	-1.515905e+01
6.885238e+01	-1.520765e+01
6.925007e+01	-1.525665e+01
6.965005e+01	-1.530438e+01
7.005235e+01	-1.535300e+01
7.045697e+01	-1.540186e+01
7.086393e+01	-1.545055e+01
7.127323e+01	-1.549881e+01
7.168490e+01	-1.554805e+01
7.209895e+01	-1.559716e+01
7.251539e+01	-1.564484e+01
7.293424e+01	-1.569371e+01
7.335551e+01	-1.574246e+01
7.377920e+01	-1.579095e+01
7.420535e+01	-1.583991e+01
7.463396e+01	-1.588823e+01
7.506504e+01	-1.593703e+01
7.549861e+01	-1.598573e+01
7.593469e+01	-1.603457e+01
7.637328e+01	-1.608281e+01
7.681441e+01	-1.613238e+01
7.725809e+01	-1.618147e+01
7.770433e+01	-1.623023e+01
7.815315e+01	-1.627990e+01
7.860456e+01	-1.632760e+01
7.905857e+01	-1.637658e+01
7.951521e+01	-1.642501e+01
7.997449e+01	-1.647457e+01
8.043642e+01	-1.652383e+01
8.090102e+01	-1.657279e+01
8.136830e+01	-1.662151e+01
8.183828e+01	-1.667064e+01
8.231097e+01	-1.671987e+01
8.278640e+01	-1.676709e+01
8.326457e+01	-1.681783e+01
8.374550e+01	-1.686620e+01
8.422921e+01	-1.691514e+01
8.471572e+01	-1.696305e+01
8.520503e+01	-1.701387e+01
8.569717e+01	-1.706252e+01
8.619215e+01	-1.711078e+01
8.669000e+01	-1.716116e+01
8.719071e+01	-1.720958e+01
8.769432e+01	-1.725805e+01
8.820084e+01	-1.730716e+01
8.871029e+01	-1.735711e+01
8.922267e+01	-1.740584e+01
8.973802e+01	-1.745467e+01
9.025634e+01	-1.750382e+01
9.077766e+01	-1.755456e+01
9.130199e+01	-1.760182e+01
9.182935e+01	-1.765276e+01
9.235975e+01	-1.770164e+01
9.289321e+01	-1.774997e+01
9.342976e+01	-1.779825e+01
9.396941e+01	-1.784837e+01
9.451217e+01	-1.789759e+01
9.505807e+01	-1.794587e+01
9.560712e+01	-1.799547e+01
9.615934e+01	-1.804504e+01
9.671476e+01	-1.809396e+01
9.727338e+01	-1.814373e+01
9.783522e+01	-1.819348e+01
9.840032e+01	-1.824282e+01
9.896867e+01	-1.829269e+01
9.954031e+01	-1.834083e+01
1.001153e+02	-1.839051e+01
1.006935e+02	-1.844071e+01
1.012751e+02	-1.848908e+01
1.018601e+02	-1.853839e+01
1.024484e+02	-1.858732e+01
1.030402e+02	-1.863801e+01
1.036353e+02	-1.868714e+01
1.042339e+02	-1.873560e+01
1.048360e+02	-1.878439e+01
1.054415e+02	-1.883363e+01
1.060505e+02	-1.888505e+01
1.066631e+02	-1.893317e+01
1.072791e+02	-1.898164e+01
1.078988e+02	-1.903068e+01
1.085220e+02	-1.908019e+01
1.091488e+02	-1.913072e+01
1.097793e+02	-1.918145e+01
1.104133e+02	-1.922898e+01
1.110511e+02	-1.927882e+01
1.116925e+02	-1.932774e+01
1.123376e+02	-1.937693e+01
1.129865e+02	-1.942744e+01
1.136391e+02	-1.947802e+01
1.142955e+02	-1.952516e+01
1.149556e+02	-1.957422e+01
1.156196e+02	-1.962577e+01
1.162874e+02	-1.967536e+01
1.169591e+02	-1.972301e+01
1.176347e+02	-1.977340e+01
1.183141e+02	-1.982293e+01
1.189975e+02	-1.987302e+01
1.196848e+02	-1.992286e+01
1.203761e+02	-1.997228e+01
1.210714e+02	-2.002068e+01
1.217707e+02	-2.007041e+01
1.224740e+02	-2.012262e+01
1.231814e+02	-2.016899e+01
1.238929e+02	-2.021945e+01
1.246085e+02	-2.027024e+01
1.253283e+02	-2.031788e+01
1.260522e+02	-2.036750e+01
1.267802e+02	-2.042015e+01
1.275125e+02	-2.046746e+01
1.282490e+02	-2.051734e+01
1.289898e+02	-2.056680e+01
1.297348e+02	-2.061679e+01
1.304842e+02	-2.066492e+01
1.312378e+02	-2.071450e+01
1.319959e+02	-2.076335e+01
1.327583e+02	-2.081503e+01
1.335251e+02	-2.086255e+01
1.342963e+02	-2.091472e+01
1.350720e+02	-2.096451e+01
1.358522e+02	-2.101157e+01
1.366368e+02	-2.106250e+01
1.374260e+02	-2.111344e+01
1.382198e+02	-2.116305e+01
1.390182e+02	-2.121289e+01
1.398211e+02	-2.126173e+01
1.406287e+02	-2.131150e+01
1.414410e+02	-2.136112e+01
1.422579e+02	-2.141028e+01
1.430796e+02	-2.146070e+01
1.439060e+02	-2.150925e+01
1.447372e+02	-2.156014e+01
1.455732e+02	-2.161151e+01
1.464141e+02	-2.166103e+01
1.472597e+02	-2.171009e+01
1.481103e+02	-2.175753e+01
1.489658e+02	-2.180744e+01
1.498262e+02	-2.185803e+01
1.506916e+02	-2.190792e+01
1.515620e+02	-2.195759e+01
1.524374e+02	-2.200560e+01
1.533179e+02	-2.205792e+01
1.542034e+02	-2.210580e+01
1.550941e+02	-2.215424e+01
1.559899e+02	-2.220536e+01
1.568909e+02	-2.225612e+01
1.577971e+02	-2.230541e+01
1.587085e+02	-2.235360e+01
1.596252e+02	-2.240510e+01
1.605472e+02	-2.245302e+01
1.614745e+02	-2.250387e+01
1.624072e+02	-2.255337e+01
1.633453e+02	-2.260268e+01
1.642887e+02	-2.265480e+01
1.652377e+02	-2.270317e+01
1.661921e+02	-2.275280e+01
1.671520e+02	-2.280385e+01
1.681175e+02	-2.285175e+01
1.690885e+02	-2.290017e+01
1.700651e+02	-2.295273e+01
1.710474e+02	-2.300158e+01
1.720354e+02	-2.305310e+01
1.730291e+02	-2.310119e+01
1.740285e+02	-2.315270e+01
1.750337e+02	-2.320228e+01
1.760446e+02	-2.325037e+01
1.770615e+02	-2.330215e+01
1.780842e+02	-2.335202e+01
1.791128e+02	-2.340147e+01
1.801473e+02	-2.344972e+01
1.811878e+02	-2.349977e+01
1.822344e+02	-2.355031e+01
1.832870e+02	-2.360177e+01
1.843456e+02	-2.365096e+01
1.854104e+02	-2.369907e+01
1.864813e+02	-2.374787e+01
1.875584e+02	-2.379804e+01
1.886418e+02	-2.384933e+01
1.897313e+02	-2.389950e+01
1.908272e+02	-2.394875e+01
1.919294e+02	-2.399756e+01
1.930380e+02	-2.404976e+01
1.941530e+02	-2.409576e+01
1.952744e+02	-2.414940e+01
1.964023e+02	-2.419787e+01
1.975367e+02	-2.424672e+01
1.986777e+02	-2.429708e+01
1.998252e+02	-2.434528e+01
2.009794e+02	-2.439969e+01
2.021403e+02	-2.444769e+01
2.033078e+02	-2.449882e+01
2.044821e+02	-2.454578e+01
2.056632e+02	-2.459874e+01
2.068511e+02	-2.464659e+01
2.080459e+02	-2.469605e+01
2.092475e+02	-2.474709e+01
2.104561e+02	-2.479709e+01
2.116717e+02	-2.484582e+01
2.128943e+02	-2.489802e+01
2.141240e+02	-2.494667e+01
2.153608e+02	-2.499646e+01
2.166047e+02	-2.504599e+01
2.178558e+02	-2.509543e+01
2.191141e+02	-2.514724e+01
2.203797e+02	-2.519582e+01
2.216526e+02	-2.524606e+01
2.229329e+02	-2.529724e+01
2.242205e+02	-2.534258e+01
2.255156e+02	-2.539612e+01
2.268182e+02	-2.544669e+01
2.281283e+02	-2.549564e+01
2.294459e+02	-2.554686e+01
2.307712e+02	-2.559476e+01
2.321041e+02	-2.564785e+01
2.334447e+02	-2.569465e+01
2.347931e+02	-2.574539e+01
2.361493e+02	-2.579649e+01
2.375133e+02	-2.584700e+01
2.388851e+02	-2.589630e+01
2.402649e+02	-2.594674e+01
2.416527e+02	-2.599868e+01
2.430484e+02	-2.604575e+01
2.444523e+02	-2.609246e+01
2.458642e+02	-2.614464e+01
2.472843e+02	-2.619534e+01
2.487126e+02	-2.624524e+01
2.501492e+02	-2.629613e+01
2.515940e+02	-2.634491e+01
2.530472e+02	-2.639401e+01
2.545088e+02	-2.644195e+01
2.559789e+02	-2.649328e+01
2.574574e+02	-2.654899e+01
2.589444e+02	-2.659384e+01
2.604401e+02	-2.664475e+01
2.619444e+02	-2.669486e+01
2.634574e+02	-2.674317e+01
2.649791e+02	-2.679244e+01
2.665096e+02	-2.684316e+01
2.680489e+02	-2.689465e+01
2.695972e+02	-2.694262e+01
2.711544e+02	-2.699744e+01
2.727205e+02	-2.704704e+01
2.742958e+02	-2.709376e+01
2.758801e+02	-2.714569e+01
2.774736e+02	-2.719241e+01
2.790762e+02	-2.724448e+01
2.806882e+02	-2.729497e+01
2.823094e+02	-2.734871e+01
2.839400e+02	-2.739424e+01
2.855800e+02	-2.744242e+01
2.872295e+02	-2.749310e+01
2.888886e+02	-2.754029e+01
2.905572e+02	-2.759280e+01
2.922354e+02	-2.764063e+01
2.939234e+02	-2.769671e+01
2.956211e+02	-2.774755e+01
2.973286e+02	-2.779451e+01
2.990459e+02	-2.784764e+01
3.007732e+02	-2.789617e+01
3.025104e+02	-2.794259e+01
3.042577e+02	-2.799389e+01
3.060151e+02	-2.804500e+01
3.077826e+02	-2.809298e+01
3.095604e+02	-2.814482e+01
3.113484e+02	-2.819556e+01
3.131467e+02	-2.824137e+01
3.149554e+02	-2.829739e+01
3.167746e+02	-2.834814e+01
3.186043e+02	-2.840056e+01
3.204445e+02	-2.844010e+01
3.222954e+02	-2.848953e+01
3.241570e+02	-2.854845e+01
3.260293e+02	-2.859759e+01
3.279124e+02	-2.864693e+01
3.298064e+02	-2.869647e+01
3.317114e+02	-2.874225e+01
3.336273e+02	-2.879665e+01
3.355544e+02	-2.884394e+01
3.374925e+02	-2.889604e+01
3.394418e+02	-2.895203e+01
3.414024e+02	-2.899316e+01
3.433744e+02	-2.904536e+01
3.453577e+02	-2.909365e+01
3.473525e+02	-2.914320e+01
3.493588e+02	-2.919549e+01
3.513766e+02	-2.924282e+01
3.534062e+02	-2.929302e+01
3.554474e+02	-2.935050e+01
3.575005e+02	-2.939504e+01
3.595654e+02	-2.944926e+01
3.616422e+02	-2.949819e+01
3.637311e+02	-2.954673e+01
3.658320e+02	-2.959595e+01
3.679450e+02	-2.964867e+01
3.700702e+02	-2.970262e+01
3.722077e+02	-2.974576e+01
3.743576e+02	-2.979497e+01
3.765199e+02	-2.984879e+01
3.786946e+02	-2.989328e+01
3.808820e+02	-2.994716e+01
3.830819e+02	-3.000265e+01
3.852946e+02	-3.004456e+01
3.875200e+02	-3.009364e+01
3.897583e+02	-3.013939e+01
3.920096e+02	-3.020162e+01
3.942738e+02	-3.024749e+01
3.965511e+02	-3.029891e+01
3.988416e+02	-3.034884e+01
4.011452e+02	-3.039997e+01
4.034622e+02	-3.044640e+01
4.057926e+02	-3.049668e+01
4.081365e+02	-3.055016e+01
4.104938e+02	-3.059650e+01
4.128648e+02	-3.065062e+01
4.152495e+02	-3.069512e+01
4.176480e+02	-3.074405e+01
4.200603e+02	-3.079632e+01
4.224866e+02	-3.084533e+01
4.249268e+02	-3.090001e+01
4.273812e+02	-3.094804e+01
4.298497e+02	-3.100376e+01
4.323325e+02	-3.104944e+01
4.348297e+02	-3.109887e+01
4.373412e+02	-3.115097e+01
4.398673e+02	-3.119765e+01
4.424079e+02	-3.125106e+01
4.449633e+02	-3.129856e+01
4.475334e+02	-3.134629e+01
4.501183e+02	-3.140084e+01
4.527182e+02	-3.145226e+01
4.553330e+02	-3.149839e+01
4.579630e+02	-3.155474e+01
4.606082e+02	-3.159756e+01
4.632687e+02	-3.164306e+01
4.659445e+02	-3.170152e+01
4.686358e+02	-3.175028e+01
4.713426e+02	-3.180352e+01
4.740650e+02	-3.184725e+01
4.768032e+02	-3.190193e+01
4.795572e+02	-3.195323e+01
4.823271e+02	-3.199786e+01
4.851130e+02	-3.206006e+01
4.879150e+02	-3.210322e+01
4.907332e+02	-3.216002e+01
4.935676e+02	-3.220417e+01
4.964185e+02	-3.225269e+01
4.992858e+02	-3.230334e+01
5.021696e+02	-3.235178e+01
5.050701e+02	-3.240656e+01
5.079874e+02	-3.245105e+01
5.109215e+02	-3.251090e+01
5.138726e+02	-3.255016e+01
5.168407e+02	-3.260858e+01
5.198259e+02	-3.265553e+01
5.228284e+02	-3.270162e+01
5.258482e+02	-3.275820e+01
5.288855e+02	-3.281575e+01
5.319403e+02	-3.285444e+01
5.350128e+02	-3.290346e+01
5.381030e+02	-3.295626e+01
5.412111e+02	-3.300642e+01
5.443371e+02	-3.305409e+01
5.474812e+02	-3.311228e+01
5.506434e+02	-3.315900e+01
5.538239e+02	-3.320854e+01
5.570228e+02	-3.325813e+01
5.602401e+02	-3.330677e+01
5.634760e+02	-3.336500e+01
5.667306e+02	-3.341273e+01
5.700040e+02	-3.346667e+01
5.732964e+02	-3.350652e+01
5.766077e+02	-3.355924e+01
5.799382e+02	-3.360488e+01
5.832879e+02	-3.366284e+01
5.866569e+02	-3.371296e+01
5.900454e+02	-3.375906e+01
5.934535e+02	-3.380713e+01
5.968813e+02	-3.385981e+01
6.003288e+02	-3.390603e+01
6.037963e+02	-3.396321e+01
6.072838e+02	-3.401320e+01
6.107914e+02	-3.406405e+01
6.143194e+02	-3.411104e+01
6.178676e+02	-3.416151e+01
6.214364e+02	-3.421563e+01
6.250258e+02	-3.426948e+01
6.286359e+02	-3.431985e+01
6.322669e+02	-3.436579e+01
6.359189e+02	-3.441529e+01
6.395919e+02	-3.446581e+01
6.432862e+02	-3.451938e+01
6.470017e+02	-3.456971e+01
6.507388e+02	-3.461946e+01
6.544974e+02	-3.467090e+01
6.582778e+02	-3.472469e+01
6.620800e+02	-3.476403e+01
6.659041e+02	-3.481941e+01
6.697504e+02	-3.486376e+01
6.736188e+02	-3.492022e+01
6.775096e+02	-3.496411e+01
6.814229e+02	-3.501953e+01
6.853587e+02	-3.506724e+01
6.893173e+02	-3.511692e+01
6.932988e+02	-3.517737e+01
6.973033e+02	-3.521886e+01
7.013309e+02	-3.526367e+01
