Frequency(Hz)	Magnitude(dB)
1.000000e+01	-2.297071e+00
1.005776e+01	-2.318063e+00
1.011585e+01	-2.338613e+00
1.017428e+01	-2.359491e+00
1.023305e+01	-2.380510e+00
1.029215e+01	-2.401634e+00
1.035160e+01	-2.423147e+00
1.041139e+01	-2.444548e+00
1.047153e+01	-2.466083e+00
1.053201e+01	-2.487965e+00
1.059284e+01	-2.509954e+00
1.065403e+01	-2.531865e+00
1.071556e+01	-2.553930e+00
1.077746e+01	-2.576284e+00
1.083971e+01	-2.599036e+00
1.090232e+01	-2.621358e+00
1.096529e+01	-2.644035e+00
1.102862e+01	-2.666741e+00
1.109232e+01	-2.689924e+00
1.115639e+01	-2.713194e+00
1.122083e+01	-2.736644e+00
1.128564e+01	-2.759806e+00
1.135083e+01	-2.783570e+00
1.141639e+01	-2.807342e+00
1.148233e+01	-2.831193e+00
1.154865e+01	-2.855381e+00
1.161536e+01	-2.879255e+00
1.168245e+01	-2.903625e+00
1.174992e+01	-2.928133e+00
1.181779e+01	-2.952773e+00
1.188605e+01	-2.977302e+00
1.195470e+01	-3.002450e+00
1.202375e+01	-3.027597e+00
1.209320e+01	-3.052502e+00
1.216305e+01	-3.078176e+00
1.223330e+01	-3.103582e+00
1.230396e+01	-3.129121e+00
1.237503e+01	-3.154763e+00
1.244651e+01	-3.180577e+00
1.251840e+01	-3.206793e+00
1.259070e+01	-3.233036e+00
1.266343e+01	-3.259306e+00
1.273657e+01	-3.285914e+00
1.281014e+01	-3.312491e+00
1.288413e+01	-3.339400e+00
1.295855e+01	-3.366127e+00
1.303339e+01	-3.393138e+00
1.310867e+01	-3.420555e+00
1.318439e+01	-3.447554e+00
1.326054e+01	-3.475019e+00
1.333713e+01	-3.502781e+00
1.341417e+01	-3.530559e+00
1.349165e+01	-3.558506e+00
1.356958e+01	-3.586570e+00
1.364795e+01	-3.614507e+00
1.372678e+01	-3.642839e+00
1.380607e+01	-3.671181e+00
1.388581e+01	-3.700105e+00
1.396602e+01	-3.728678e+00
1.404668e+01	-3.757763e+00
1.412782e+01	-3.786862e+00
1.420942e+01	-3.815979e+00
1.429149e+01	-3.845391e+00
1.437404e+01	-3.874801e+00
1.445706e+01	-3.904318e+00
1.454057e+01	-3.934007e+00
1.462455e+01	-3.964149e+00
1.470902e+01	-3.994261e+00
1.479398e+01	-4.024053e+00
1.487943e+01	-4.054444e+00
1.496537e+01	-4.084878e+00
1.505181e+01	-4.115390e+00
1.513875e+01	-4.146251e+00
1.522619e+01	-4.177041e+00
1.531414e+01	-4.207815e+00
1.540259e+01	-4.238927e+00
1.549156e+01	-4.270428e+00
1.558103e+01	-4.301930e+00
1.567103e+01	-4.333003e+00
1.576155e+01	-4.364959e+00
1.585258e+01	-4.396692e+00
1.594415e+01	-4.428395e+00
1.603624e+01	-4.460460e+00
1.612886e+01	-4.492582e+00
1.622202e+01	-4.524835e+00
1.631572e+01	-4.557387e+00
1.640996e+01	-4.590095e+00
1.650474e+01	-4.622780e+00
1.660008e+01	-4.655419e+00
1.669596e+01	-4.688670e+00
1.679239e+01	-4.721505e+00
1.688938e+01	-4.754585e+00
1.698694e+01	-4.788288e+00
1.708505e+01	-4.821704e+00
1.718373e+01	-4.855436e+00
1.728299e+01	-4.888953e+00
1.738281e+01	-4.922887e+00
1.748322e+01	-4.956650e+00
1.758420e+01	-4.990818e+00
1.768576e+01	-5.025221e+00
1.778792e+01	-5.059541e+00
1.789066e+01	-5.094049e+00
1.799399e+01	-5.129029e+00
1.809793e+01	-5.163465e+00
1.820246e+01	-5.198208e+00
1.830760e+01	-5.233189e+00
1.841334e+01	-5.268245e+00
1.851969e+01	-5.303354e+00
1.862666e+01	-5.338783e+00
1.873425e+01	-5.374482e+00
1.884246e+01	-5.410107e+00
1.895129e+01	-5.445751e+00
1.906075e+01	-5.481542e+00
1.917085e+01	-5.517432e+00
1.928158e+01	-5.553283e+00
1.939295e+01	-5.589749e+00
1.950496e+01	-5.625800e+00
1.961762e+01	-5.662298e+00
1.973093e+01	-5.698725e+00
1.984490e+01	-5.735402e+00
1.995952e+01	-5.771794e+00
2.007480e+01	-5.808538e+00
2.019076e+01	-5.845732e+00
2.030738e+01	-5.882860e+00
2.042467e+01	-5.920123e+00
2.054264e+01	-5.957199e+00
2.066130e+01	-5.994835e+00
2.078064e+01	-6.032361e+00
2.090066e+01	-6.069630e+00
2.102139e+01	-6.107309e+00
2.114280e+01	-6.145684e+00
2.126492e+01	-6.183282e+00
2.138775e+01	-6.221292e+00
2.151128e+01	-6.259349e+00
2.163553e+01	-6.297875e+00
2.176050e+01	-6.335953e+00
2.188619e+01	-6.374611e+00
2.201260e+01	-6.413053e+00
2.213974e+01	-6.451720e+00
2.226762e+01	-6.490299e+00
2.239624e+01	-6.529425e+00
2.252560e+01	-6.568155e+00
2.265571e+01	-6.607039e+00
2.278656e+01	-6.646173e+00
2.291818e+01	-6.685837e+00
2.305055e+01	-6.724869e+00
2.318369e+01	-6.764616e+00
2.331760e+01	-6.804014e+00
2.345228e+01	-6.843308e+00
2.358774e+01	-6.883480e+00
2.372398e+01	-6.923407e+00
2.386101e+01	-6.963181e+00
2.399883e+01	-7.003161e+00
2.413745e+01	-7.043130e+00
2.427686e+01	-7.083535e+00
2.441709e+01	-7.123642e+00
2.455812e+01	-7.164053e+00
2.469997e+01	-7.204330e+00
2.484263e+01	-7.244865e+00
2.498612e+01	-7.285288e+00
2.513044e+01	-7.326443e+00
2.527559e+01	-7.367241e+00
2.542158e+01	-7.407807e+00
2.556842e+01	-7.449298e+00
2.571610e+01	-7.489668e+00
2.586463e+01	-7.531000e+00
2.601403e+01	-7.572788e+00
2.616428e+01	-7.613980e+00
2.631541e+01	-7.655241e+00
2.646740e+01	-7.696668e+00
2.662028e+01	-7.738229e+00
2.677404e+01	-7.779809e+00
2.692868e+01	-7.821679e+00
2.708422e+01	-7.863689e+00
2.724066e+01	-7.905489e+00
2.739800e+01	-7.947104e+00
2.755625e+01	-7.989292e+00
2.771541e+01	-8.031425e+00
2.787550e+01	-8.074114e+00
2.803650e+01	-8.115810e+00
2.819844e+01	-8.158459e+00
2.836131e+01	-8.200733e+00
2.852513e+01	-8.243357e+00
2.868989e+01	-8.285770e+00
2.885560e+01	-8.328484e+00
2.902227e+01	-8.371049e+00
2.918990e+01	-8.414099e+00
2.935850e+01	-8.456710e+00
2.952807e+01	-8.499680e+00
2.969863e+01	-8.542854e+00
2.987016e+01	-8.586295e+00
3.004269e+01	-8.629078e+00
3.021622e+01	-8.671899e+00
3.039075e+01	-8.715383e+00
3.056628e+01	-8.758643e+00
3.074283e+01	-8.801982e+00
3.092040e+01	-8.845574e+00
3.109900e+01	-8.888680e+00
3.127862e+01	-8.932360e+00
3.145929e+01	-8.976488e+00
3.164099e+01	-9.020215e+00
3.182375e+01	-9.064236e+00
3.200756e+01	-9.107652e+00
3.219244e+01	-9.151607e+00
3.237838e+01	-9.195210e+00
3.256540e+01	-9.239667e+00
3.275349e+01	-9.283755e+00
3.294268e+01	-9.328041e+00
3.313295e+01	-9.371548e+00
3.332433e+01	-9.416157e+00
3.351681e+01	-9.461213e+00
3.371040e+01	-9.505299e+00
3.390511e+01	-9.550019e+00
3.410094e+01	-9.594084e+00
3.429791e+01	-9.638288e+00
3.449601e+01	-9.683387e+00
3.469526e+01	-9.728188e+00
3.489566e+01	-9.772451e+00
3.509721e+01	-9.817381e+00
3.529993e+01	-9.862305e+00
3.550382e+01	-9.907275e+00
3.570889e+01	-9.952019e+00
3.591515e+01	-9.997079e+00
3.612259e+01	-1.004196e+01
3.633123e+01	-1.008753e+01
3.654108e+01	-1.013211e+01
3.675214e+01	-1.017764e+01
3.696442e+01	-1.022276e+01
3.717792e+01	-1.026842e+01
3.739266e+01	-1.031329e+01
3.760864e+01	-1.035842e+01
3.782587e+01	-1.040404e+01
3.804435e+01	-1.044987e+01
3.826409e+01	-1.049504e+01
3.848510e+01	-1.054110e+01
3.870739e+01	-1.058660e+01
3.893096e+01	-1.063258e+01
3.915583e+01	-1.067732e+01
3.938199e+01	-1.072328e+01
3.960946e+01	-1.077005e+01
3.983824e+01	-1.081522e+01
4.006834e+01	-1.086109e+01
4.029978e+01	-1.090732e+01
4.053255e+01	-1.095301e+01
4.076666e+01	-1.099917e+01
4.100213e+01	-1.104507e+01
4.123896e+01	-1.109136e+01
4.147715e+01	-1.113768e+01
4.171672e+01	-1.118399e+01
4.195767e+01	-1.122981e+01
4.220002e+01	-1.127637e+01
4.244377e+01	-1.132210e+01
4.268892e+01	-1.136912e+01
4.293549e+01	-1.141560e+01
4.318348e+01	-1.146148e+01
4.343291e+01	-1.150814e+01
4.368377e+01	-1.155487e+01
4.393609e+01	-1.160149e+01
4.418986e+01	-1.164759e+01
4.444510e+01	-1.169476e+01
4.470182e+01	-1.174120e+01
4.496001e+01	-1.178731e+01
4.521970e+01	-1.183482e+01
4.548089e+01	-1.188138e+01
4.574358e+01	-1.192859e+01
4.600779e+01	-1.197516e+01
4.627353e+01	-1.202140e+01
4.654081e+01	-1.206903e+01
4.680963e+01	-1.211590e+01
4.708000e+01	-1.216251e+01
4.735193e+01	-1.220929e+01
4.762543e+01	-1.225678e+01
4.790051e+01	-1.230328e+01
4.817719e+01	-1.235097e+01
4.845545e+01	-1.239761e+01
4.873533e+01	-1.244482e+01
4.901682e+01	-1.249179e+01
4.929994e+01	-1.253961e+01
4.958470e+01	-1.258713e+01
4.987110e+01	-1.263396e+01
5.015915e+01	-1.268178e+01
5.044887e+01	-1.272841e+01
5.074026e+01	-1.277537e+01
5.103333e+01	-1.282399e+01
5.132810e+01	-1.287084e+01
5.162457e+01	-1.291926e+01
5.192275e+01	-1.296574e+01
5.222265e+01	-1.301360e+01
5.252429e+01	-1.306110e+01
5.282767e+01	-1.310862e+01
5.313280e+01	-1.315621e+01
5.343969e+01	-1.320421e+01
5.374836e+01	-1.325200e+01
5.405880e+01	-1.329915e+01
5.437105e+01	-1.334716e+01
5.468509e+01	-1.339413e+01
5.500095e+01	-1.344210e+01
5.531863e+01	-1.348999e+01
5.563815e+01	-1.353779e+01
5.595951e+01	-1.358563e+01
5.628273e+01	-1.363333e+01
5.660782e+01	-1.368112e+01
5.693479e+01	-1.372898e+01
5.726364e+01	-1.377684e+01
5.759439e+01	-1.382497e+01
5.792705e+01	-1.387330e+01
5.826164e+01	-1.392088e+01
5.859815e+01	-1.396976e+01
5.893662e+01	-1.401721e+01
5.927703e+01	-1.406549e+01
5.961941e+01	-1.411313e+01
5.996377e+01	-1.416148e+01
6.031012e+01	-1.420915e+01
6.065847e+01	-1.425696e+01
6.100883e+01	-1.430617e+01
6.136121e+01	-1.435319e+01
6.171563e+01	-1.440230e+01
6.207210e+01	-1.445100e+01
6.243063e+01	-1.449803e+01
6.279122e+01	-1.454620e+01
6.315390e+01	-1.459535e+01
6.351868e+01	-1.464363e+01
6.388556e+01	-1.469227e+01
6.425456e+01	-1.473984e+01
6.462569e+01	-1.478801e+01
6.499897e+01	-1.483750e+01
6.537440e+01	-1.488486e+01
6.575200e+01	-1.493346e+01
6.613178e+01	-1.498182e+01
6.651375e+01	-1.503020e+01
6.689793e+01	-1.507943e+01
6.728433e+01	-1.512708e+01
6.767297e+01	-1.517696e+01
6.806384e+01	-1.522505e+01
6.845698e+01	-1.527297e+01
6.885238e+01	-1.532114e+01
6.925007e+01	-1.537081e+01
6.965005e+01	-1.541891e+01
7.005235e+01	-1.546817e+01
7.045697e+01	-1.551675e+01
7.086393e+01	-1.556553e+01
7.127323e+01	-1.561330e+01
7.168490e+01	-1.566239e+01
7.209895e+01	-1.571045e+01
7.251539e+01	-1.575995e+01
7.293424e+01	-1.580767e+01
7.335551e+01	-1.585580e+01
7.377920e+01	-1.590558e+01
7.420535e+01	-1.595496e+01
7.463396e+01	-1.600357e+01
7.506504e+01	-1.605183e+01
7.549861e+01	-1.609974e+01
7.593469e+01	-1.614953e+01
7.637328e+01	-1.619810e+01
7.681441e+01	-1.624685e+01
7.725809e+01	-1.629570e+01
7.770433e+01	-1.634538e+01
7.815315e+01	-1.639256e+01
7.860456e+01	-1.644325e+01
7.905857e+01	-1.649092e+01
7.951521e+01	-1.654011e+01
7.997449e+01	-1.658914e+01
8.043642e+01	-1.663787e+01
8.090102e+01	-1.668763e+01
8.136830e+01	-1.673721e+01
8.183828e+01	-1.678431e+01
8.231097e+01	-1.683397e+01
8.278640e+01	-1.688320e+01
8.326457e+01	-1.693213e+01
8.374550e+01	-1.698139e+01
8.422921e+01	-1.702991e+01
8.471572e+01	-1.707895e+01
8.520503e+01	-1.712953e+01
8.569717e+01	-1.717772e+01
8.619215e+01	-1.722698e+01
8.669000e+01	-1.727365e+01
8.719071e+01	-1.732409e+01
8.769432e+01	-1.737329e+01
8.820084e+01	-1.742276e+01
8.871029e+01	-1.747180e+01
8.922267e+01	-1.752128e+01
8.973802e+01	-1.757088e+01
9.025634e+01	-1.762033e+01
9.077766e+01	-1.766955e+01
9.130199e+01	-1.771784e+01
9.182935e+01	-1.776642e+01
9.235975e+01	-1.781509e+01
9.289321e+01	-1.786458e+01
9.342976e+01	-1.791612e+01
9.396941e+01	-1.796392e+01
9.451217e+01	-1.801339e+01
9.505807e+01	-1.806112e+01
9.560712e+01	-1.811090e+01
9.615934e+01	-1.815975e+01
9.671476e+01	-1.821086e+01
9.727338e+01	-1.825971e+01
9.783522e+01	-1.830846e+01
9.840032e+01	-1.835797e+01
9.896867e+01	-1.840695e+01
9.954031e+01	-1.845680e+01
1.001153e+02	-1.850668e+01
1.006935e+02	-1.855572e+01
1.012751e+02	-1.860427e+01
1.018601e+02	-1.865375e+01
1.024484e+02	-1.870350e+01
1.030402e+02	-1.875266e+01
1.036353e+02	-1.880101e+01
1.042339e+02	-1.884919e+01
1.048360e+02	-1.890008e+01
1.054415e+02	-1.895100e+01
1.060505e+02	-1.900001e+01
1.066631e+02	-1.904875e+01
1.072791e+02	-1.909789e+01
1.078988e+02	-1.914846e+01
1.085220e+02	-1.919869e+01
1.091488e+02	-1.924624e+01
1.097793e+02	-1.929634e+01
1.104133e+02	-1.934607e+01
1.110511e+02	-1.939521e+01
1.116925e+02	-1.944450e+01
1.123376e+02	-1.949464e+01
1.129865e+02	-1.954090e+01
1.136391e+02	-1.959307e+01
1.142955e+02	-1.964315e+01
1.149556e+02	-1.969204e+01
1.156196e+02	-1.974244e+01
1.162874e+02	-1.979109e+01
1.169591e+02	-1.984164e+01
1.176347e+02	-1.988998e+01
1.183141e+02	-1.993921e+01
1.189975e+02	-1.998906e+01
1.196848e+02	-2.003956e+01
1.203761e+02	-2.008714e+01
1.210714e+02	-2.013704e+01
1.217707e+02	-2.018699e+01
1.224740e+02	-2.023773e+01
1.231814e+02	-2.028598e+01
1.238929e+02	-2.033435e+01
1.246085e+02	-2.038460e+01
1.253283e+02	-2.043484e+01
1.260522e+02	-2.048391e+01
1.267802e+02	-2.053565e+01
1.275125e+02	-2.058448e+01
1.282490e+02	-2.063425e+01
1.289898e+02	-2.068343e+01
1.297348e+02	-2.073037e+01
1.304842e+02	-2.078350e+01
1.312378e+02	-2.083245e+01
1.319959e+02	-2.088336e+01
1.327583e+02	-2.093168e+01
1.335251e+02	-2.098134e+01
1.342963e+02	-2.102897e+01
1.350720e+02	-2.107929e+01
1.358522e+02	-2.112812e+01
1.366368e+02	-2.117917e+01
1.374260e+02	-2.123052e+01
1.382198e+02	-2.127848e+01
1.390182e+02	-2.132804e+01
1.398211e+02	-2.137757e+01
1.406287e+02	-2.142783e+01
1.414410e+02	-2.147804e+01
1.422579e+02	-2.152800e+01
1.430796e+02	-2.157772e+01
1.439060e+02	-2.162752e+01
1.447372e+02	-2.167596e+01
1.455732e+02	-2.172438e+01
1.464141e+02	-2.177601e+01
1.472597e+02	-2.182542e+01
1.481103e+02	-2.187586e+01
1.489658e+02	-2.192549e+01
1.498262e+02	-2.197453e+01
1.506916e+02	-2.202425e+01
1.515620e+02	-2.207366e+01
1.524374e+02	-2.212153e+01
1.533179e+02	-2.217224e+01
1.542034e+02	-2.222300e+01
1.550941e+02	-2.227327e+01
1.559899e+02	-2.232447e+01
1.568909e+02	-2.237207e+01
1.577971e+02	-2.242358e+01
1.587085e+02	-2.247117e+01
1.596252e+02	-2.252186e+01
1.605472e+02	-2.257128e+01
1.614745e+02	-2.262163e+01
1.624072e+02	-2.267090e+01
1.633453e+02	-2.271943e+01
1.642887e+02	-2.276982e+01
1.652377e+02	-2.281954e+01
1.661921e+02	-2.286931e+01
1.671520e+02	-2.291999e+01
1.681175e+02	-2.296860e+01
1.690885e+02	-2.301828e+01
1.700651e+02	-2.306854e+01
1.710474e+02	-2.312016e+01
1.720354e+02	-2.316851e+01
1.730291e+02	-2.321680e+01
1.740285e+02	-2.326850e+01
1.750337e+02	-2.331837e+01
1.760446e+02	-2.336558e+01
1.770615e+02	-2.341862e+01
1.780842e+02	-2.346823e+01
1.791128e+02	-2.351581e+01
1.801473e+02	-2.356850e+01
1.811878e+02	-2.361838e+01
1.822344e+02	-2.366767e+01
1.832870e+02	-2.371701e+01
1.843456e+02	-2.376677e+01
1.854104e+02	-2.381772e+01
1.864813e+02	-2.386539e+01
1.875584e+02	-2.391347e+01
1.886418e+02	-2.396756e+01
1.897313e+02	-2.401716e+01
1.908272e+02	-2.406624e+01
1.919294e+02	-2.411642e+01
1.930380e+02	-2.416510e+01
1.941530e+02	-2.421338e+01
1.952744e+02	-2.426739e+01
1.964023e+02	-2.431751e+01
1.975367e+02	-2.436427e+01
1.986777e+02	-2.441413e+01
1.998252e+02	-2.446369e+01
2.009794e+02	-2.451397e+01
2.021403e+02	-2.456433e+01
2.033078e+02	-2.461387e+01
2.044821e+02	-2.466601e+01
2.056632e+02	-2.471548e+01
2.068511e+02	-2.476277e+01
2.080459e+02	-2.481226e+01
2.092475e+02	-2.486385e+01
2.104561e+02	-2.491719e+01
2.116717e+02	-2.496659e+01
2.128943e+02	-2.501420e+01
2.141240e+02	-2.506281e+01
2.153608e+02	-2.511456e+01
2.166047e+02	-2.516387e+01
2.178558e+02	-2.521180e+01
2.191141e+02	-2.526334e+01
2.203797e+02	-2.531324e+01
2.216526e+02	-2.536224e+01
2.229329e+02	-2.540969e+01
2.242205e+02	-2.546230e+01
2.255156e+02	-2.551050e+01
2.268182e+02	-2.556121e+01
2.281283e+02	-2.561182e+01
2.294459e+02	-2.566117e+01
2.307712e+02	-2.571403e+01
2.321041e+02	-2.576274e+01
2.334447e+02	-2.581336e+01
2.347931e+02	-2.586323e+01
2.361493e+02	-2.591163e+01
2.375133e+02	-2.596271e+01
2.388851e+02	-2.601324e+01
2.402649e+02	-2.605956e+01
2.416527e+02	-2.611035e+01
2.430484e+02	-2.616221e+01
2.444523e+02	-2.621282e+01
2.458642e+02	-2.626495e+01
2.472843e+02	-2.631159e+01
2.487126e+02	-2.636730e+01
2.501492e+02	-2.641307e+01
2.515940e+02	-2.645960e+01
2.530472e+02	-2.651073e+01
2.545088e+02	-2.656067e+01
2.559789e+02	-2.661347e+01
2.574574e+02	-2.666194e+01
2.589444e+02	-2.670937e+01
2.604401e+02	-2.675946e+01
2.619444e+02	-2.680901e+01
2.634574e+02	-2.685632e+01
2.649791e+02	-2.691130e+01
2.665096e+02	-2.696404e+01
2.680489e+02	-2.701071e+01
2.695972e+02	-2.706366e+01
2.711544e+02	-2.710947e+01
2.727205e+02	-2.716163e+01
2.742958e+02	-2.721201e+01
2.758801e+02	-2.726410e+01
2.774736e+02	-2.731183e+01
2.790762e+02	-2.736275e+01
2.806882e+02	-2.741038e+01
2.823094e+02	-2.746177e+01
2.839400e+02	-2.751151e+01
2.855800e+02	-2.756374e+01
2.872295e+02	-2.760994e+01
2.888886e+02	-2.766037e+01
2.905572e+02	-2.771455e+01
2.922354e+02	-2.775998e+01
2.939234e+02	-2.781350e+01
2.956211e+02	-2.785855e+01
2.973286e+02	-2.791295e+01
2.990459e+02	-2.796403e+01
3.007732e+02	-2.801122e+01
3.025104e+02	-2.806102e+01
3.042577e+02	-2.811107e+01
3.060151e+02	-2.816110e+01
3.077826e+02	-2.821273e+01
3.095604e+02	-2.826383e+01
3.113484e+02	-2.831033e+01
3.131467e+02	-2.835783e+01
3.149554e+02	-2.841133e+01
3.167746e+02	-2.846796e+01
3.186043e+02	-2.851481e+01
3.204445e+02	-2.856499e+01
3.222954e+02	-2.861392e+01
3.241570e+02	-2.865885e+01
3.260293e+02	-2.870919e+01
3.279124e+02	-2.876132e+01
3.298064e+02	-2.881091e+01
3.317114e+02	-2.886519e+01
3.336273e+02	-2.891319e+01
3.355544e+02	-2.896069e+01
3.374925e+02	-2.901044e+01
3.394418e+02	-2.906449e+01
3.414024e+02	-2.911128e+01
3.433744e+02	-2.916336e+01
3.453577e+02	-2.921487e+01
3.473525e+02	-2.926447e+01
3.493588e+02	-2.930662e+01
3.513766e+02	-2.936614e+01
3.534062e+02	-2.941386e+01
3.554474e+02	-2.946766e+01
3.575005e+02	-2.951546e+01
3.595654e+02	-2.955931e+01
3.616422e+02	-2.961334e+01
3.637311e+02	-2.966394e+01
3.658320e+02	-2.971655e+01
3.679450e+02	-2.976006e+01
3.700702e+02	-2.981671e+01
3.722077e+02	-2.986191e+01
3.743576e+02	-2.991282e+01
3.765199e+02	-2.996235e+01
3.786946e+02	-3.001126e+01
3.808820e+02	-3.005993e+01
3.830819e+02	-3.011598e+01
3.852946e+02	-3.016122e+01
3.875200e+02	-3.021254e+01
3.897583e+02	-3.026267e+01
3.920096e+02	-3.031257e+01
3.942738e+02	-3.035859e+01
3.965511e+02	-3.041373e+01
3.988416e+02	-3.046770e+01
4.011452e+02	-3.051600e+01
4.034622e+02	-3.056403e+01
4.057926e+02	-3.061260e+01
4.081365e+02	-3.066730e+01
4.104938e+02	-3.071421e+01
4.128648e+02	-3.076331e+01
4.152495e+02	-3.081248e+01
4.176480e+02	-3.086704e+01
4.200603e+02	-3.091616e+01
4.224866e+02	-3.096845e+01
4.249268e+02	-3.101673e+01
4.273812e+02	-3.106435e+01
4.298497e+02	-3.111198e+01
4.323325e+02	-3.116832e+01
4.348297e+02	-3.121197e+01
4.373412e+02	-3.126608e+01
4.398673e+02	-3.131957e+01
4.424079e+02	-3.136491e+01
4.449633e+02	-3.141848e+01
4.475334e+02	-3.147041e+01
4.501183e+02	-3.151719e+01
4.527182e+02	-3.156674e+01
4.553330e+02	-3.161807e+01
4.579630e+02	-3.166286e+01
4.606082e+02	-3.171172e+01
4.632687e+02	-3.176982e+01
4.659445e+02	-3.182089e+01
4.686358e+02	-3.186783e+01
4.713426e+02	-3.192593e+01
4.740650e+02	-3.196881e+01
4.768032e+02	-3.201927e+01
4.795572e+02	-3.206925e+01
4.823271e+02	-3.211816e+01
4.851130e+02	-3.216818e+01
4.879150e+02	-3.222076e+01
4.907332e+02	-3.227578e+01
4.935676e+02	-3.231472e+01
4.964185e+02	-3.237087e+01
4.992858e+02	-3.241497e+01
5.021696e+02	-3.247009e+01
5.050701e+02	-3.252403e+01
5.079874e+02	-3.257068e+01
5.109215e+02	-3.262467e+01
5.138726e+02	-3.267198e+01
5.168407e+02	-3.272052e+01
5.198259e+02	-3.276907e+01
5.228284e+02	-3.281829e+01
5.258482e+02	-3.286893e+01
5.288855e+02	-3.291220e+01
5.319403e+02	-3.296900e+01
5.350128e+02	-3.302338e+01
5.381030e+02	-3.307257e+01
5.412111e+02	-3.312009e+01
5.443371e+02	-3.317514e+01
5.474812e+02	-3.322287e+01
5.506434e+02	-3.327461e+01
5.538239e+02	-3.333197e+01
5.570228e+02	-3.337455e+01
5.602401e+02	-3.342459e+01
5.634760e+02	-3.347295e+01
5.667306e+02	-3.352854e+01
5.700040e+02	-3.358125e+01
5.732964e+02	-3.361981e+01
5.766077e+02	-3.367969e+01
5.799382e+02	-3.372720e+01
5.832879e+02	-3.377249e+01
5.866569e+02	-3.382814e+01
5.900454e+02	-3.388132e+01
5.934535e+02	-3.392462e+01
5.968813e+02	-3.398900e+01
6.003288e+02	-3.402259e+01
6.037963e+02	-3.407953e+01
6.072838e+02	-3.412775e+01
6.107914e+02	-3.418303e+01
6.143194e+02	-3.422752e+01
6.178676e+02	-3.428272e+01
6.214364e+02	-3.433099e+01
6.250258e+02	-3.439034e+01
6.286359e+02	-3.442362e+01
6.322669e+02	-3.448369e+01
6.359189e+02	-3.452392e+01
6.395919e+02	-3.457678e+01
6.432862e+02	-3.463294e+01
6.470017e+02	-3.467968e+01
6.507388e+02	-3.473354e+01
6.544974e+02	-3.477828e+01
6.582778e+02	-3.482995e+01
6.620800e+02	-3.488468e+01
6.659041e+02	-3.493394e+01
6.697504e+02	-3.498931e+01
6.736188e+02	-3.502717e+01
6.775096e+02	-3.508999e+01
6.814229e+02	-3.513349e+01
6.853587e+02	-3.519223e+01
6.893173e+02	-3.523050e+01
6.932988e+02	-3.528150e+01
6.973033e+02	-3.533459e+01
7.013309e+02	-3.538811e+01
