Frequency(Hz)	Magnitude(dB)
1.000000e+01	-2.023498e+00
1.005776e+01	-2.041903e+00
1.011585e+01	-2.060778e+00
1.017428e+01	-2.079776e+00
1.023305e+01	-2.098773e+00
1.029215e+01	-2.118182e+00
1.035160e+01	-2.137527e+00
1.041139e+01	-2.156922e+00
1.047153e+01	-2.176763e+00
1.053201e+01	-2.196393e+00
1.059284e+01	-2.216389e+00
1.065403e+01	-2.236642e+00
1.071556e+01	-2.256626e+00
1.077746e+01	-2.276985e+00
1.083971e+01	-2.297415e+00
1.090232e+01	-2.317943e+00
1.096529e+01	-2.338868e+00
1.102862e+01	-2.359705e+00
1.109232e+01	-2.380647e+00
1.115639e+01	-2.401800e+00
1.122083e+01	-2.423543e+00
1.128564e+01	-2.444758e+00
1.135083e+01	-2.466324e+00
1.141639e+01	-2.487965e+00
1.148233e+01	-2.509893e+00
1.154865e+01	-2.532118e+00
1.161536e+01	-2.554218e+00
1.168245e+01	-2.576574e+00
1.174992e+01	-2.599108e+00
1.181779e+01	-2.621518e+00
1.188605e+01	-2.644171e+00
1.195470e+01	-2.667242e+00
1.202375e+01	-2.690183e+00
1.209320e+01	-2.713427e+00
1.216305e+01	-2.736643e+00
1.223330e+01	-2.760192e+00
1.230396e+01	-2.783811e+00
1.237503e+01	-2.807534e+00
1.244651e+01	-2.831315e+00
1.251840e+01	-2.855412e+00
1.259070e+01	-2.879519e+00
1.266343e+01	-2.904178e+00
1.273657e+01	-2.928214e+00
1.281014e+01	-2.953167e+00
1.288413e+01	-2.977916e+00
1.295855e+01	-3.002886e+00
1.303339e+01	-3.027703e+00
1.310867e+01	-3.052854e+00
1.318439e+01	-3.078229e+00
1.326054e+01	-3.103604e+00
1.333713e+01	-3.129116e+00
1.341417e+01	-3.155168e+00
1.349165e+01	-3.180937e+00
1.356958e+01	-3.207162e+00
1.364795e+01	-3.232980e+00
1.372678e+01	-3.259608e+00
1.380607e+01	-3.286023e+00
1.388581e+01	-3.312604e+00
1.396602e+01	-3.339714e+00
1.404668e+01	-3.366027e+00
1.412782e+01	-3.393288e+00
1.420942e+01	-3.420389e+00
1.429149e+01	-3.447942e+00
1.437404e+01	-3.475598e+00
1.445706e+01	-3.503053e+00
1.454057e+01	-3.530894e+00
1.462455e+01	-3.558463e+00
1.470902e+01	-3.586745e+00
1.479398e+01	-3.614988e+00
1.487943e+01	-3.643299e+00
1.496537e+01	-3.671861e+00
1.505181e+01	-3.700297e+00
1.513875e+01	-3.729178e+00
1.522619e+01	-3.758176e+00
1.531414e+01	-3.787036e+00
1.540259e+01	-3.816376e+00
1.549156e+01	-3.845471e+00
1.558103e+01	-3.875154e+00
1.567103e+01	-3.904743e+00
1.576155e+01	-3.934312e+00
1.585258e+01	-3.964432e+00
1.594415e+01	-3.994456e+00
1.603624e+01	-4.024142e+00
1.612886e+01	-4.054433e+00
1.622202e+01	-4.085251e+00
1.631572e+01	-4.115792e+00
1.640996e+01	-4.146270e+00
1.650474e+01	-4.177009e+00
1.660008e+01	-4.207895e+00
1.669596e+01	-4.238960e+00
1.679239e+01	-4.270296e+00
1.688938e+01	-4.301675e+00
1.698694e+01	-4.333458e+00
1.708505e+01	-4.364965e+00
1.718373e+01	-4.396587e+00
1.728299e+01	-4.428719e+00
1.738281e+01	-4.460803e+00
1.748322e+01	-4.492864e+00
1.758420e+01	-4.525343e+00
1.768576e+01	-4.557762e+00
1.778792e+01	-4.590367e+00
1.789066e+01	-4.623344e+00
1.799399e+01	-4.655788e+00
1.809793e+01	-4.688858e+00
1.820246e+01	-4.721928e+00
1.830760e+01	-4.755271e+00
1.841334e+01	-4.788500e+00
1.851969e+01	-4.821826e+00
1.862666e+01	-4.855435e+00
1.873425e+01	-4.889009e+00
1.884246e+01	-4.923333e+00
1.895129e+01	-4.956980e+00
1.906075e+01	-4.991213e+00
1.917085e+01	-5.025595e+00
1.928158e+01	-5.059886e+00
1.939295e+01	-5.094231e+00
1.950496e+01	-5.128791e+00
1.961762e+01	-5.163668e+00
1.973093e+01	-5.198872e+00
1.984490e+01	-5.233671e+00
1.995952e+01	-5.268847e+00
2.007480e+01	-5.303811e+00
2.019076e+01	-5.339117e+00
2.030738e+01	-5.374531e+00
2.042467e+01	-5.410082e+00
2.054264e+01	-5.445786e+00
2.066130e+01	-5.481694e+00
2.078064e+01	-5.517510e+00
2.090066e+01	-5.554000e+00
2.102139e+01	-5.589918e+00
2.114280e+01	-5.626185e+00
2.126492e+01	-5.662489e+00
2.138775e+01	-5.698990e+00
2.151128e+01	-5.735631e+00
2.163553e+01	-5.772420e+00
2.176050e+01	-5.809323e+00
2.188619e+01	-5.845966e+00
2.201260e+01	-5.882974e+00
2.213974e+01	-5.920418e+00
2.226762e+01	-5.957603e+00
2.239624e+01	-5.995313e+00
2.252560e+01	-6.032931e+00
2.265571e+01	-6.070127e+00
2.278656e+01	-6.107899e+00
2.291818e+01	-6.145973e+00
2.305055e+01	-6.183488e+00
2.318369e+01	-6.221765e+00
2.331760e+01	-6.259347e+00
2.345228e+01	-6.297645e+00
2.358774e+01	-6.336289e+00
2.372398e+01	-6.374883e+00
2.386101e+01	-6.413460e+00
2.399883e+01	-6.452284e+00
2.413745e+01	-6.490671e+00
2.427686e+01	-6.529671e+00
2.441709e+01	-6.568632e+00
2.455812e+01	-6.607405e+00
2.469997e+01	-6.646883e+00
2.484263e+01	-6.686004e+00
2.498612e+01	-6.725427e+00
2.513044e+01	-6.764593e+00
2.527559e+01	-6.804188e+00
2.542158e+01	-6.843901e+00
2.556842e+01	-6.883883e+00
2.571610e+01	-6.923488e+00
2.586463e+01	-6.963776e+00
2.601403e+01	-7.003312e+00
2.616428e+01	-7.043770e+00
2.631541e+01	-7.083678e+00
2.646740e+01	-7.124104e+00
2.662028e+01	-7.164337e+00
2.677404e+01	-7.204734e+00
2.692868e+01	-7.245328e+00
2.708422e+01	-7.286167e+00
2.724066e+01	-7.326651e+00
2.739800e+01	-7.367484e+00
2.755625e+01	-7.408442e+00
2.771541e+01	-7.449394e+00
2.787550e+01	-7.490462e+00
2.803650e+01	-7.531164e+00
2.819844e+01	-7.572851e+00
2.836131e+01	-7.614282e+00
2.852513e+01	-7.655711e+00
2.868989e+01	-7.697445e+00
2.885560e+01	-7.739064e+00
2.902227e+01	-7.780423e+00
2.918990e+01	-7.821896e+00
2.935850e+01	-7.863675e+00
2.952807e+01	-7.905821e+00
2.969863e+01	-7.947372e+00
2.987016e+01	-7.989677e+00
3.004269e+01	-8.031766e+00
3.021622e+01	-8.074086e+00
3.039075e+01	-8.116350e+00
3.056628e+01	-8.158350e+00
3.074283e+01	-8.201347e+00
3.092040e+01	-8.243602e+00
3.109900e+01	-8.286169e+00
3.127862e+01	-8.329008e+00
3.145929e+01	-8.371356e+00
3.164099e+01	-8.414024e+00
3.182375e+01	-8.456993e+00
3.200756e+01	-8.500250e+00
3.219244e+01	-8.543118e+00
3.237838e+01	-8.585965e+00
3.256540e+01	-8.628912e+00
3.275349e+01	-8.672490e+00
3.294268e+01	-8.715863e+00
3.313295e+01	-8.759488e+00
3.332433e+01	-8.802367e+00
3.351681e+01	-8.846012e+00
3.371040e+01	-8.889132e+00
3.390511e+01	-8.932800e+00
3.410094e+01	-8.976647e+00
3.429791e+01	-9.020565e+00
3.449601e+01	-9.064402e+00
3.469526e+01	-9.108200e+00
3.489566e+01	-9.152122e+00
3.509721e+01	-9.195786e+00
3.529993e+01	-9.239845e+00
3.550382e+01	-9.283893e+00
3.570889e+01	-9.328488e+00
3.591515e+01	-9.372236e+00
3.612259e+01	-9.416735e+00
3.633123e+01	-9.461154e+00
3.654108e+01	-9.505465e+00
3.675214e+01	-9.549456e+00
3.696442e+01	-9.594471e+00
3.717792e+01	-9.638560e+00
3.739266e+01	-9.684003e+00
3.760864e+01	-9.728410e+00
3.782587e+01	-9.772946e+00
3.804435e+01	-9.817879e+00
3.826409e+01	-9.862452e+00
3.848510e+01	-9.907695e+00
3.870739e+01	-9.952445e+00
3.893096e+01	-9.997441e+00
3.915583e+01	-1.004208e+01
3.938199e+01	-1.008783e+01
3.960946e+01	-1.013265e+01
3.983824e+01	-1.017777e+01
4.006834e+01	-1.022294e+01
4.029978e+01	-1.026844e+01
4.053255e+01	-1.031345e+01
4.076666e+01	-1.035923e+01
4.100213e+01	-1.040431e+01
4.123896e+01	-1.045015e+01
4.147715e+01	-1.049580e+01
4.171672e+01	-1.054145e+01
4.195767e+01	-1.058724e+01
4.220002e+01	-1.063239e+01
4.244377e+01	-1.067833e+01
4.268892e+01	-1.072345e+01
4.293549e+01	-1.077038e+01
4.318348e+01	-1.081548e+01
4.343291e+01	-1.086163e+01
4.368377e+01	-1.090760e+01
4.393609e+01	-1.095348e+01
4.418986e+01	-1.099947e+01
4.444510e+01	-1.104563e+01
4.470182e+01	-1.109161e+01
4.496001e+01	-1.113797e+01
4.521970e+01	-1.118361e+01
4.548089e+01	-1.122991e+01
4.574358e+01	-1.127605e+01
4.600779e+01	-1.132212e+01
4.627353e+01	-1.136924e+01
4.654081e+01	-1.141638e+01
4.680963e+01	-1.146258e+01
4.708000e+01	-1.150880e+01
4.735193e+01	-1.155481e+01
4.762543e+01	-1.160230e+01
4.790051e+01	-1.164830e+01
4.817719e+01	-1.169522e+01
4.845545e+01	-1.174132e+01
4.873533e+01	-1.178830e+01
4.901682e+01	-1.183474e+01
4.929994e+01	-1.188148e+01
4.958470e+01	-1.192823e+01
4.987110e+01	-1.197498e+01
5.015915e+01	-1.202280e+01
5.044887e+01	-1.206927e+01
5.074026e+01	-1.211606e+01
5.103333e+01	-1.216285e+01
5.132810e+01	-1.220950e+01
5.162457e+01	-1.225766e+01
5.192275e+01	-1.230361e+01
5.222265e+01	-1.235086e+01
5.252429e+01	-1.239869e+01
5.282767e+01	-1.244544e+01
5.313280e+01	-1.249308e+01
5.343969e+01	-1.254012e+01
5.374836e+01	-1.258706e+01
5.405880e+01	-1.263438e+01
5.437105e+01	-1.268146e+01
5.468509e+01	-1.272972e+01
5.500095e+01	-1.277667e+01
5.531863e+01	-1.282329e+01
5.563815e+01	-1.287204e+01
5.595951e+01	-1.291939e+01
5.628273e+01	-1.296680e+01
5.660782e+01	-1.301296e+01
5.693479e+01	-1.306172e+01
5.726364e+01	-1.310849e+01
5.759439e+01	-1.315683e+01
5.792705e+01	-1.320415e+01
5.826164e+01	-1.325135e+01
5.859815e+01	-1.329993e+01
5.893662e+01	-1.334711e+01
5.927703e+01	-1.339479e+01
5.961941e+01	-1.344239e+01
5.996377e+01	-1.349056e+01
6.031012e+01	-1.353773e+01
6.065847e+01	-1.358565e+01
6.100883e+01	-1.363350e+01
6.136121e+01	-1.368215e+01
6.171563e+01	-1.372913e+01
6.207210e+01	-1.377864e+01
6.243063e+01	-1.382533e+01
6.279122e+01	-1.387410e+01
6.315390e+01	-1.392140e+01
6.351868e+01	-1.396853e+01
6.388556e+01	-1.401768e+01
6.425456e+01	-1.406588e+01
6.462569e+01	-1.411372e+01
6.499897e+01	-1.416172e+01
6.537440e+01	-1.421066e+01
6.575200e+01	-1.425841e+01
6.613178e+01	-1.430637e+01
6.651375e+01	-1.435478e+01
6.689793e+01	-1.440271e+01
6.728433e+01	-1.445139e+01
6.767297e+01	-1.449893e+01
6.806384e+01	-1.454751e+01
6.845698e+01	-1.459659e+01
6.885238e+01	-1.464348e+01
6.925007e+01	-1.469199e+01
6.965005e+01	-1.474041e+01
7.005235e+01	-1.478890e+01
7.045697e+01	-1.483709e+01
7.086393e+01	-1.488585e+01
7.127323e+01	-1.493438e+01
7.168490e+01	-1.498233e+01
7.209895e+01	-1.503060e+01
7.251539e+01	-1.507945e+01
7.293424e+01	-1.512738e+01
7.335551e+01	-1.517590e+01
7.377920e+01	-1.522545e+01
7.420535e+01	-1.527388e+01
7.463396e+01	-1.532283e+01
7.506504e+01	-1.537120e+01
7.549861e+01	-1.541857e+01
7.593469e+01	-1.546765e+01
7.637328e+01	-1.551693e+01
7.681441e+01	-1.556455e+01
7.725809e+01	-1.561300e+01
7.770433e+01	-1.566240e+01
7.815315e+01	-1.571154e+01
7.860456e+01	-1.575960e+01
7.905857e+01	-1.580856e+01
7.951521e+01	-1.585760e+01
7.997449e+01	-1.590685e+01
8.043642e+01	-1.595567e+01
8.090102e+01	-1.600374e+01
8.136830e+01	-1.605199e+01
8.183828e+01	-1.610179e+01
8.231097e+01	-1.614954e+01
8.278640e+01	-1.619972e+01
8.326457e+01	-1.624760e+01
8.374550e+01	-1.629683e+01
8.422921e+01	-1.634569e+01
8.471572e+01	-1.639334e+01
8.520503e+01	-1.644303e+01
8.569717e+01	-1.649221e+01
8.619215e+01	-1.654156e+01
8.669000e+01	-1.659002e+01
8.719071e+01	-1.663823e+01
8.769432e+01	-1.668741e+01
8.820084e+01	-1.673679e+01
8.871029e+01	-1.678558e+01
8.922267e+01	-1.683471e+01
8.973802e+01	-1.688395e+01
9.025634e+01	-1.693238e+01
9.077766e+01	-1.698221e+01
9.130199e+01	-1.703182e+01
9.182935e+01	-1.707894e+01
9.235975e+01	-1.712858e+01
9.289321e+01	-1.717752e+01
9.342976e+01	-1.722684e+01
9.396941e+01	-1.727572e+01
9.451217e+01	-1.732343e+01
9.505807e+01	-1.737313e+01
9.560712e+01	-1.742291e+01
9.615934e+01	-1.747151e+01
9.671476e+01	-1.752260e+01
9.727338e+01	-1.757116e+01
9.783522e+01	-1.761990e+01
9.840032e+01	-1.766892e+01
9.896867e+01	-1.771804e+01
9.954031e+01	-1.776706e+01
1.001153e+02	-1.781606e+01
1.006935e+02	-1.786576e+01
1.012751e+02	-1.791502e+01
1.018601e+02	-1.796470e+01
1.024484e+02	-1.801315e+01
1.030402e+02	-1.806220e+01
1.036353e+02	-1.811072e+01
1.042339e+02	-1.816193e+01
1.048360e+02	-1.821179e+01
1.054415e+02	-1.826012e+01
1.060505e+02	-1.830912e+01
1.066631e+02	-1.835960e+01
1.072791e+02	-1.840662e+01
1.078988e+02	-1.845776e+01
1.085220e+02	-1.850625e+01
1.091488e+02	-1.855556e+01
1.097793e+02	-1.860552e+01
1.104133e+02	-1.865458e+01
1.110511e+02	-1.870470e+01
1.116925e+02	-1.875463e+01
1.123376e+02	-1.880107e+01
1.129865e+02	-1.885199e+01
1.136391e+02	-1.890053e+01
1.142955e+02	-1.895103e+01
1.149556e+02	-1.900031e+01
1.156196e+02	-1.904991e+01
1.162874e+02	-1.909944e+01
1.169591e+02	-1.914817e+01
1.176347e+02	-1.919706e+01
1.183141e+02	-1.924749e+01
1.189975e+02	-1.929517e+01
1.196848e+02	-1.934624e+01
1.203761e+02	-1.939609e+01
1.210714e+02	-1.944455e+01
1.217707e+02	-1.949581e+01
1.224740e+02	-1.954366e+01
1.231814e+02	-1.959394e+01
1.238929e+02	-1.964467e+01
1.246085e+02	-1.969240e+01
1.253283e+02	-1.974118e+01
1.260522e+02	-1.979088e+01
1.267802e+02	-1.984222e+01
1.275125e+02	-1.988999e+01
1.282490e+02	-1.994062e+01
1.289898e+02	-1.998892e+01
1.297348e+02	-2.003854e+01
1.304842e+02	-2.008798e+01
1.312378e+02	-2.013583e+01
1.319959e+02	-2.018766e+01
1.327583e+02	-2.023717e+01
1.335251e+02	-2.028787e+01
1.342963e+02	-2.033588e+01
1.350720e+02	-2.038628e+01
1.358522e+02	-2.043580e+01
1.366368e+02	-2.048400e+01
1.374260e+02	-2.053559e+01
1.382198e+02	-2.058452e+01
1.390182e+02	-2.063168e+01
1.398211e+02	-2.068393e+01
1.406287e+02	-2.073357e+01
1.414410e+02	-2.078380e+01
1.422579e+02	-2.083306e+01
1.430796e+02	-2.088228e+01
1.439060e+02	-2.093167e+01
1.447372e+02	-2.097986e+01
1.455732e+02	-2.103009e+01
1.464141e+02	-2.108122e+01
1.472597e+02	-2.112988e+01
1.481103e+02	-2.117983e+01
1.489658e+02	-2.122773e+01
1.498262e+02	-2.127966e+01
1.506916e+02	-2.132841e+01
1.515620e+02	-2.137858e+01
1.524374e+02	-2.142868e+01
1.533179e+02	-2.147642e+01
1.542034e+02	-2.152713e+01
1.550941e+02	-2.157622e+01
1.559899e+02	-2.162945e+01
1.568909e+02	-2.167758e+01
1.577971e+02	-2.172549e+01
1.587085e+02	-2.177495e+01
1.596252e+02	-2.182663e+01
1.605472e+02	-2.187598e+01
1.614745e+02	-2.192362e+01
1.624072e+02	-2.197299e+01
1.633453e+02	-2.202549e+01
1.642887e+02	-2.207471e+01
1.652377e+02	-2.212273e+01
1.661921e+02	-2.217366e+01
1.671520e+02	-2.222353e+01
1.681175e+02	-2.227255e+01
1.690885e+02	-2.232276e+01
1.700651e+02	-2.237407e+01
1.710474e+02	-2.242127e+01
1.720354e+02	-2.247120e+01
1.730291e+02	-2.252300e+01
1.740285e+02	-2.257338e+01
1.750337e+02	-2.262081e+01
1.760446e+02	-2.266928e+01
1.770615e+02	-2.272103e+01
1.780842e+02	-2.277261e+01
1.791128e+02	-2.282209e+01
1.801473e+02	-2.287215e+01
1.811878e+02	-2.292081e+01
1.822344e+02	-2.297134e+01
1.832870e+02	-2.302108e+01
1.843456e+02	-2.306936e+01
1.854104e+02	-2.312103e+01
1.864813e+02	-2.316900e+01
1.875584e+02	-2.321806e+01
1.886418e+02	-2.326873e+01
1.897313e+02	-2.331757e+01
1.908272e+02	-2.336947e+01
1.919294e+02	-2.341910e+01
1.930380e+02	-2.346899e+01
1.941530e+02	-2.352037e+01
1.952744e+02	-2.356865e+01
1.964023e+02	-2.361848e+01
1.975367e+02	-2.366500e+01
1.986777e+02	-2.371724e+01
1.998252e+02	-2.376569e+01
2.009794e+02	-2.381637e+01
2.021403e+02	-2.386594e+01
2.033078e+02	-2.391555e+01
2.044821e+02	-2.396467e+01
2.056632e+02	-2.401565e+01
2.068511e+02	-2.406806e+01
2.080459e+02	-2.411752e+01
2.092475e+02	-2.416624e+01
2.104561e+02	-2.421468e+01
2.116717e+02	-2.426733e+01
2.128943e+02	-2.431674e+01
2.141240e+02	-2.436523e+01
2.153608e+02	-2.441571e+01
2.166047e+02	-2.446242e+01
2.178558e+02	-2.451324e+01
2.191141e+02	-2.456371e+01
2.203797e+02	-2.461589e+01
2.216526e+02	-2.466651e+01
2.229329e+02	-2.471472e+01
2.242205e+02	-2.476574e+01
2.255156e+02	-2.481575e+01
2.268182e+02	-2.486397e+01
2.281283e+02	-2.491479e+01
2.294459e+02	-2.496261e+01
2.307712e+02	-2.501400e+01
2.321041e+02	-2.506265e+01
2.334447e+02	-2.511642e+01
2.347931e+02	-2.516527e+01
2.361493e+02	-2.521551e+01
2.375133e+02	-2.526672e+01
2.388851e+02	-2.531320e+01
2.402649e+02	-2.536461e+01
2.416527e+02	-2.541442e+01
2.430484e+02	-2.546604e+01
2.444523e+02	-2.550928e+01
2.458642e+02	-2.556311e+01
2.472843e+02	-2.561014e+01
2.487126e+02	-2.566359e+01
2.501492e+02	-2.571424e+01
2.515940e+02	-2.576357e+01
2.530472e+02	-2.581322e+01
2.545088e+02	-2.586460e+01
2.559789e+02	-2.591223e+01
2.574574e+02	-2.596497e+01
2.589444e+02	-2.601122e+01
2.604401e+02	-2.606157e+01
2.619444e+02	-2.611494e+01
2.634574e+02	-2.616509e+01
2.649791e+02	-2.621029e+01
2.665096e+02	-2.626222e+01
2.680489e+02	-2.631384e+01
2.695972e+02	-2.636141e+01
2.711544e+02	-2.641199e+01
2.727205e+02	-2.646187e+01
2.742958e+02	-2.651503e+01
2.758801e+02	-2.656284e+01
2.774736e+02	-2.661180e+01
2.790762e+02	-2.666087e+01
2.806882e+02	-2.671363e+01
2.823094e+02	-2.676400e+01
2.839400e+02	-2.681206e+01
2.855800e+02	-2.686019e+01
2.872295e+02	-2.691411e+01
2.888886e+02	-2.696236e+01
2.905572e+02	-2.701378e+01
2.922354e+02	-2.706119e+01
2.939234e+02	-2.711256e+01
2.956211e+02	-2.715987e+01
2.973286e+02	-2.721371e+01
2.990459e+02	-2.726389e+01
3.007732e+02	-2.731295e+01
3.025104e+02	-2.736239e+01
3.042577e+02	-2.741131e+01
3.060151e+02	-2.745845e+01
3.077826e+02	-2.751326e+01
3.095604e+02	-2.756308e+01
3.113484e+02	-2.761217e+01
3.131467e+02	-2.766111e+01
3.149554e+02	-2.771129e+01
3.167746e+02	-2.776159e+01
3.186043e+02	-2.781283e+01
3.204445e+02	-2.785948e+01
3.222954e+02	-2.791125e+01
3.241570e+02	-2.796589e+01
3.260293e+02	-2.801168e+01
3.279124e+02	-2.806358e+01
3.298064e+02	-2.811566e+01
3.317114e+02	-2.816306e+01
3.336273e+02	-2.821135e+01
3.355544e+02	-2.826184e+01
3.374925e+02	-2.831322e+01
3.394418e+02	-2.836381e+01
3.414024e+02	-2.841611e+01
3.433744e+02	-2.846680e+01
3.453577e+02	-2.851119e+01
3.473525e+02	-2.856366e+01
3.493588e+02	-2.861356e+01
3.513766e+02	-2.866074e+01
3.534062e+02	-2.870820e+01
3.554474e+02	-2.875787e+01
3.575005e+02	-2.880964e+01
3.595654e+02	-2.886544e+01
3.616422e+02	-2.891250e+01
3.637311e+02	-2.896459e+01
3.658320e+02	-2.901587e+01
3.679450e+02	-2.906528e+01
3.700702e+02	-2.911112e+01
3.722077e+02	-2.916660e+01
3.743576e+02	-2.921692e+01
3.765199e+02	-2.926442e+01
3.786946e+02	-2.931207e+01
3.808820e+02	-2.936501e+01
3.830819e+02	-2.941615e+01
3.852946e+02	-2.946388e+01
3.875200e+02	-2.951560e+01
3.897583e+02	-2.956310e+01
3.920096e+02	-2.961620e+01
3.942738e+02	-2.966456e+01
3.965511e+02	-2.971570e+01
3.988416e+02	-2.976468e+01
4.011452e+02	-2.981384e+01
4.034622e+02	-2.986112e+01
4.057926e+02	-2.991846e+01
4.081365e+02	-2.996209e+01
4.104938e+02	-3.001743e+01
4.128648e+02	-3.007288e+01
4.152495e+02	-3.011221e+01
4.176480e+02	-3.016541e+01
4.200603e+02	-3.021626e+01
4.224866e+02	-3.026462e+01
4.249268e+02	-3.031488e+01
4.273812e+02	-3.036794e+01
4.298497e+02	-3.041702e+01
4.323325e+02	-3.046441e+01
4.348297e+02	-3.051339e+01
4.373412e+02	-3.056951e+01
4.398673e+02	-3.061045e+01
4.424079e+02	-3.066670e+01
4.449633e+02	-3.071857e+01
4.475334e+02	-3.077187e+01
4.501183e+02	-3.081622e+01
4.527182e+02	-3.086840e+01
4.553330e+02	-3.092141e+01
4.579630e+02	-3.097053e+01
4.606082e+02	-3.101968e+01
4.632687e+02	-3.106473e+01
4.659445e+02	-3.112202e+01
4.686358e+02	-3.116619e+01
4.713426e+02	-3.122020e+01
4.740650e+02	-3.127200e+01
4.768032e+02	-3.131605e+01
4.795572e+02	-3.136733e+01
4.823271e+02	-3.141628e+01
4.851130e+02	-3.146793e+01
4.879150e+02	-3.152390e+01
4.907332e+02	-3.156739e+01
4.935676e+02	-3.161654e+01
4.964185e+02	-3.166909e+01
4.992858e+02	-3.172279e+01
5.021696e+02	-3.176156e+01
5.050701e+02	-3.182245e+01
5.079874e+02	-3.186715e+01
5.109215e+02	-3.192584e+01
5.138726e+02	-3.197617e+01
5.168407e+02	-3.202016e+01
5.198259e+02	-3.207029e+01
5.228284e+02	-3.212026e+01
5.258482e+02	-3.216562e+01
5.288855e+02	-3.222232e+01
5.319403e+02	-3.227302e+01
5.350128e+02	-3.231903e+01
5.381030e+02	-3.237109e+01
5.412111e+02	-3.242590e+01
5.443371e+02	-3.248135e+01
5.474812e+02	-3.252492e+01
5.506434e+02	-3.256770e+01
5.538239e+02	-3.262589e+01
5.570228e+02	-3.266669e+01
5.602401e+02	-3.272537e+01
5.634760e+02	-3.277833e+01
5.667306e+02	-3.282123e+01
5.700040e+02	-3.287504e+01
5.732964e+02	-3.292388e+01
5.766077e+02	-3.297321e+01
5.799382e+02	-3.302548e+01
5.832879e+02	-3.307369e+01
5.866569e+02	-3.312098e+01
5.900454e+02	-3.317445e+01
5.934535e+02	-3.321552e+01
5.968813e+02	-3.327111e+01
6.003288e+02	-3.332664e+01
6.037963e+02	-3.337455e+01
6.072838e+02	-3.343123e+01
6.107914e+02	-3.347077e+01
6.143194e+02	-3.352378e+01
6.178676e+02	-3.358600e+01
6.214364e+02	-3.363083e+01
6.250258e+02	-3.367396e+01
6.286359e+02	-3.372952e+01
6.322669e+02	-3.377397e+01
6.359189e+02	-3.383204e+01
6.395919e+02	-3.387918e+01
6.432862e+02	-3.392285e+01
6.470017e+02	-3.398192e+01
6.507388e+02	-3.403080e+01
6.544974e+02	-3.408034e+01
6.582778e+02	-3.412857e+01
6.620800e+02	-3.417926e+01
6.659041e+02	-3.422832e+01
6.697504e+02	-3.428285e+01
6.736188e+02	-3.432748e+01
6.775096e+02	-3.438303e+01
6.814229e+02	-3.442806e+01
6.853587e+02	-3.448569e+01
6.893173e+02	-3.453319e+01
6.932988e+02	-3.458583e+01
6.973033e+02	-3.464163e+01
7.013309e+02	-3.469243e+01
