Frequency(Hz)	Magnitude(dB)
1.000000e+01	-2.191439e+00
1.005776e+01	-2.211212e+00
1.011585e+01	-2.231443e+00
1.017428e+01	-2.251369e+00
1.023305e+01	-2.271827e+00
1.029215e+01	-2.292383e+00
1.035160e+01	-2.312655e+00
1.041139e+01	-2.333557e+00
1.047153e+01	-2.354220e+00
1.053201e+01	-2.375384e+00
1.059284e+01	-2.396509e+00
1.065403e+01	-2.417909e+00
1.071556e+01	-2.439392e+00
1.077746e+01	-2.460808e+00
1.083971e+01	-2.482506e+00
1.090232e+01	-2.504200e+00
1.096529e+01	-2.526417e+00
1.102862e+01	-2.548481e+00
1.109232e+01	-2.570832e+00
1.115639e+01	-2.593059e+00
1.122083e+01	-2.616049e+00
1.128564e+01	-2.638448e+00
1.135083e+01	-2.661278e+00
1.141639e+01	-2.684400e+00
1.148233e+01	-2.707334e+00
1.154865e+01	-2.730549e+00
1.161536e+01	-2.754245e+00
1.168245e+01	-2.777761e+00
1.174992e+01	-2.801227e+00
1.181779e+01	-2.825261e+00
1.188605e+01	-2.849338e+00
1.195470e+01	-2.873504e+00
1.202375e+01	-2.897917e+00
1.209320e+01	-2.921957e+00
1.216305e+01	-2.946808e+00
1.223330e+01	-2.971312e+00
1.230396e+01	-2.996225e+00
1.237503e+01	-3.021422e+00
1.244651e+01	-3.046504e+00
1.251840e+01	-3.071747e+00
1.259070e+01	-3.096892e+00
1.266343e+01	-3.122669e+00
1.273657e+01	-3.148464e+00
1.281014e+01	-3.174200e+00
1.288413e+01	-3.200212e+00
1.295855e+01	-3.226370e+00
1.303339e+01	-3.252762e+00
1.310867e+01	-3.278997e+00
1.318439e+01	-3.305903e+00
1.326054e+01	-3.332583e+00
1.333713e+01	-3.359331e+00
1.341417e+01	-3.386511e+00
1.349165e+01	-3.413696e+00
1.356958e+01	-3.440759e+00
1.364795e+01	-3.468416e+00
1.372678e+01	-3.495979e+00
1.380607e+01	-3.523393e+00
1.388581e+01	-3.551573e+00
1.396602e+01	-3.579677e+00
1.404668e+01	-3.607634e+00
1.412782e+01	-3.636027e+00
1.420942e+01	-3.664244e+00
1.429149e+01	-3.692973e+00
1.437404e+01	-3.721877e+00
1.445706e+01	-3.750445e+00
1.454057e+01	-3.779659e+00
1.462455e+01	-3.808601e+00
1.470902e+01	-3.837915e+00
1.479398e+01	-3.867461e+00
1.487943e+01	-3.897104e+00
1.496537e+01	-3.926888e+00
1.505181e+01	-3.956630e+00
1.513875e+01	-3.986459e+00
1.522619e+01	-4.016818e+00
1.531414e+01	-4.046831e+00
1.540259e+01	-4.077422e+00
1.549156e+01	-4.107979e+00
1.558103e+01	-4.138489e+00
1.567103e+01	-4.169254e+00
1.576155e+01	-4.200374e+00
1.585258e+01	-4.231151e+00
1.594415e+01	-4.262295e+00
1.603624e+01	-4.293959e+00
1.612886e+01	-4.325689e+00
1.622202e+01	-4.356675e+00
1.631572e+01	-4.388610e+00
1.640996e+01	-4.420754e+00
1.650474e+01	-4.452694e+00
1.660008e+01	-4.484767e+00
1.669596e+01	-4.516898e+00
1.679239e+01	-4.549666e+00
1.688938e+01	-4.581780e+00
1.698694e+01	-4.614682e+00
1.708505e+01	-4.647488e+00
1.718373e+01	-4.680223e+00
1.728299e+01	-4.713266e+00
1.738281e+01	-4.746816e+00
1.748322e+01	-4.779868e+00
1.758420e+01	-4.813606e+00
1.768576e+01	-4.847026e+00
1.778792e+01	-4.880669e+00
1.789066e+01	-4.914477e+00
1.799399e+01	-4.948455e+00
1.809793e+01	-4.982363e+00
1.820246e+01	-5.016592e+00
1.830760e+01	-5.051096e+00
1.841334e+01	-5.085369e+00
1.851969e+01	-5.120340e+00
1.862666e+01	-5.154881e+00
1.873425e+01	-5.189649e+00
1.884246e+01	-5.224623e+00
1.895129e+01	-5.259493e+00
1.906075e+01	-5.294928e+00
1.917085e+01	-5.330040e+00
1.928158e+01	-5.365596e+00
1.939295e+01	-5.401141e+00
1.950496e+01	-5.436646e+00
1.961762e+01	-5.472618e+00
1.973093e+01	-5.508544e+00
1.984490e+01	-5.544680e+00
1.995952e+01	-5.580718e+00
2.007480e+01	-5.616971e+00
2.019076e+01	-5.653076e+00
2.030738e+01	-5.689439e+00
2.042467e+01	-5.726199e+00
2.054264e+01	-5.762973e+00
2.066130e+01	-5.799528e+00
2.078064e+01	-5.836732e+00
2.090066e+01	-5.873516e+00
2.102139e+01	-5.911044e+00
2.114280e+01	-5.947978e+00
2.126492e+01	-5.985604e+00
2.138775e+01	-6.023057e+00
2.151128e+01	-6.060731e+00
2.163553e+01	-6.097938e+00
2.176050e+01	-6.135830e+00
2.188619e+01	-6.173840e+00
2.201260e+01	-6.212097e+00
2.213974e+01	-6.249897e+00
2.226762e+01	-6.288241e+00
2.239624e+01	-6.326238e+00
2.252560e+01	-6.365330e+00
2.265571e+01	-6.403556e+00
2.278656e+01	-6.441881e+00
2.291818e+01	-6.480741e+00
2.305055e+01	-6.519294e+00
2.318369e+01	-6.558872e+00
2.331760e+01	-6.597485e+00
2.345228e+01	-6.636696e+00
2.358774e+01	-6.676014e+00
2.372398e+01	-6.715146e+00
2.386101e+01	-6.754519e+00
2.399883e+01	-6.794223e+00
2.413745e+01	-6.833893e+00
2.427686e+01	-6.873441e+00
2.441709e+01	-6.913335e+00
2.455812e+01	-6.953049e+00
2.469997e+01	-6.993352e+00
2.484263e+01	-7.033183e+00
2.498612e+01	-7.073243e+00
2.513044e+01	-7.113649e+00
2.527559e+01	-7.154246e+00
2.542158e+01	-7.194603e+00
2.556842e+01	-7.235061e+00
2.571610e+01	-7.275612e+00
2.586463e+01	-7.316141e+00
2.601403e+01	-7.357040e+00
2.616428e+01	-7.397854e+00
2.631541e+01	-7.438670e+00
2.646740e+01	-7.479935e+00
2.662028e+01	-7.521169e+00
2.677404e+01	-7.562353e+00
2.692868e+01	-7.603969e+00
2.708422e+01	-7.645214e+00
2.724066e+01	-7.686045e+00
2.739800e+01	-7.727593e+00
2.755625e+01	-7.769391e+00
2.771541e+01	-7.811339e+00
2.787550e+01	-7.853069e+00
2.803650e+01	-7.895232e+00
2.819844e+01	-7.936927e+00
2.836131e+01	-7.979008e+00
2.852513e+01	-8.020774e+00
2.868989e+01	-8.063514e+00
2.885560e+01	-8.105684e+00
2.902227e+01	-8.147851e+00
2.918990e+01	-8.190202e+00
2.935850e+01	-8.232927e+00
2.952807e+01	-8.274835e+00
2.969863e+01	-8.318052e+00
2.987016e+01	-8.360814e+00
3.004269e+01	-8.403131e+00
3.021622e+01	-8.446164e+00
3.039075e+01	-8.489137e+00
3.056628e+01	-8.532071e+00
3.074283e+01	-8.575112e+00
3.092040e+01	-8.618066e+00
3.109900e+01	-8.661476e+00
3.127862e+01	-8.704625e+00
3.145929e+01	-8.748188e+00
3.164099e+01	-8.790973e+00
3.182375e+01	-8.834744e+00
3.200756e+01	-8.878029e+00
3.219244e+01	-8.921950e+00
3.237838e+01	-8.965873e+00
3.256540e+01	-9.009304e+00
3.275349e+01	-9.053037e+00
3.294268e+01	-9.096683e+00
3.313295e+01	-9.141166e+00
3.332433e+01	-9.184710e+00
3.351681e+01	-9.228722e+00
3.371040e+01	-9.272955e+00
3.390511e+01	-9.317241e+00
3.410094e+01	-9.361525e+00
3.429791e+01	-9.405102e+00
3.449601e+01	-9.449289e+00
3.469526e+01	-9.493937e+00
3.489566e+01	-9.538404e+00
3.509721e+01	-9.582865e+00
3.529993e+01	-9.627501e+00
3.550382e+01	-9.671797e+00
3.570889e+01	-9.716583e+00
3.591515e+01	-9.761535e+00
3.612259e+01	-9.806662e+00
3.633123e+01	-9.851041e+00
3.654108e+01	-9.896115e+00
3.675214e+01	-9.941094e+00
3.696442e+01	-9.985650e+00
3.717792e+01	-1.003050e+01
3.739266e+01	-1.007650e+01
3.760864e+01	-1.012108e+01
3.782587e+01	-1.016578e+01
3.804435e+01	-1.021120e+01
3.826409e+01	-1.025668e+01
3.848510e+01	-1.030225e+01
3.870739e+01	-1.034756e+01
3.893096e+01	-1.039260e+01
3.915583e+01	-1.043863e+01
3.938199e+01	-1.048384e+01
3.960946e+01	-1.052978e+01
3.983824e+01	-1.057482e+01
4.006834e+01	-1.062090e+01
4.029978e+01	-1.066603e+01
4.053255e+01	-1.071282e+01
4.076666e+01	-1.075764e+01
4.100213e+01	-1.080346e+01
4.123896e+01	-1.085026e+01
4.147715e+01	-1.089597e+01
4.171672e+01	-1.094158e+01
4.195767e+01	-1.098782e+01
4.220002e+01	-1.103398e+01
4.244377e+01	-1.108003e+01
4.268892e+01	-1.112605e+01
4.293549e+01	-1.117188e+01
4.318348e+01	-1.121841e+01
4.343291e+01	-1.126427e+01
4.368377e+01	-1.131121e+01
4.393609e+01	-1.135731e+01
4.418986e+01	-1.140402e+01
4.444510e+01	-1.145043e+01
4.470182e+01	-1.149646e+01
4.496001e+01	-1.154336e+01
4.521970e+01	-1.158975e+01
4.548089e+01	-1.163588e+01
4.574358e+01	-1.168337e+01
4.600779e+01	-1.172981e+01
4.627353e+01	-1.177666e+01
4.654081e+01	-1.182256e+01
4.680963e+01	-1.186953e+01
4.708000e+01	-1.191634e+01
4.735193e+01	-1.196276e+01
4.762543e+01	-1.201003e+01
4.790051e+01	-1.205698e+01
4.817719e+01	-1.210383e+01
4.845545e+01	-1.215114e+01
4.873533e+01	-1.219825e+01
4.901682e+01	-1.224493e+01
4.929994e+01	-1.229187e+01
4.958470e+01	-1.233876e+01
4.987110e+01	-1.238587e+01
5.015915e+01	-1.243320e+01
5.044887e+01	-1.248083e+01
5.074026e+01	-1.252814e+01
5.103333e+01	-1.257381e+01
5.132810e+01	-1.262260e+01
5.162457e+01	-1.266944e+01
5.192275e+01	-1.271687e+01
5.222265e+01	-1.276450e+01
5.252429e+01	-1.281176e+01
5.282767e+01	-1.285890e+01
5.313280e+01	-1.290698e+01
5.343969e+01	-1.295446e+01
5.374836e+01	-1.300174e+01
5.405880e+01	-1.304899e+01
5.437105e+01	-1.309658e+01
5.468509e+01	-1.314481e+01
5.500095e+01	-1.319217e+01
5.531863e+01	-1.323925e+01
5.563815e+01	-1.328683e+01
5.595951e+01	-1.333512e+01
5.628273e+01	-1.338376e+01
5.660782e+01	-1.343053e+01
5.693479e+01	-1.347777e+01
5.726364e+01	-1.352587e+01
5.759439e+01	-1.357333e+01
5.792705e+01	-1.362155e+01
5.826164e+01	-1.366931e+01
5.859815e+01	-1.371730e+01
5.893662e+01	-1.376534e+01
5.927703e+01	-1.381379e+01
5.961941e+01	-1.386093e+01
5.996377e+01	-1.390880e+01
6.031012e+01	-1.395738e+01
6.065847e+01	-1.400516e+01
6.100883e+01	-1.405276e+01
6.136121e+01	-1.410169e+01
6.171563e+01	-1.414947e+01
6.207210e+01	-1.419793e+01
6.243063e+01	-1.424549e+01
6.279122e+01	-1.429413e+01
6.315390e+01	-1.434301e+01
6.351868e+01	-1.439015e+01
6.388556e+01	-1.443884e+01
6.425456e+01	-1.448732e+01
6.462569e+01	-1.453515e+01
6.499897e+01	-1.458342e+01
6.537440e+01	-1.463204e+01
6.575200e+01	-1.467986e+01
6.613178e+01	-1.472811e+01
6.651375e+01	-1.477589e+01
6.689793e+01	-1.482451e+01
6.728433e+01	-1.487336e+01
6.767297e+01	-1.492196e+01
6.806384e+01	-1.497023e+01
6.845698e+01	-1.501867e+01
6.885238e+01	-1.506728e+01
6.925007e+01	-1.511551e+01
6.965005e+01	-1.516346e+01
7.005235e+01	-1.521247e+01
7.045697e+01	-1.526109e+01
7.086393e+01	-1.530972e+01
7.127323e+01	-1.535775e+01
7.168490e+01	-1.540671e+01
7.209895e+01	-1.545539e+01
7.251539e+01	-1.550435e+01
7.293424e+01	-1.555313e+01
7.335551e+01	-1.560177e+01
7.377920e+01	-1.564992e+01
7.420535e+01	-1.569869e+01
7.463396e+01	-1.574714e+01
7.506504e+01	-1.579643e+01
7.549861e+01	-1.584557e+01
7.593469e+01	-1.589288e+01
7.637328e+01	-1.594165e+01
7.681441e+01	-1.599077e+01
7.725809e+01	-1.604016e+01
7.770433e+01	-1.608871e+01
7.815315e+01	-1.613713e+01
7.860456e+01	-1.618671e+01
7.905857e+01	-1.623514e+01
7.951521e+01	-1.628358e+01
7.997449e+01	-1.633196e+01
8.043642e+01	-1.638135e+01
8.090102e+01	-1.643052e+01
8.136830e+01	-1.647908e+01
8.183828e+01	-1.652827e+01
8.231097e+01	-1.657715e+01
8.278640e+01	-1.662593e+01
8.326457e+01	-1.667481e+01
8.374550e+01	-1.672451e+01
8.422921e+01	-1.677374e+01
8.471572e+01	-1.682101e+01
8.520503e+01	-1.687159e+01
8.569717e+01	-1.692028e+01
8.619215e+01	-1.696942e+01
8.669000e+01	-1.701804e+01
8.719071e+01	-1.706801e+01
8.769432e+01	-1.711658e+01
8.820084e+01	-1.716542e+01
8.871029e+01	-1.721509e+01
8.922267e+01	-1.726409e+01
8.973802e+01	-1.731213e+01
9.025634e+01	-1.736214e+01
9.077766e+01	-1.740982e+01
9.130199e+01	-1.745915e+01
9.182935e+01	-1.750923e+01
9.235975e+01	-1.755825e+01
9.289321e+01	-1.760600e+01
9.342976e+01	-1.765724e+01
9.396941e+01	-1.770554e+01
9.451217e+01	-1.775465e+01
9.505807e+01	-1.780367e+01
9.560712e+01	-1.785189e+01
9.615934e+01	-1.790214e+01
9.671476e+01	-1.795064e+01
9.727338e+01	-1.800193e+01
9.783522e+01	-1.805074e+01
9.840032e+01	-1.809893e+01
9.896867e+01	-1.814869e+01
9.954031e+01	-1.819797e+01
1.001153e+02	-1.824742e+01
1.006935e+02	-1.829618e+01
1.012751e+02	-1.834596e+01
1.018601e+02	-1.839468e+01
1.024484e+02	-1.844523e+01
1.030402e+02	-1.849355e+01
1.036353e+02	-1.854196e+01
1.042339e+02	-1.859160e+01
1.048360e+02	-1.864092e+01
1.054415e+02	-1.869098e+01
1.060505e+02	-1.874080e+01
1.066631e+02	-1.878994e+01
1.072791e+02	-1.883858e+01
1.078988e+02	-1.888874e+01
1.085220e+02	-1.893763e+01
1.091488e+02	-1.898715e+01
1.097793e+02	-1.903714e+01
1.104133e+02	-1.908565e+01
1.110511e+02	-1.913543e+01
1.116925e+02	-1.918433e+01
1.123376e+02	-1.923379e+01
1.129865e+02	-1.928389e+01
1.136391e+02	-1.933400e+01
1.142955e+02	-1.938395e+01
1.149556e+02	-1.943129e+01
1.156196e+02	-1.948080e+01
1.162874e+02	-1.953045e+01
1.169591e+02	-1.958129e+01
1.176347e+02	-1.962976e+01
1.183141e+02	-1.967930e+01
1.189975e+02	-1.972884e+01
1.196848e+02	-1.977891e+01
1.203761e+02	-1.982757e+01
1.210714e+02	-1.987793e+01
1.217707e+02	-1.992627e+01
1.224740e+02	-1.997671e+01
1.231814e+02	-2.002550e+01
1.238929e+02	-2.007403e+01
1.246085e+02	-2.012524e+01
1.253283e+02	-2.017670e+01
1.260522e+02	-2.022412e+01
1.267802e+02	-2.027398e+01
1.275125e+02	-2.032359e+01
1.282490e+02	-2.037298e+01
1.289898e+02	-2.042224e+01
1.297348e+02	-2.047349e+01
1.304842e+02	-2.052356e+01
1.312378e+02	-2.057024e+01
1.319959e+02	-2.062188e+01
1.327583e+02	-2.067057e+01
1.335251e+02	-2.072139e+01
1.342963e+02	-2.077101e+01
1.350720e+02	-2.082047e+01
1.358522e+02	-2.086946e+01
1.366368e+02	-2.092028e+01
1.374260e+02	-2.096725e+01
1.382198e+02	-2.101976e+01
1.390182e+02	-2.106844e+01
1.398211e+02	-2.111713e+01
1.406287e+02	-2.116601e+01
1.414410e+02	-2.121767e+01
1.422579e+02	-2.126555e+01
1.430796e+02	-2.131671e+01
1.439060e+02	-2.136689e+01
1.447372e+02	-2.141689e+01
1.455732e+02	-2.146609e+01
1.464141e+02	-2.151256e+01
1.472597e+02	-2.156454e+01
1.481103e+02	-2.161616e+01
1.489658e+02	-2.166268e+01
1.498262e+02	-2.171467e+01
1.506916e+02	-2.176321e+01
1.515620e+02	-2.181460e+01
1.524374e+02	-2.186117e+01
1.533179e+02	-2.191332e+01
1.542034e+02	-2.196191e+01
1.550941e+02	-2.201053e+01
1.559899e+02	-2.206349e+01
1.568909e+02	-2.211113e+01
1.577971e+02	-2.216121e+01
1.587085e+02	-2.220948e+01
1.596252e+02	-2.226298e+01
1.605472e+02	-2.230977e+01
1.614745e+02	-2.236178e+01
1.624072e+02	-2.240941e+01
1.633453e+02	-2.245753e+01
1.642887e+02	-2.251060e+01
1.652377e+02	-2.255715e+01
1.661921e+02	-2.260896e+01
1.671520e+02	-2.265665e+01
1.681175e+02	-2.270907e+01
1.690885e+02	-2.275837e+01
1.700651e+02	-2.280820e+01
1.710474e+02	-2.285643e+01
1.720354e+02	-2.290687e+01
1.730291e+02	-2.295825e+01
1.740285e+02	-2.300669e+01
1.750337e+02	-2.305802e+01
1.760446e+02	-2.310792e+01
1.770615e+02	-2.315962e+01
1.780842e+02	-2.320740e+01
1.791128e+02	-2.325832e+01
1.801473e+02	-2.330935e+01
1.811878e+02	-2.335566e+01
1.822344e+02	-2.340478e+01
1.832870e+02	-2.345404e+01
1.843456e+02	-2.350426e+01
1.854104e+02	-2.355541e+01
1.864813e+02	-2.360442e+01
1.875584e+02	-2.365708e+01
1.886418e+02	-2.370374e+01
1.897313e+02	-2.375532e+01
1.908272e+02	-2.380352e+01
1.919294e+02	-2.385704e+01
1.930380e+02	-2.390511e+01
1.941530e+02	-2.395287e+01
1.952744e+02	-2.400628e+01
1.964023e+02	-2.405374e+01
1.975367e+02	-2.410438e+01
1.986777e+02	-2.415319e+01
1.998252e+02	-2.420367e+01
2.009794e+02	-2.425145e+01
2.021403e+02	-2.430401e+01
2.033078e+02	-2.435395e+01
2.044821e+02	-2.440057e+01
2.056632e+02	-2.445212e+01
2.068511e+02	-2.450467e+01
2.080459e+02	-2.455294e+01
2.092475e+02	-2.460209e+01
2.104561e+02	-2.465096e+01
2.116717e+02	-2.470469e+01
2.128943e+02	-2.475157e+01
2.141240e+02	-2.480159e+01
2.153608e+02	-2.485103e+01
2.166047e+02	-2.490363e+01
2.178558e+02	-2.495096e+01
2.191141e+02	-2.499925e+01
2.203797e+02	-2.505198e+01
2.216526e+02	-2.510099e+01
2.229329e+02	-2.515280e+01
2.242205e+02	-2.520046e+01
2.255156e+02	-2.524698e+01
2.268182e+02	-2.529750e+01
2.281283e+02	-2.534924e+01
2.294459e+02	-2.540181e+01
2.307712e+02	-2.545010e+01
2.321041e+02	-2.549815e+01
2.334447e+02	-2.554722e+01
2.347931e+02	-2.559936e+01
2.361493e+02	-2.565406e+01
2.375133e+02	-2.569930e+01
2.388851e+02	-2.574955e+01
2.402649e+02	-2.580090e+01
2.416527e+02	-2.585245e+01
2.430484e+02	-2.590140e+01
2.444523e+02	-2.595114e+01
2.458642e+02	-2.600182e+01
2.472843e+02	-2.604884e+01
2.487126e+02	-2.610263e+01
2.501492e+02	-2.614923e+01
2.515940e+02	-2.620050e+01
2.530472e+02	-2.625109e+01
2.545088e+02	-2.630119e+01
2.559789e+02	-2.635125e+01
2.574574e+02	-2.640091e+01
2.589444e+02	-2.644629e+01
2.604401e+02	-2.649874e+01
2.619444e+02	-2.655097e+01
2.634574e+02	-2.660008e+01
2.649791e+02	-2.664774e+01
2.665096e+02	-2.669852e+01
2.680489e+02	-2.674707e+01
2.695972e+02	-2.679988e+01
2.711544e+02	-2.684929e+01
2.727205e+02	-2.690129e+01
2.742958e+02	-2.695325e+01
2.758801e+02	-2.699687e+01
2.774736e+02	-2.704922e+01
2.790762e+02	-2.709953e+01
2.806882e+02	-2.714755e+01
2.823094e+02	-2.719981e+01
2.839400e+02	-2.724952e+01
2.855800e+02	-2.729616e+01
2.872295e+02	-2.734908e+01
2.888886e+02	-2.739765e+01
2.905572e+02	-2.744846e+01
2.922354e+02	-2.750225e+01
2.939234e+02	-2.754935e+01
2.956211e+02	-2.759641e+01
2.973286e+02	-2.765164e+01
2.990459e+02	-2.769933e+01
3.007732e+02	-2.775033e+01
3.025104e+02	-2.779620e+01
3.042577e+02	-2.784740e+01
3.060151e+02	-2.790036e+01
3.077826e+02	-2.795151e+01
3.095604e+02	-2.799765e+01
3.113484e+02	-2.805029e+01
3.131467e+02	-2.809766e+01
3.149554e+02	-2.815253e+01
3.167746e+02	-2.820035e+01
3.186043e+02	-2.825134e+01
3.204445e+02	-2.830301e+01
3.222954e+02	-2.835303e+01
3.241570e+02	-2.840135e+01
3.260293e+02	-2.844588e+01
3.279124e+02	-2.850129e+01
3.298064e+02	-2.854919e+01
3.317114e+02	-2.859586e+01
3.336273e+02	-2.864870e+01
3.355544e+02	-2.870081e+01
3.374925e+02	-2.874929e+01
3.394418e+02	-2.879987e+01
3.414024e+02	-2.885493e+01
3.433744e+02	-2.889925e+01
3.453577e+02	-2.894750e+01
3.473525e+02	-2.899884e+01
3.493588e+02	-2.904866e+01
3.513766e+02	-2.909841e+01
3.534062e+02	-2.914970e+01
3.554474e+02	-2.919906e+01
3.575005e+02	-2.925088e+01
3.595654e+02	-2.929872e+01
3.616422e+02	-2.934714e+01
3.637311e+02	-2.939794e+01
3.658320e+02	-2.945734e+01
3.679450e+02	-2.949723e+01
3.700702e+02	-2.954825e+01
3.722077e+02	-2.960241e+01
3.743576e+02	-2.965212e+01
3.765199e+02	-2.969878e+01
3.786946e+02	-2.974915e+01
3.808820e+02	-2.980165e+01
3.830819e+02	-2.985147e+01
3.852946e+02	-2.989922e+01
3.875200e+02	-2.995229e+01
3.897583e+02	-3.000101e+01
3.920096e+02	-3.005468e+01
3.942738e+02	-3.010469e+01
3.965511e+02	-3.015167e+01
3.988416e+02	-3.019973e+01
4.011452e+02	-3.025208e+01
4.034622e+02	-3.029861e+01
4.057926e+02	-3.035302e+01
4.081365e+02	-3.040549e+01
4.104938e+02	-3.045066e+01
4.128648e+02	-3.050136e+01
4.152495e+02	-3.055077e+01
4.176480e+02	-3.061295e+01
4.200603e+02	-3.065705e+01
4.224866e+02	-3.070608e+01
4.249268e+02	-3.075349e+01
4.273812e+02	-3.080465e+01
4.298497e+02	-3.085479e+01
4.323325e+02	-3.090305e+01
4.348297e+02	-3.095251e+01
4.373412e+02	-3.100408e+01
4.398673e+02	-3.105508e+01
4.424079e+02	-3.109833e+01
4.449633e+02	-3.115497e+01
4.475334e+02	-3.120299e+01
4.501183e+02	-3.125565e+01
4.527182e+02	-3.130751e+01
4.553330e+02	-3.135153e+01
4.579630e+02	-3.140123e+01
4.606082e+02	-3.146094e+01
4.632687e+02	-3.151404e+01
4.659445e+02	-3.155275e+01
4.686358e+02	-3.160652e+01
4.713426e+02	-3.165929e+01
4.740650e+02	-3.171303e+01
4.768032e+02	-3.175823e+01
4.795572e+02	-3.180834e+01
4.823271e+02	-3.185709e+01
4.851130e+02	-3.191331e+01
4.879150e+02	-3.195497e+01
4.907332e+02	-3.201157e+01
4.935676e+02	-3.205820e+01
4.964185e+02	-3.211226e+01
4.992858e+02	-3.216147e+01
5.021696e+02	-3.220559e+01
5.050701e+02	-3.225598e+01
5.079874e+02	-3.231112e+01
5.109215e+02	-3.235526e+01
5.138726e+02	-3.241393e+01
5.168407e+02	-3.245596e+01
5.198259e+02	-3.251049e+01
5.228284e+02	-3.256102e+01
5.258482e+02	-3.261687e+01
5.288855e+02	-3.266362e+01
5.319403e+02	-3.270342e+01
5.350128e+02	-3.275621e+01
5.381030e+02	-3.280911e+01
5.412111e+02	-3.286630e+01
5.443371e+02	-3.291286e+01
5.474812e+02	-3.295652e+01
5.506434e+02	-3.301415e+01
5.538239e+02	-3.306398e+01
5.570228e+02	-3.311511e+01
5.602401e+02	-3.315978e+01
5.634760e+02	-3.321043e+01
5.667306e+02	-3.326299e+01
5.700040e+02	-3.331662e+01
5.732964e+02	-3.336089e+01
5.766077e+02	-3.341665e+01
5.799382e+02	-3.346357e+01
5.832879e+02	-3.351661e+01
5.866569e+02	-3.356186e+01
5.900454e+02	-3.361145e+01
5.934535e+02	-3.367397e+01
5.968813e+02	-3.372142e+01
6.003288e+02	-3.376524e+01
6.037963e+02	-3.381846e+01
6.072838e+02	-3.386653e+01
6.107914e+02	-3.391688e+01
6.143194e+02	-3.396387e+01
6.178676e+02	-3.401719e+01
6.214364e+02	-3.405840e+01
6.250258e+02	-3.411814e+01
6.286359e+02	-3.416623e+01
6.322669e+02	-3.422142e+01
6.359189e+02	-3.427007e+01
6.395919e+02	-3.432359e+01
6.432862e+02	-3.436513e+01
6.470017e+02	-3.441668e+01
6.507388e+02	-3.447655e+01
6.544974e+02	-3.452360e+01
6.582778e+02	-3.457692e+01
6.620800e+02	-3.461950e+01
6.659041e+02	-3.467140e+01
6.697504e+02	-3.472680e+01
6.736188e+02	-3.476780e+01
6.775096e+02	-3.482111e+01
6.814229e+02	-3.486911e+01
6.853587e+02	-3.492254e+01
6.893173e+02	-3.496490e+01
6.932988e+02	-3.502540e+01
6.973033e+02	-3.508243e+01
7.013309e+02	-3.513518e+01
