Frequency(Hz)	Magnitude(dB)
1.000000e+01	-2.163702e+00
1.005776e+01	-2.183254e+00
1.011585e+01	-2.203038e+00
1.017428e+01	-2.222847e+00
1.023305e+01	-2.243219e+00
1.029215e+01	-2.263695e+00
1.035160e+01	-2.284098e+00
1.041139e+01	-2.304336e+00
1.047153e+01	-2.324911e+00
1.053201e+01	-2.345842e+00
1.059284e+01	-2.366981e+00
1.065403e+01	-2.387807e+00
1.071556e+01	-2.409399e+00
1.077746e+01	-2.430768e+00
1.083971e+01	-2.452003e+00
1.090232e+01	-2.473838e+00
1.096529e+01	-2.495611e+00
1.102862e+01	-2.517260e+00
1.109232e+01	-2.539487e+00
1.115639e+01	-2.561846e+00
1.122083e+01	-2.583896e+00
1.128564e+01	-2.606574e+00
1.135083e+01	-2.629103e+00
1.141639e+01	-2.652026e+00
1.148233e+01	-2.674854e+00
1.154865e+01	-2.698019e+00
1.161536e+01	-2.721221e+00
1.168245e+01	-2.744648e+00
1.174992e+01	-2.768350e+00
1.181779e+01	-2.791857e+00
1.188605e+01	-2.815376e+00
1.195470e+01	-2.839586e+00
1.202375e+01	-2.863675e+00
1.209320e+01	-2.887834e+00
1.216305e+01	-2.912147e+00
1.223330e+01	-2.936825e+00
1.230396e+01	-2.961370e+00
1.237503e+01	-2.986273e+00
1.244651e+01	-3.011105e+00
1.251840e+01	-3.036284e+00
1.259070e+01	-3.061253e+00
1.266343e+01	-3.086651e+00
1.273657e+01	-3.112299e+00
1.281014e+01	-3.137942e+00
1.288413e+01	-3.163664e+00
1.295855e+01	-3.189812e+00
1.303339e+01	-3.215938e+00
1.310867e+01	-3.242349e+00
1.318439e+01	-3.268540e+00
1.326054e+01	-3.294990e+00
1.333713e+01	-3.321748e+00
1.341417e+01	-3.348649e+00
1.349165e+01	-3.375663e+00
1.356958e+01	-3.402533e+00
1.364795e+01	-3.429839e+00
1.372678e+01	-3.457191e+00
1.380607e+01	-3.484779e+00
1.388581e+01	-3.512405e+00
1.396602e+01	-3.540275e+00
1.404668e+01	-3.568216e+00
1.412782e+01	-3.596016e+00
1.420942e+01	-3.624136e+00
1.429149e+01	-3.653117e+00
1.437404e+01	-3.681503e+00
1.445706e+01	-3.710125e+00
1.454057e+01	-3.738807e+00
1.462455e+01	-3.767901e+00
1.470902e+01	-3.796915e+00
1.479398e+01	-3.826213e+00
1.487943e+01	-3.855812e+00
1.496537e+01	-3.885228e+00
1.505181e+01	-3.914728e+00
1.513875e+01	-3.944698e+00
1.522619e+01	-3.974210e+00
1.531414e+01	-4.004468e+00
1.540259e+01	-4.034753e+00
1.549156e+01	-4.064844e+00
1.558103e+01	-4.095613e+00
1.567103e+01	-4.126128e+00
1.576155e+01	-4.156605e+00
1.585258e+01	-4.187731e+00
1.594415e+01	-4.218885e+00
1.603624e+01	-4.250094e+00
1.612886e+01	-4.281201e+00
1.622202e+01	-4.312391e+00
1.631572e+01	-4.344269e+00
1.640996e+01	-4.375850e+00
1.650474e+01	-4.407679e+00
1.660008e+01	-4.439529e+00
1.669596e+01	-4.471925e+00
1.679239e+01	-4.503876e+00
1.688938e+01	-4.536206e+00
1.698694e+01	-4.568817e+00
1.708505e+01	-4.601335e+00
1.718373e+01	-4.634087e+00
1.728299e+01	-4.666918e+00
1.738281e+01	-4.700175e+00
1.748322e+01	-4.733010e+00
1.758420e+01	-4.766405e+00
1.768576e+01	-4.799965e+00
1.778792e+01	-4.833237e+00
1.789066e+01	-4.867236e+00
1.799399e+01	-4.900936e+00
1.809793e+01	-4.934875e+00
1.820246e+01	-4.968867e+00
1.830760e+01	-5.003002e+00
1.841334e+01	-5.037003e+00
1.851969e+01	-5.071661e+00
1.862666e+01	-5.105970e+00
1.873425e+01	-5.140583e+00
1.884246e+01	-5.175403e+00
1.895129e+01	-5.210506e+00
1.906075e+01	-5.245241e+00
1.917085e+01	-5.280629e+00
1.928158e+01	-5.315844e+00
1.939295e+01	-5.351133e+00
1.950496e+01	-5.386628e+00
1.961762e+01	-5.422429e+00
1.973093e+01	-5.457890e+00
1.984490e+01	-5.494170e+00
1.995952e+01	-5.529965e+00
2.007480e+01	-5.565986e+00
2.019076e+01	-5.602083e+00
2.030738e+01	-5.638569e+00
2.042467e+01	-5.674824e+00
2.054264e+01	-5.711397e+00
2.066130e+01	-5.747902e+00
2.078064e+01	-5.784678e+00
2.090066e+01	-5.821689e+00
2.102139e+01	-5.858648e+00
2.114280e+01	-5.895949e+00
2.126492e+01	-5.932881e+00
2.138775e+01	-5.970269e+00
2.151128e+01	-6.007605e+00
2.163553e+01	-6.045312e+00
2.176050e+01	-6.083041e+00
2.188619e+01	-6.121049e+00
2.201260e+01	-6.158534e+00
2.213974e+01	-6.196305e+00
2.226762e+01	-6.234520e+00
2.239624e+01	-6.272883e+00
2.252560e+01	-6.310909e+00
2.265571e+01	-6.349240e+00
2.278656e+01	-6.387940e+00
2.291818e+01	-6.426317e+00
2.305055e+01	-6.465334e+00
2.318369e+01	-6.503959e+00
2.331760e+01	-6.543124e+00
2.345228e+01	-6.582201e+00
2.358774e+01	-6.620932e+00
2.372398e+01	-6.660118e+00
2.386101e+01	-6.699277e+00
2.399883e+01	-6.739032e+00
2.413745e+01	-6.778452e+00
2.427686e+01	-6.817957e+00
2.441709e+01	-6.857548e+00
2.455812e+01	-6.897076e+00
2.469997e+01	-6.937134e+00
2.484263e+01	-6.976994e+00
2.498612e+01	-7.016973e+00
2.513044e+01	-7.057075e+00
2.527559e+01	-7.097389e+00
2.542158e+01	-7.137442e+00
2.556842e+01	-7.178518e+00
2.571610e+01	-7.218344e+00
2.586463e+01	-7.259307e+00
2.601403e+01	-7.299475e+00
2.616428e+01	-7.340347e+00
2.631541e+01	-7.381389e+00
2.646740e+01	-7.422319e+00
2.662028e+01	-7.463365e+00
2.677404e+01	-7.504349e+00
2.692868e+01	-7.545333e+00
2.708422e+01	-7.586980e+00
2.724066e+01	-7.628416e+00
2.739800e+01	-7.669764e+00
2.755625e+01	-7.710824e+00
2.771541e+01	-7.752829e+00
2.787550e+01	-7.794677e+00
2.803650e+01	-7.835984e+00
2.819844e+01	-7.877883e+00
2.836131e+01	-7.919954e+00
2.852513e+01	-7.961851e+00
2.868989e+01	-8.003954e+00
2.885560e+01	-8.046533e+00
2.902227e+01	-8.088122e+00
2.918990e+01	-8.130745e+00
2.935850e+01	-8.172680e+00
2.952807e+01	-8.215382e+00
2.969863e+01	-8.258110e+00
2.987016e+01	-8.300724e+00
3.004269e+01	-8.343199e+00
3.021622e+01	-8.386197e+00
3.039075e+01	-8.428782e+00
3.056628e+01	-8.471247e+00
3.074283e+01	-8.514767e+00
3.092040e+01	-8.557886e+00
3.109900e+01	-8.600613e+00
3.127862e+01	-8.643776e+00
3.145929e+01	-8.687227e+00
3.164099e+01	-8.730551e+00
3.182375e+01	-8.773728e+00
3.200756e+01	-8.816962e+00
3.219244e+01	-8.860832e+00
3.237838e+01	-8.904949e+00
3.256540e+01	-8.947807e+00
3.275349e+01	-8.991865e+00
3.294268e+01	-9.035659e+00
3.313295e+01	-9.079268e+00
3.332433e+01	-9.122680e+00
3.351681e+01	-9.166989e+00
3.371040e+01	-9.211181e+00
3.390511e+01	-9.254587e+00
3.410094e+01	-9.298958e+00
3.429791e+01	-9.343266e+00
3.449601e+01	-9.387308e+00
3.469526e+01	-9.432089e+00
3.489566e+01	-9.476323e+00
3.509721e+01	-9.519971e+00
3.529993e+01	-9.565605e+00
3.550382e+01	-9.609309e+00
3.570889e+01	-9.654030e+00
3.591515e+01	-9.698988e+00
3.612259e+01	-9.743899e+00
3.633123e+01	-9.787924e+00
3.654108e+01	-9.833430e+00
3.675214e+01	-9.877655e+00
3.696442e+01	-9.922669e+00
3.717792e+01	-9.967719e+00
3.739266e+01	-1.001288e+01
3.760864e+01	-1.005735e+01
3.782587e+01	-1.010330e+01
3.804435e+01	-1.014812e+01
3.826409e+01	-1.019288e+01
3.848510e+01	-1.023843e+01
3.870739e+01	-1.028426e+01
3.893096e+01	-1.032935e+01
3.915583e+01	-1.037478e+01
3.938199e+01	-1.041975e+01
3.960946e+01	-1.046570e+01
3.983824e+01	-1.051043e+01
4.006834e+01	-1.055643e+01
4.029978e+01	-1.060205e+01
4.053255e+01	-1.064808e+01
4.076666e+01	-1.069379e+01
4.100213e+01	-1.073900e+01
4.123896e+01	-1.078494e+01
4.147715e+01	-1.083119e+01
4.171672e+01	-1.087700e+01
4.195767e+01	-1.092327e+01
4.220002e+01	-1.096943e+01
4.244377e+01	-1.101500e+01
4.268892e+01	-1.106082e+01
4.293549e+01	-1.110742e+01
4.318348e+01	-1.115396e+01
4.343291e+01	-1.120009e+01
4.368377e+01	-1.124556e+01
4.393609e+01	-1.129240e+01
4.418986e+01	-1.133797e+01
4.444510e+01	-1.138545e+01
4.470182e+01	-1.143148e+01
4.496001e+01	-1.147788e+01
4.521970e+01	-1.152420e+01
4.548089e+01	-1.157076e+01
4.574358e+01	-1.161791e+01
4.600779e+01	-1.166375e+01
4.627353e+01	-1.171119e+01
4.654081e+01	-1.175775e+01
4.680963e+01	-1.180364e+01
4.708000e+01	-1.185066e+01
4.735193e+01	-1.189752e+01
4.762543e+01	-1.194426e+01
4.790051e+01	-1.199130e+01
4.817719e+01	-1.203770e+01
4.845545e+01	-1.208497e+01
4.873533e+01	-1.213146e+01
4.901682e+01	-1.217961e+01
4.929994e+01	-1.222656e+01
4.958470e+01	-1.227295e+01
4.987110e+01	-1.231942e+01
5.015915e+01	-1.236742e+01
5.044887e+01	-1.241452e+01
5.074026e+01	-1.246199e+01
5.103333e+01	-1.250842e+01
5.132810e+01	-1.255598e+01
5.162457e+01	-1.260333e+01
5.192275e+01	-1.265039e+01
5.222265e+01	-1.269781e+01
5.252429e+01	-1.274432e+01
5.282767e+01	-1.279266e+01
5.313280e+01	-1.283989e+01
5.343969e+01	-1.288771e+01
5.374836e+01	-1.293430e+01
5.405880e+01	-1.298286e+01
5.437105e+01	-1.303024e+01
5.468509e+01	-1.307782e+01
5.500095e+01	-1.312499e+01
5.531863e+01	-1.317236e+01
5.563815e+01	-1.321997e+01
5.595951e+01	-1.326753e+01
5.628273e+01	-1.331599e+01
5.660782e+01	-1.336419e+01
5.693479e+01	-1.341090e+01
5.726364e+01	-1.345905e+01
5.759439e+01	-1.350731e+01
5.792705e+01	-1.355472e+01
5.826164e+01	-1.360251e+01
5.859815e+01	-1.364906e+01
5.893662e+01	-1.369879e+01
5.927703e+01	-1.374622e+01
5.961941e+01	-1.379404e+01
5.996377e+01	-1.384145e+01
6.031012e+01	-1.388925e+01
6.065847e+01	-1.393811e+01
6.100883e+01	-1.398539e+01
6.136121e+01	-1.403381e+01
6.171563e+01	-1.408137e+01
6.207210e+01	-1.412998e+01
6.243063e+01	-1.417814e+01
6.279122e+01	-1.422635e+01
6.315390e+01	-1.427393e+01
6.351868e+01	-1.432265e+01
6.388556e+01	-1.437087e+01
6.425456e+01	-1.441863e+01
6.462569e+01	-1.446658e+01
6.499897e+01	-1.451522e+01
6.537440e+01	-1.456421e+01
6.575200e+01	-1.461187e+01
6.613178e+01	-1.466016e+01
6.651375e+01	-1.470873e+01
6.689793e+01	-1.475702e+01
6.728433e+01	-1.480590e+01
6.767297e+01	-1.485354e+01
6.806384e+01	-1.490168e+01
6.845698e+01	-1.495118e+01
6.885238e+01	-1.499812e+01
6.925007e+01	-1.504709e+01
6.965005e+01	-1.509617e+01
7.005235e+01	-1.514409e+01
7.045697e+01	-1.519311e+01
7.086393e+01	-1.524169e+01
7.127323e+01	-1.529046e+01
7.168490e+01	-1.533794e+01
7.209895e+01	-1.538689e+01
7.251539e+01	-1.543629e+01
7.293424e+01	-1.548430e+01
7.335551e+01	-1.553233e+01
7.377920e+01	-1.558134e+01
7.420535e+01	-1.563074e+01
7.463396e+01	-1.567920e+01
7.506504e+01	-1.572751e+01
7.549861e+01	-1.577697e+01
7.593469e+01	-1.582490e+01
7.637328e+01	-1.587351e+01
7.681441e+01	-1.592250e+01
7.725809e+01	-1.597167e+01
7.770433e+01	-1.601925e+01
7.815315e+01	-1.606948e+01
7.860456e+01	-1.611814e+01
7.905857e+01	-1.616565e+01
7.951521e+01	-1.621533e+01
7.997449e+01	-1.626393e+01
8.043642e+01	-1.631259e+01
8.090102e+01	-1.636165e+01
8.136830e+01	-1.641042e+01
8.183828e+01	-1.646022e+01
8.231097e+01	-1.650907e+01
8.278640e+01	-1.655734e+01
8.326457e+01	-1.660729e+01
8.374550e+01	-1.665512e+01
8.422921e+01	-1.670453e+01
8.471572e+01	-1.675343e+01
8.520503e+01	-1.680173e+01
8.569717e+01	-1.685212e+01
8.619215e+01	-1.689959e+01
8.669000e+01	-1.694942e+01
8.719071e+01	-1.699848e+01
8.769432e+01	-1.704750e+01
8.820084e+01	-1.709657e+01
8.871029e+01	-1.714596e+01
8.922267e+01	-1.719469e+01
8.973802e+01	-1.724222e+01
9.025634e+01	-1.729233e+01
9.077766e+01	-1.734264e+01
9.130199e+01	-1.739093e+01
9.182935e+01	-1.743989e+01
9.235975e+01	-1.748982e+01
9.289321e+01	-1.753858e+01
9.342976e+01	-1.758746e+01
9.396941e+01	-1.763621e+01
9.451217e+01	-1.768535e+01
9.505807e+01	-1.773443e+01
9.560712e+01	-1.778431e+01
9.615934e+01	-1.783314e+01
9.671476e+01	-1.788356e+01
9.727338e+01	-1.793189e+01
9.783522e+01	-1.798013e+01
9.840032e+01	-1.803075e+01
9.896867e+01	-1.807946e+01
9.954031e+01	-1.812771e+01
1.001153e+02	-1.817865e+01
1.006935e+02	-1.822704e+01
1.012751e+02	-1.827736e+01
1.018601e+02	-1.832595e+01
1.024484e+02	-1.837547e+01
1.030402e+02	-1.842585e+01
1.036353e+02	-1.847326e+01
1.042339e+02	-1.852342e+01
1.048360e+02	-1.857297e+01
1.054415e+02	-1.862198e+01
1.060505e+02	-1.867111e+01
1.066631e+02	-1.872033e+01
1.072791e+02	-1.877020e+01
1.078988e+02	-1.881941e+01
1.085220e+02	-1.886849e+01
1.091488e+02	-1.891833e+01
1.097793e+02	-1.896601e+01
1.104133e+02	-1.901677e+01
1.110511e+02	-1.906539e+01
1.116925e+02	-1.911575e+01
1.123376e+02	-1.916419e+01
1.129865e+02	-1.921548e+01
1.136391e+02	-1.926362e+01
1.142955e+02	-1.931180e+01
1.149556e+02	-1.936193e+01
1.156196e+02	-1.941270e+01
1.162874e+02	-1.946146e+01
1.169591e+02	-1.951023e+01
1.176347e+02	-1.956014e+01
1.183141e+02	-1.961162e+01
1.189975e+02	-1.965937e+01
1.196848e+02	-1.970834e+01
1.203761e+02	-1.975842e+01
1.210714e+02	-1.980671e+01
1.217707e+02	-1.985820e+01
1.224740e+02	-1.990748e+01
1.231814e+02	-1.995513e+01
1.238929e+02	-2.000576e+01
1.246085e+02	-2.005678e+01
1.253283e+02	-2.010557e+01
1.260522e+02	-2.015493e+01
1.267802e+02	-2.020416e+01
1.275125e+02	-2.025346e+01
1.282490e+02	-2.030285e+01
1.289898e+02	-2.035429e+01
1.297348e+02	-2.040354e+01
1.304842e+02	-2.045441e+01
1.312378e+02	-2.050281e+01
1.319959e+02	-2.055103e+01
1.327583e+02	-2.060148e+01
1.335251e+02	-2.065081e+01
1.342963e+02	-2.070042e+01
1.350720e+02	-2.075018e+01
1.358522e+02	-2.079942e+01
1.366368e+02	-2.084826e+01
1.374260e+02	-2.089892e+01
1.382198e+02	-2.095117e+01
1.390182e+02	-2.099817e+01
1.398211e+02	-2.104674e+01
1.406287e+02	-2.109662e+01
1.414410e+02	-2.114812e+01
1.422579e+02	-2.119578e+01
1.430796e+02	-2.124726e+01
1.439060e+02	-2.129699e+01
1.447372e+02	-2.134598e+01
1.455732e+02	-2.139622e+01
1.464141e+02	-2.144526e+01
1.472597e+02	-2.149483e+01
1.481103e+02	-2.154676e+01
1.489658e+02	-2.159534e+01
1.498262e+02	-2.164362e+01
1.506916e+02	-2.169448e+01
1.515620e+02	-2.174218e+01
1.524374e+02	-2.179333e+01
1.533179e+02	-2.184422e+01
1.542034e+02	-2.189230e+01
1.550941e+02	-2.194161e+01
1.559899e+02	-2.199094e+01
1.568909e+02	-2.203989e+01
1.577971e+02	-2.209226e+01
1.587085e+02	-2.214102e+01
1.596252e+02	-2.219041e+01
1.605472e+02	-2.224028e+01
1.614745e+02	-2.229115e+01
1.624072e+02	-2.234234e+01
1.633453e+02	-2.238888e+01
1.642887e+02	-2.243984e+01
1.652377e+02	-2.249121e+01
1.661921e+02	-2.254135e+01
1.671520e+02	-2.258809e+01
1.681175e+02	-2.263877e+01
1.690885e+02	-2.268930e+01
1.700651e+02	-2.273805e+01
1.710474e+02	-2.278999e+01
1.720354e+02	-2.283813e+01
1.730291e+02	-2.288682e+01
1.740285e+02	-2.293644e+01
1.750337e+02	-2.298870e+01
1.760446e+02	-2.303759e+01
1.770615e+02	-2.308489e+01
1.780842e+02	-2.313768e+01
1.791128e+02	-2.318757e+01
1.801473e+02	-2.323733e+01
1.811878e+02	-2.328638e+01
1.822344e+02	-2.333604e+01
1.832870e+02	-2.338422e+01
1.843456e+02	-2.343402e+01
1.854104e+02	-2.348490e+01
1.864813e+02	-2.353468e+01
1.875584e+02	-2.358487e+01
1.886418e+02	-2.363718e+01
1.897313e+02	-2.368409e+01
1.908272e+02	-2.373542e+01
1.919294e+02	-2.378346e+01
1.930380e+02	-2.383641e+01
1.941530e+02	-2.388524e+01
1.952744e+02	-2.393393e+01
1.964023e+02	-2.398436e+01
1.975367e+02	-2.403326e+01
1.986777e+02	-2.408298e+01
1.998252e+02	-2.413311e+01
2.009794e+02	-2.418097e+01
2.021403e+02	-2.423423e+01
2.033078e+02	-2.428328e+01
2.044821e+02	-2.433070e+01
2.056632e+02	-2.438297e+01
2.068511e+02	-2.443378e+01
2.080459e+02	-2.448129e+01
2.092475e+02	-2.453093e+01
2.104561e+02	-2.458185e+01
2.116717e+02	-2.463025e+01
2.128943e+02	-2.467983e+01
2.141240e+02	-2.473191e+01
2.153608e+02	-2.478167e+01
2.166047e+02	-2.483427e+01
2.178558e+02	-2.488091e+01
2.191141e+02	-2.493311e+01
2.203797e+02	-2.498166e+01
2.216526e+02	-2.503312e+01
2.229329e+02	-2.508037e+01
2.242205e+02	-2.513272e+01
2.255156e+02	-2.518015e+01
2.268182e+02	-2.523073e+01
2.281283e+02	-2.528076e+01
2.294459e+02	-2.533085e+01
2.307712e+02	-2.538189e+01
2.321041e+02	-2.542746e+01
2.334447e+02	-2.548052e+01
2.347931e+02	-2.553032e+01
2.361493e+02	-2.558070e+01
2.375133e+02	-2.562909e+01
2.388851e+02	-2.568126e+01
2.402649e+02	-2.573104e+01
2.416527e+02	-2.577735e+01
2.430484e+02	-2.583048e+01
2.444523e+02	-2.588030e+01
2.458642e+02	-2.593188e+01
2.472843e+02	-2.598016e+01
2.487126e+02	-2.602916e+01
2.501492e+02	-2.608344e+01
2.515940e+02	-2.613024e+01
2.530472e+02	-2.617964e+01
2.545088e+02	-2.622937e+01
2.559789e+02	-2.627968e+01
2.574574e+02	-2.633071e+01
2.589444e+02	-2.637689e+01
2.604401e+02	-2.643028e+01
2.619444e+02	-2.648097e+01
2.634574e+02	-2.653121e+01
2.649791e+02	-2.658001e+01
2.665096e+02	-2.662813e+01
2.680489e+02	-2.667935e+01
2.695972e+02	-2.673003e+01
2.711544e+02	-2.677927e+01
2.727205e+02	-2.683106e+01
2.742958e+02	-2.687616e+01
2.758801e+02	-2.692941e+01
2.774736e+02	-2.698078e+01
2.790762e+02	-2.702715e+01
2.806882e+02	-2.707765e+01
2.823094e+02	-2.712827e+01
2.839400e+02	-2.718081e+01
2.855800e+02	-2.722723e+01
2.872295e+02	-2.727797e+01
2.888886e+02	-2.732840e+01
2.905572e+02	-2.738021e+01
2.922354e+02	-2.742635e+01
2.939234e+02	-2.747996e+01
2.956211e+02	-2.752770e+01
2.973286e+02	-2.758246e+01
2.990459e+02	-2.762951e+01
3.007732e+02	-2.767946e+01
3.025104e+02	-2.772934e+01
3.042577e+02	-2.778040e+01
3.060151e+02	-2.782987e+01
3.077826e+02	-2.787956e+01
3.095604e+02	-2.792794e+01
3.113484e+02	-2.798069e+01
3.131467e+02	-2.803038e+01
3.149554e+02	-2.808265e+01
3.167746e+02	-2.812936e+01
3.186043e+02	-2.818438e+01
3.204445e+02	-2.823167e+01
3.222954e+02	-2.827977e+01
3.241570e+02	-2.833044e+01
3.260293e+02	-2.838154e+01
3.279124e+02	-2.843358e+01
3.298064e+02	-2.848396e+01
3.317114e+02	-2.852822e+01
3.336273e+02	-2.858104e+01
3.355544e+02	-2.862577e+01
3.374925e+02	-2.868100e+01
3.394418e+02	-2.872957e+01
3.414024e+02	-2.878018e+01
3.433744e+02	-2.883130e+01
3.453577e+02	-2.888393e+01
3.473525e+02	-2.893167e+01
3.493588e+02	-2.897876e+01
3.513766e+02	-2.903076e+01
3.534062e+02	-2.907792e+01
3.554474e+02	-2.912619e+01
3.575005e+02	-2.918357e+01
3.595654e+02	-2.922819e+01
3.616422e+02	-2.928519e+01
3.637311e+02	-2.933223e+01
3.658320e+02	-2.937594e+01
3.679450e+02	-2.942929e+01
3.700702e+02	-2.948333e+01
3.722077e+02	-2.953187e+01
3.743576e+02	-2.958363e+01
3.765199e+02	-2.962901e+01
3.786946e+02	-2.967678e+01
3.808820e+02	-2.973232e+01
3.830819e+02	-2.978490e+01
3.852946e+02	-2.983317e+01
3.875200e+02	-2.988628e+01
3.897583e+02	-2.993487e+01
3.920096e+02	-2.998069e+01
3.942738e+02	-3.003210e+01
3.965511e+02	-3.008257e+01
3.988416e+02	-3.013291e+01
4.011452e+02	-3.018264e+01
4.034622e+02	-3.022712e+01
4.057926e+02	-3.027867e+01
4.081365e+02	-3.033293e+01
4.104938e+02	-3.038143e+01
4.128648e+02	-3.043262e+01
4.152495e+02	-3.048086e+01
4.176480e+02	-3.053545e+01
4.200603e+02	-3.058260e+01
4.224866e+02	-3.063841e+01
4.249268e+02	-3.068686e+01
4.273812e+02	-3.073435e+01
4.298497e+02	-3.078208e+01
4.323325e+02	-3.083432e+01
4.348297e+02	-3.088607e+01
4.373412e+02	-3.093577e+01
4.398673e+02	-3.098800e+01
4.424079e+02	-3.103428e+01
4.449633e+02	-3.108423e+01
4.475334e+02	-3.113611e+01
4.501183e+02	-3.118665e+01
4.527182e+02	-3.123422e+01
4.553330e+02	-3.128963e+01
4.579630e+02	-3.133785e+01
4.606082e+02	-3.138579e+01
4.632687e+02	-3.143760e+01
4.659445e+02	-3.148514e+01
4.686358e+02	-3.153230e+01
4.713426e+02	-3.158683e+01
4.740650e+02	-3.163910e+01
4.768032e+02	-3.169117e+01
4.795572e+02	-3.173569e+01
4.823271e+02	-3.178987e+01
4.851130e+02	-3.183913e+01
4.879150e+02	-3.188624e+01
4.907332e+02	-3.193974e+01
4.935676e+02	-3.198840e+01
4.964185e+02	-3.203616e+01
4.992858e+02	-3.209112e+01
5.021696e+02	-3.213894e+01
5.050701e+02	-3.218711e+01
5.079874e+02	-3.223562e+01
5.109215e+02	-3.228868e+01
5.138726e+02	-3.234177e+01
5.168407e+02	-3.239236e+01
5.198259e+02	-3.243869e+01
5.228284e+02	-3.249341e+01
5.258482e+02	-3.254495e+01
5.288855e+02	-3.259297e+01
5.319403e+02	-3.264222e+01
5.350128e+02	-3.269467e+01
5.381030e+02	-3.273753e+01
5.412111e+02	-3.279217e+01
5.443371e+02	-3.284946e+01
5.474812e+02	-3.289702e+01
5.506434e+02	-3.293847e+01
5.538239e+02	-3.298646e+01
5.570228e+02	-3.303273e+01
5.602401e+02	-3.308918e+01
5.634760e+02	-3.313511e+01
5.667306e+02	-3.319938e+01
5.700040e+02	-3.324696e+01
5.732964e+02	-3.329268e+01
5.766077e+02	-3.334292e+01
5.799382e+02	-3.339445e+01
5.832879e+02	-3.344415e+01
5.866569e+02	-3.349095e+01
5.900454e+02	-3.354238e+01
5.934535e+02	-3.359509e+01
5.968813e+02	-3.365096e+01
6.003288e+02	-3.369749e+01
6.037963e+02	-3.374915e+01
6.072838e+02	-3.380392e+01
6.107914e+02	-3.384620e+01
6.143194e+02	-3.390251e+01
6.178676e+02	-3.395011e+01
6.214364e+02	-3.399571e+01
6.250258e+02	-3.404852e+01
6.286359e+02	-3.410446e+01
6.322669e+02	-3.415223e+01
6.359189e+02	-3.419109e+01
6.395919e+02	-3.424354e+01
6.432862e+02	-3.430906e+01
6.470017e+02	-3.435401e+01
6.507388e+02	-3.440178e+01
6.544974e+02	-3.445828e+01
6.582778e+02	-3.449401e+01
6.620800e+02	-3.455815e+01
6.659041e+02	-3.460658e+01
6.697504e+02	-3.465508e+01
6.736188e+02	-3.470818e+01
6.775096e+02	-3.476102e+01
6.814229e+02	-3.479849e+01
6.853587e+02	-3.484593e+01
6.893173e+02	-3.490131e+01
6.932988e+02	-3.495371e+01
6.973033e+02	-3.500922e+01
7.013309e+02	-3.505776e+01
