Frequency(Hz)	Magnitude(dB)
1.000000e+01	-2.035655e+00
1.005776e+01	-2.054411e+00
1.011585e+01	-2.073333e+00
1.017428e+01	-2.092372e+00
1.023305e+01	-2.111626e+00
1.029215e+01	-2.130988e+00
1.035160e+01	-2.150390e+00
1.041139e+01	-2.169821e+00
1.047153e+01	-2.189614e+00
1.053201e+01	-2.209644e+00
1.059284e+01	-2.229573e+00
1.065403e+01	-2.249821e+00
1.071556e+01	-2.269984e+00
1.077746e+01	-2.290470e+00
1.083971e+01	-2.311335e+00
1.090232e+01	-2.331795e+00
1.096529e+01	-2.352502e+00
1.102862e+01	-2.373662e+00
1.109232e+01	-2.394860e+00
1.115639e+01	-2.416062e+00
1.122083e+01	-2.437315e+00
1.128564e+01	-2.458934e+00
1.135083e+01	-2.480688e+00
1.141639e+01	-2.502572e+00
1.148233e+01	-2.524423e+00
1.154865e+01	-2.546709e+00
1.161536e+01	-2.569213e+00
1.168245e+01	-2.591131e+00
1.174992e+01	-2.614004e+00
1.181779e+01	-2.636707e+00
1.188605e+01	-2.659397e+00
1.195470e+01	-2.682594e+00
1.202375e+01	-2.705474e+00
1.209320e+01	-2.728784e+00
1.216305e+01	-2.752306e+00
1.223330e+01	-2.775599e+00
1.230396e+01	-2.799548e+00
1.237503e+01	-2.823145e+00
1.244651e+01	-2.847191e+00
1.251840e+01	-2.871550e+00
1.259070e+01	-2.895803e+00
1.266343e+01	-2.920155e+00
1.273657e+01	-2.944719e+00
1.281014e+01	-2.969247e+00
1.288413e+01	-2.994260e+00
1.295855e+01	-3.019257e+00
1.303339e+01	-3.044209e+00
1.310867e+01	-3.069483e+00
1.318439e+01	-3.095166e+00
1.326054e+01	-3.120726e+00
1.333713e+01	-3.146458e+00
1.341417e+01	-3.172199e+00
1.349165e+01	-3.198333e+00
1.356958e+01	-3.224450e+00
1.364795e+01	-3.250691e+00
1.372678e+01	-3.276860e+00
1.380607e+01	-3.303998e+00
1.388581e+01	-3.330500e+00
1.396602e+01	-3.356987e+00
1.404668e+01	-3.384146e+00
1.412782e+01	-3.411301e+00
1.420942e+01	-3.438689e+00
1.429149e+01	-3.466092e+00
1.437404e+01	-3.493431e+00
1.445706e+01	-3.521604e+00
1.454057e+01	-3.549192e+00
1.462455e+01	-3.577351e+00
1.470902e+01	-3.605337e+00
1.479398e+01	-3.633510e+00
1.487943e+01	-3.661941e+00
1.496537e+01	-3.690647e+00
1.505181e+01	-3.718979e+00
1.513875e+01	-3.748250e+00
1.522619e+01	-3.777325e+00
1.531414e+01	-3.806460e+00
1.540259e+01	-3.835621e+00
1.549156e+01	-3.865352e+00
1.558103e+01	-3.894467e+00
1.567103e+01	-3.924236e+00
1.576155e+01	-3.954052e+00
1.585258e+01	-3.984210e+00
1.594415e+01	-4.014403e+00
1.603624e+01	-4.044428e+00
1.612886e+01	-4.074562e+00
1.622202e+01	-4.105318e+00
1.631572e+01	-4.135838e+00
1.640996e+01	-4.166837e+00
1.650474e+01	-4.197588e+00
1.660008e+01	-4.228812e+00
1.669596e+01	-4.259957e+00
1.679239e+01	-4.291404e+00
1.688938e+01	-4.322757e+00
1.698694e+01	-4.354234e+00
1.708505e+01	-4.385943e+00
1.718373e+01	-4.417961e+00
1.728299e+01	-4.449906e+00
1.738281e+01	-4.482017e+00
1.748322e+01	-4.514234e+00
1.758420e+01	-4.546816e+00
1.768576e+01	-4.579519e+00
1.778792e+01	-4.611972e+00
1.789066e+01	-4.644948e+00
1.799399e+01	-4.677699e+00
1.809793e+01	-4.710548e+00
1.820246e+01	-4.744229e+00
1.830760e+01	-4.777311e+00
1.841334e+01	-4.810354e+00
1.851969e+01	-4.843991e+00
1.862666e+01	-4.877923e+00
1.873425e+01	-4.911649e+00
1.884246e+01	-4.945886e+00
1.895129e+01	-4.979530e+00
1.906075e+01	-5.014107e+00
1.917085e+01	-5.048523e+00
1.928158e+01	-5.082687e+00
1.939295e+01	-5.117071e+00
1.950496e+01	-5.151871e+00
1.961762e+01	-5.186650e+00
1.973093e+01	-5.221739e+00
1.984490e+01	-5.256669e+00
1.995952e+01	-5.291975e+00
2.007480e+01	-5.327111e+00
2.019076e+01	-5.362721e+00
2.030738e+01	-5.398068e+00
2.042467e+01	-5.433683e+00
2.054264e+01	-5.469479e+00
2.066130e+01	-5.505297e+00
2.078064e+01	-5.541641e+00
2.090066e+01	-5.577739e+00
2.102139e+01	-5.613533e+00
2.114280e+01	-5.650176e+00
2.126492e+01	-5.686578e+00
2.138775e+01	-5.722912e+00
2.151128e+01	-5.759974e+00
2.163553e+01	-5.796839e+00
2.176050e+01	-5.833496e+00
2.188619e+01	-5.870976e+00
2.201260e+01	-5.907523e+00
2.213974e+01	-5.944766e+00
2.226762e+01	-5.982427e+00
2.239624e+01	-6.019703e+00
2.252560e+01	-6.057309e+00
2.265571e+01	-6.094797e+00
2.278656e+01	-6.132709e+00
2.291818e+01	-6.170642e+00
2.305055e+01	-6.208683e+00
2.318369e+01	-6.246714e+00
2.331760e+01	-6.284769e+00
2.345228e+01	-6.323203e+00
2.358774e+01	-6.362029e+00
2.372398e+01	-6.400047e+00
2.386101e+01	-6.438541e+00
2.399883e+01	-6.477519e+00
2.413745e+01	-6.516658e+00
2.427686e+01	-6.555513e+00
2.441709e+01	-6.594585e+00
2.455812e+01	-6.633458e+00
2.469997e+01	-6.672814e+00
2.484263e+01	-6.712280e+00
2.498612e+01	-6.751360e+00
2.513044e+01	-6.790590e+00
2.527559e+01	-6.830567e+00
2.542158e+01	-6.870149e+00
2.556842e+01	-6.909758e+00
2.571610e+01	-6.949816e+00
2.586463e+01	-6.989981e+00
2.601403e+01	-7.029925e+00
2.616428e+01	-7.069856e+00
2.631541e+01	-7.110585e+00
2.646740e+01	-7.150600e+00
2.662028e+01	-7.191189e+00
2.677404e+01	-7.231431e+00
2.692868e+01	-7.271916e+00
2.708422e+01	-7.312977e+00
2.724066e+01	-7.353545e+00
2.739800e+01	-7.394519e+00
2.755625e+01	-7.435310e+00
2.771541e+01	-7.476600e+00
2.787550e+01	-7.517775e+00
2.803650e+01	-7.558811e+00
2.819844e+01	-7.599962e+00
2.836131e+01	-7.641571e+00
2.852513e+01	-7.683185e+00
2.868989e+01	-7.724347e+00
2.885560e+01	-7.766009e+00
2.902227e+01	-7.807698e+00
2.918990e+01	-7.850062e+00
2.935850e+01	-7.891735e+00
2.952807e+01	-7.933391e+00
2.969863e+01	-7.975405e+00
2.987016e+01	-8.017163e+00
3.004269e+01	-8.059756e+00
3.021622e+01	-8.102039e+00
3.039075e+01	-8.144686e+00
3.056628e+01	-8.186559e+00
3.074283e+01	-8.229219e+00
3.092040e+01	-8.272234e+00
3.109900e+01	-8.313578e+00
3.127862e+01	-8.356733e+00
3.145929e+01	-8.399462e+00
3.164099e+01	-8.442250e+00
3.182375e+01	-8.485403e+00
3.200756e+01	-8.528159e+00
3.219244e+01	-8.571264e+00
3.237838e+01	-8.614126e+00
3.256540e+01	-8.657506e+00
3.275349e+01	-8.700962e+00
3.294268e+01	-8.744226e+00
3.313295e+01	-8.787562e+00
3.332433e+01	-8.831349e+00
3.351681e+01	-8.874560e+00
3.371040e+01	-8.918023e+00
3.390511e+01	-8.961723e+00
3.410094e+01	-9.005452e+00
3.429791e+01	-9.049207e+00
3.449601e+01	-9.093134e+00
3.469526e+01	-9.137193e+00
3.489566e+01	-9.181225e+00
3.509721e+01	-9.225070e+00
3.529993e+01	-9.269158e+00
3.550382e+01	-9.313508e+00
3.570889e+01	-9.357338e+00
3.591515e+01	-9.401716e+00
3.612259e+01	-9.446322e+00
3.633123e+01	-9.490678e+00
3.654108e+01	-9.534645e+00
3.675214e+01	-9.579732e+00
3.696442e+01	-9.623974e+00
3.717792e+01	-9.668682e+00
3.739266e+01	-9.713237e+00
3.760864e+01	-9.758404e+00
3.782587e+01	-9.802778e+00
3.804435e+01	-9.847625e+00
3.826409e+01	-9.892362e+00
3.848510e+01	-9.937669e+00
3.870739e+01	-9.982145e+00
3.893096e+01	-1.002710e+01
3.915583e+01	-1.007215e+01
3.938199e+01	-1.011758e+01
3.960946e+01	-1.016243e+01
3.983824e+01	-1.020748e+01
4.006834e+01	-1.025278e+01
4.029978e+01	-1.029834e+01
4.053255e+01	-1.034320e+01
4.076666e+01	-1.038937e+01
4.100213e+01	-1.043469e+01
4.123896e+01	-1.047987e+01
4.147715e+01	-1.052612e+01
4.171672e+01	-1.057141e+01
4.195767e+01	-1.061749e+01
4.220002e+01	-1.066312e+01
4.244377e+01	-1.070893e+01
4.268892e+01	-1.075452e+01
4.293549e+01	-1.080021e+01
4.318348e+01	-1.084624e+01
4.343291e+01	-1.089233e+01
4.368377e+01	-1.093819e+01
4.393609e+01	-1.098406e+01
4.418986e+01	-1.102995e+01
4.444510e+01	-1.107649e+01
4.470182e+01	-1.112228e+01
4.496001e+01	-1.116895e+01
4.521970e+01	-1.121514e+01
4.548089e+01	-1.126091e+01
4.574358e+01	-1.130778e+01
4.600779e+01	-1.135396e+01
4.627353e+01	-1.140034e+01
4.654081e+01	-1.144661e+01
4.680963e+01	-1.149242e+01
4.708000e+01	-1.153982e+01
4.735193e+01	-1.158566e+01
4.762543e+01	-1.163241e+01
4.790051e+01	-1.168018e+01
4.817719e+01	-1.172620e+01
4.845545e+01	-1.177256e+01
4.873533e+01	-1.181913e+01
4.901682e+01	-1.186536e+01
4.929994e+01	-1.191282e+01
4.958470e+01	-1.195955e+01
4.987110e+01	-1.200641e+01
5.015915e+01	-1.205357e+01
5.044887e+01	-1.210004e+01
5.074026e+01	-1.214725e+01
5.103333e+01	-1.219417e+01
5.132810e+01	-1.224152e+01
5.162457e+01	-1.228842e+01
5.192275e+01	-1.233555e+01
5.222265e+01	-1.238212e+01
5.252429e+01	-1.242976e+01
5.282767e+01	-1.247691e+01
5.313280e+01	-1.252392e+01
5.343969e+01	-1.257119e+01
5.374836e+01	-1.261862e+01
5.405880e+01	-1.266540e+01
5.437105e+01	-1.271307e+01
5.468509e+01	-1.276069e+01
5.500095e+01	-1.280810e+01
5.531863e+01	-1.285470e+01
5.563815e+01	-1.290295e+01
5.595951e+01	-1.294951e+01
5.628273e+01	-1.299778e+01
5.660782e+01	-1.304528e+01
5.693479e+01	-1.309326e+01
5.726364e+01	-1.314087e+01
5.759439e+01	-1.318718e+01
5.792705e+01	-1.323584e+01
5.826164e+01	-1.328362e+01
5.859815e+01	-1.333146e+01
5.893662e+01	-1.337868e+01
5.927703e+01	-1.342668e+01
5.961941e+01	-1.347450e+01
5.996377e+01	-1.352182e+01
6.031012e+01	-1.357013e+01
6.065847e+01	-1.361723e+01
6.100883e+01	-1.366568e+01
6.136121e+01	-1.371322e+01
6.171563e+01	-1.376131e+01
6.207210e+01	-1.380877e+01
6.243063e+01	-1.385758e+01
6.279122e+01	-1.390492e+01
6.315390e+01	-1.395336e+01
6.351868e+01	-1.400104e+01
6.388556e+01	-1.404959e+01
6.425456e+01	-1.409801e+01
6.462569e+01	-1.414584e+01
6.499897e+01	-1.419293e+01
6.537440e+01	-1.424136e+01
6.575200e+01	-1.429009e+01
6.613178e+01	-1.433887e+01
6.651375e+01	-1.438566e+01
6.689793e+01	-1.443444e+01
6.728433e+01	-1.448271e+01
6.767297e+01	-1.453074e+01
6.806384e+01	-1.457935e+01
6.845698e+01	-1.462700e+01
6.885238e+01	-1.467475e+01
6.925007e+01	-1.472369e+01
6.965005e+01	-1.477282e+01
7.005235e+01	-1.482033e+01
7.045697e+01	-1.487024e+01
7.086393e+01	-1.491843e+01
7.127323e+01	-1.496653e+01
7.168490e+01	-1.501478e+01
7.209895e+01	-1.506344e+01
7.251539e+01	-1.511172e+01
7.293424e+01	-1.516043e+01
7.335551e+01	-1.520856e+01
7.377920e+01	-1.525652e+01
7.420535e+01	-1.530510e+01
7.463396e+01	-1.535412e+01
7.506504e+01	-1.540235e+01
7.549861e+01	-1.545143e+01
7.593469e+01	-1.549957e+01
7.637328e+01	-1.554883e+01
7.681441e+01	-1.559742e+01
7.725809e+01	-1.564552e+01
7.770433e+01	-1.569449e+01
7.815315e+01	-1.574259e+01
7.860456e+01	-1.579233e+01
7.905857e+01	-1.584024e+01
7.951521e+01	-1.588923e+01
7.997449e+01	-1.593822e+01
8.043642e+01	-1.598673e+01
8.090102e+01	-1.603568e+01
8.136830e+01	-1.608443e+01
8.183828e+01	-1.613412e+01
8.231097e+01	-1.618242e+01
8.278640e+01	-1.623224e+01
8.326457e+01	-1.627904e+01
8.374550e+01	-1.633061e+01
8.422921e+01	-1.637883e+01
8.471572e+01	-1.642549e+01
8.520503e+01	-1.647526e+01
8.569717e+01	-1.652406e+01
8.619215e+01	-1.657288e+01
8.669000e+01	-1.662181e+01
8.719071e+01	-1.667127e+01
8.769432e+01	-1.671936e+01
8.820084e+01	-1.676924e+01
8.871029e+01	-1.681738e+01
8.922267e+01	-1.686780e+01
8.973802e+01	-1.691656e+01
9.025634e+01	-1.696582e+01
9.077766e+01	-1.701256e+01
9.130199e+01	-1.706292e+01
9.182935e+01	-1.711254e+01
9.235975e+01	-1.716110e+01
9.289321e+01	-1.720974e+01
9.342976e+01	-1.725895e+01
9.396941e+01	-1.730817e+01
9.451217e+01	-1.735774e+01
9.505807e+01	-1.740648e+01
9.560712e+01	-1.745500e+01
9.615934e+01	-1.750475e+01
9.671476e+01	-1.755521e+01
9.727338e+01	-1.760414e+01
9.783522e+01	-1.765251e+01
9.840032e+01	-1.770169e+01
9.896867e+01	-1.775096e+01
9.954031e+01	-1.780080e+01
1.001153e+02	-1.784808e+01
1.006935e+02	-1.789868e+01
1.012751e+02	-1.794712e+01
1.018601e+02	-1.799698e+01
1.024484e+02	-1.804609e+01
1.030402e+02	-1.809460e+01
1.036353e+02	-1.814520e+01
1.042339e+02	-1.819454e+01
1.048360e+02	-1.824272e+01
1.054415e+02	-1.829247e+01
1.060505e+02	-1.834127e+01
1.066631e+02	-1.839123e+01
1.072791e+02	-1.844065e+01
1.078988e+02	-1.849006e+01
1.085220e+02	-1.853840e+01
1.091488e+02	-1.858816e+01
1.097793e+02	-1.863763e+01
1.104133e+02	-1.868634e+01
1.110511e+02	-1.873645e+01
1.116925e+02	-1.878585e+01
1.123376e+02	-1.883572e+01
1.129865e+02	-1.888519e+01
1.136391e+02	-1.893363e+01
1.142955e+02	-1.898398e+01
1.149556e+02	-1.903178e+01
1.156196e+02	-1.908305e+01
1.162874e+02	-1.913211e+01
1.169591e+02	-1.918137e+01
1.176347e+02	-1.923243e+01
1.183141e+02	-1.928120e+01
1.189975e+02	-1.932928e+01
1.196848e+02	-1.937934e+01
1.203761e+02	-1.942928e+01
1.210714e+02	-1.947961e+01
1.217707e+02	-1.952744e+01
1.224740e+02	-1.957748e+01
1.231814e+02	-1.962583e+01
1.238929e+02	-1.967583e+01
1.246085e+02	-1.972598e+01
1.253283e+02	-1.977420e+01
1.260522e+02	-1.982412e+01
1.267802e+02	-1.987498e+01
1.275125e+02	-1.992338e+01
1.282490e+02	-1.997272e+01
1.289898e+02	-2.002139e+01
1.297348e+02	-2.007086e+01
1.304842e+02	-2.012164e+01
1.312378e+02	-2.017168e+01
1.319959e+02	-2.022013e+01
1.327583e+02	-2.027055e+01
1.335251e+02	-2.032026e+01
1.342963e+02	-2.036873e+01
1.350720e+02	-2.041806e+01
1.358522e+02	-2.046868e+01
1.366368e+02	-2.051829e+01
1.374260e+02	-2.056862e+01
1.382198e+02	-2.061731e+01
1.390182e+02	-2.066774e+01
1.398211e+02	-2.071672e+01
1.406287e+02	-2.076613e+01
1.414410e+02	-2.081552e+01
1.422579e+02	-2.086725e+01
1.430796e+02	-2.091467e+01
1.439060e+02	-2.096455e+01
1.447372e+02	-2.101441e+01
1.455732e+02	-2.106422e+01
1.464141e+02	-2.111291e+01
1.472597e+02	-2.116398e+01
1.481103e+02	-2.121310e+01
1.489658e+02	-2.126254e+01
1.498262e+02	-2.131305e+01
1.506916e+02	-2.136246e+01
1.515620e+02	-2.141084e+01
1.524374e+02	-2.146201e+01
1.533179e+02	-2.151029e+01
1.542034e+02	-2.156093e+01
1.550941e+02	-2.161033e+01
1.559899e+02	-2.165818e+01
1.568909e+02	-2.170896e+01
1.577971e+02	-2.175976e+01
1.587085e+02	-2.180945e+01
1.596252e+02	-2.185752e+01
1.605472e+02	-2.190896e+01
1.614745e+02	-2.195793e+01
1.624072e+02	-2.200627e+01
1.633453e+02	-2.205763e+01
1.642887e+02	-2.210872e+01
1.652377e+02	-2.215734e+01
1.661921e+02	-2.220654e+01
1.671520e+02	-2.225568e+01
1.681175e+02	-2.230662e+01
1.690885e+02	-2.235719e+01
1.700651e+02	-2.240563e+01
1.710474e+02	-2.245679e+01
1.720354e+02	-2.250612e+01
1.730291e+02	-2.255505e+01
1.740285e+02	-2.260630e+01
1.750337e+02	-2.265428e+01
1.760446e+02	-2.270377e+01
1.770615e+02	-2.275556e+01
1.780842e+02	-2.280249e+01
1.791128e+02	-2.285576e+01
1.801473e+02	-2.290358e+01
1.811878e+02	-2.295317e+01
1.822344e+02	-2.300323e+01
1.832870e+02	-2.305196e+01
1.843456e+02	-2.310480e+01
1.854104e+02	-2.315239e+01
1.864813e+02	-2.320365e+01
1.875584e+02	-2.325305e+01
1.886418e+02	-2.330217e+01
1.897313e+02	-2.335099e+01
1.908272e+02	-2.340093e+01
1.919294e+02	-2.345233e+01
1.930380e+02	-2.349785e+01
1.941530e+02	-2.355057e+01
1.952744e+02	-2.360189e+01
1.964023e+02	-2.365059e+01
1.975367e+02	-2.370222e+01
1.986777e+02	-2.374960e+01
1.998252e+02	-2.380092e+01
2.009794e+02	-2.385190e+01
2.021403e+02	-2.389715e+01
2.033078e+02	-2.395188e+01
2.044821e+02	-2.399991e+01
2.056632e+02	-2.404761e+01
2.068511e+02	-2.410051e+01
2.080459e+02	-2.414884e+01
2.092475e+02	-2.420125e+01
2.104561e+02	-2.424712e+01
2.116717e+02	-2.429907e+01
2.128943e+02	-2.435050e+01
2.141240e+02	-2.439876e+01
2.153608e+02	-2.444757e+01
2.166047e+02	-2.449641e+01
2.178558e+02	-2.454797e+01
2.191141e+02	-2.459908e+01
2.203797e+02	-2.465042e+01
2.216526e+02	-2.469902e+01
2.229329e+02	-2.474735e+01
2.242205e+02	-2.479728e+01
2.255156e+02	-2.484714e+01
2.268182e+02	-2.489732e+01
2.281283e+02	-2.495012e+01
2.294459e+02	-2.499834e+01
2.307712e+02	-2.504812e+01
2.321041e+02	-2.509867e+01
2.334447e+02	-2.514641e+01
2.347931e+02	-2.519629e+01
2.361493e+02	-2.524774e+01
2.375133e+02	-2.529648e+01
2.388851e+02	-2.534531e+01
2.402649e+02	-2.539873e+01
2.416527e+02	-2.544665e+01
2.430484e+02	-2.549989e+01
2.444523e+02	-2.554678e+01
2.458642e+02	-2.559951e+01
2.472843e+02	-2.564790e+01
2.487126e+02	-2.569412e+01
2.501492e+02	-2.574500e+01
2.515940e+02	-2.579705e+01
2.530472e+02	-2.584521e+01
2.545088e+02	-2.589548e+01
2.559789e+02	-2.594968e+01
2.574574e+02	-2.599440e+01
2.589444e+02	-2.604764e+01
2.604401e+02	-2.609773e+01
2.619444e+02	-2.614429e+01
2.634574e+02	-2.619658e+01
2.649791e+02	-2.624942e+01
2.665096e+02	-2.629653e+01
2.680489e+02	-2.634865e+01
2.695972e+02	-2.639501e+01
2.711544e+02	-2.644465e+01
2.727205e+02	-2.649603e+01
2.742958e+02	-2.654318e+01
2.758801e+02	-2.659454e+01
2.774736e+02	-2.664469e+01
2.790762e+02	-2.669595e+01
2.806882e+02	-2.674399e+01
2.823094e+02	-2.679774e+01
2.839400e+02	-2.684746e+01
2.855800e+02	-2.689427e+01
2.872295e+02	-2.694497e+01
2.888886e+02	-2.699448e+01
2.905572e+02	-2.704698e+01
2.922354e+02	-2.709206e+01
2.939234e+02	-2.714621e+01
2.956211e+02	-2.719926e+01
2.973286e+02	-2.724542e+01
2.990459e+02	-2.729531e+01
3.007732e+02	-2.734490e+01
3.025104e+02	-2.739811e+01
3.042577e+02	-2.744192e+01
3.060151e+02	-2.749891e+01
3.077826e+02	-2.754342e+01
3.095604e+02	-2.759679e+01
3.113484e+02	-2.764464e+01
3.131467e+02	-2.769687e+01
3.149554e+02	-2.774705e+01
3.167746e+02	-2.779716e+01
3.186043e+02	-2.784628e+01
3.204445e+02	-2.789697e+01
3.222954e+02	-2.794681e+01
3.241570e+02	-2.799424e+01
3.260293e+02	-2.804730e+01
3.279124e+02	-2.809584e+01
3.298064e+02	-2.814419e+01
3.317114e+02	-2.819548e+01
3.336273e+02	-2.824962e+01
3.355544e+02	-2.829372e+01
3.374925e+02	-2.834088e+01
3.394418e+02	-2.839590e+01
3.414024e+02	-2.844648e+01
3.433744e+02	-2.849754e+01
3.453577e+02	-2.854853e+01
3.473525e+02	-2.859338e+01
3.493588e+02	-2.864596e+01
3.513766e+02	-2.869804e+01
3.534062e+02	-2.874745e+01
3.554474e+02	-2.879640e+01
3.575005e+02	-2.884338e+01
3.595654e+02	-2.889840e+01
3.616422e+02	-2.893991e+01
3.637311e+02	-2.899718e+01
3.658320e+02	-2.904519e+01
3.679450e+02	-2.909495e+01
3.700702e+02	-2.914923e+01
3.722077e+02	-2.919866e+01
3.743576e+02	-2.924453e+01
3.765199e+02	-2.929120e+01
3.786946e+02	-2.934874e+01
3.808820e+02	-2.939781e+01
3.830819e+02	-2.944937e+01
3.852946e+02	-2.950265e+01
3.875200e+02	-2.955160e+01
3.897583e+02	-2.959166e+01
3.920096e+02	-2.964930e+01
3.942738e+02	-2.969977e+01
3.965511e+02	-2.974859e+01
3.988416e+02	-2.980033e+01
4.011452e+02	-2.984337e+01
4.034622e+02	-2.989955e+01
4.057926e+02	-2.994800e+01
4.081365e+02	-2.999806e+01
4.104938e+02	-3.004895e+01
4.128648e+02	-3.009927e+01
4.152495e+02	-3.015092e+01
4.176480e+02	-3.019321e+01
4.200603e+02	-3.025208e+01
4.224866e+02	-3.029672e+01
4.249268e+02	-3.034781e+01
4.273812e+02	-3.040050e+01
4.298497e+02	-3.045281e+01
4.323325e+02	-3.050241e+01
4.348297e+02	-3.054868e+01
4.373412e+02	-3.059445e+01
4.398673e+02	-3.064722e+01
4.424079e+02	-3.069388e+01
4.449633e+02	-3.075273e+01
4.475334e+02	-3.079874e+01
4.501183e+02	-3.084914e+01
4.527182e+02	-3.089971e+01
4.553330e+02	-3.094929e+01
4.579630e+02	-3.100589e+01
4.606082e+02	-3.105252e+01
4.632687e+02	-3.109980e+01
4.659445e+02	-3.114995e+01
4.686358e+02	-3.119621e+01
4.713426e+02	-3.124900e+01
4.740650e+02	-3.130268e+01
4.768032e+02	-3.135145e+01
4.795572e+02	-3.140245e+01
4.823271e+02	-3.145259e+01
4.851130e+02	-3.150417e+01
4.879150e+02	-3.154987e+01
4.907332e+02	-3.160534e+01
4.935676e+02	-3.165924e+01
4.964185e+02	-3.170012e+01
4.992858e+02	-3.175595e+01
5.021696e+02	-3.180404e+01
5.050701e+02	-3.185575e+01
5.079874e+02	-3.191105e+01
5.109215e+02	-3.195327e+01
5.138726e+02	-3.200558e+01
5.168407e+02	-3.205631e+01
5.198259e+02	-3.210700e+01
5.228284e+02	-3.215480e+01
5.258482e+02	-3.220728e+01
5.288855e+02	-3.226018e+01
5.319403e+02	-3.230294e+01
5.350128e+02	-3.235127e+01
5.381030e+02	-3.240484e+01
5.412111e+02	-3.246411e+01
5.443371e+02	-3.251070e+01
5.474812e+02	-3.255630e+01
5.506434e+02	-3.261049e+01
5.538239e+02	-3.266433e+01
5.570228e+02	-3.270484e+01
5.602401e+02	-3.275628e+01
5.634760e+02	-3.281023e+01
5.667306e+02	-3.285967e+01
5.700040e+02	-3.291182e+01
5.732964e+02	-3.295960e+01
5.766077e+02	-3.300841e+01
5.799382e+02	-3.306008e+01
5.832879e+02	-3.311743e+01
5.866569e+02	-3.316215e+01
5.900454e+02	-3.320608e+01
5.934535e+02	-3.326257e+01
5.968813e+02	-3.331241e+01
6.003288e+02	-3.336482e+01
6.037963e+02	-3.340757e+01
6.072838e+02	-3.346027e+01
6.107914e+02	-3.351731e+01
6.143194e+02	-3.355893e+01
6.178676e+02	-3.361471e+01
6.214364e+02	-3.366113e+01
6.250258e+02	-3.371117e+01
6.286359e+02	-3.377171e+01
6.322669e+02	-3.381578e+01
6.359189e+02	-3.387181e+01
6.395919e+02	-3.392418e+01
6.432862e+02	-3.396717e+01
6.470017e+02	-3.400843e+01
6.507388e+02	-3.405663e+01
6.544974e+02	-3.411349e+01
6.582778e+02	-3.416602e+01
6.620800e+02	-3.422041e+01
6.659041e+02	-3.427192e+01
6.697504e+02	-3.432075e+01
6.736188e+02	-3.437008e+01
6.775096e+02	-3.442125e+01
6.814229e+02	-3.446760e+01
6.853587e+02	-3.452463e+01
6.893173e+02	-3.456864e+01
6.932988e+02	-3.461985e+01
6.973033e+02	-3.467686e+01
7.013309e+02	-3.471689e+01
