Frequency(Hz)	Magnitude(dB)
1.000000e+01	-2.025875e+00
1.005776e+01	-2.044642e+00
1.011585e+01	-2.063600e+00
1.017428e+01	-2.082340e+00
1.023305e+01	-2.101359e+00
1.029215e+01	-2.120659e+00
1.035160e+01	-2.140208e+00
1.041139e+01	-2.159736e+00
1.047153e+01	-2.179423e+00
1.053201e+01	-2.199253e+00
1.059284e+01	-2.219269e+00
1.065403e+01	-2.239427e+00
1.071556e+01	-2.259463e+00
1.077746e+01	-2.279879e+00
1.083971e+01	-2.300374e+00
1.090232e+01	-2.321182e+00
1.096529e+01	-2.341723e+00
1.102862e+01	-2.362938e+00
1.109232e+01	-2.383752e+00
1.115639e+01	-2.404654e+00
1.122083e+01	-2.426174e+00
1.128564e+01	-2.447595e+00
1.135083e+01	-2.469201e+00
1.141639e+01	-2.491078e+00
1.148233e+01	-2.513071e+00
1.154865e+01	-2.535122e+00
1.161536e+01	-2.557187e+00
1.168245e+01	-2.579652e+00
1.174992e+01	-2.602127e+00
1.181779e+01	-2.624721e+00
1.188605e+01	-2.647422e+00
1.195470e+01	-2.670161e+00
1.202375e+01	-2.693302e+00
1.209320e+01	-2.716504e+00
1.216305e+01	-2.739918e+00
1.223330e+01	-2.763258e+00
1.230396e+01	-2.787012e+00
1.237503e+01	-2.810733e+00
1.244651e+01	-2.834766e+00
1.251840e+01	-2.858764e+00
1.259070e+01	-2.882811e+00
1.266343e+01	-2.907318e+00
1.273657e+01	-2.931736e+00
1.281014e+01	-2.956240e+00
1.288413e+01	-2.981021e+00
1.295855e+01	-3.006065e+00
1.303339e+01	-3.031177e+00
1.310867e+01	-3.056646e+00
1.318439e+01	-3.081608e+00
1.326054e+01	-3.107411e+00
1.333713e+01	-3.132823e+00
1.341417e+01	-3.158546e+00
1.349165e+01	-3.184562e+00
1.356958e+01	-3.210521e+00
1.364795e+01	-3.236707e+00
1.372678e+01	-3.263166e+00
1.380607e+01	-3.289574e+00
1.388581e+01	-3.316309e+00
1.396602e+01	-3.343008e+00
1.404668e+01	-3.369987e+00
1.412782e+01	-3.397156e+00
1.420942e+01	-3.424177e+00
1.429149e+01	-3.451492e+00
1.437404e+01	-3.479086e+00
1.445706e+01	-3.506807e+00
1.454057e+01	-3.534775e+00
1.462455e+01	-3.562343e+00
1.470902e+01	-3.590641e+00
1.479398e+01	-3.618604e+00
1.487943e+01	-3.647098e+00
1.496537e+01	-3.675515e+00
1.505181e+01	-3.704374e+00
1.513875e+01	-3.733173e+00
1.522619e+01	-3.761976e+00
1.531414e+01	-3.790903e+00
1.540259e+01	-3.820184e+00
1.549156e+01	-3.849630e+00
1.558103e+01	-3.878964e+00
1.567103e+01	-3.908652e+00
1.576155e+01	-3.938168e+00
1.585258e+01	-3.968418e+00
1.594415e+01	-3.998254e+00
1.603624e+01	-4.028662e+00
1.612886e+01	-4.058884e+00
1.622202e+01	-4.089337e+00
1.631572e+01	-4.119681e+00
1.640996e+01	-4.150330e+00
1.650474e+01	-4.181459e+00
1.660008e+01	-4.212726e+00
1.669596e+01	-4.243666e+00
1.679239e+01	-4.274721e+00
1.688938e+01	-4.306204e+00
1.698694e+01	-4.337859e+00
1.708505e+01	-4.369559e+00
1.718373e+01	-4.400963e+00
1.728299e+01	-4.433070e+00
1.738281e+01	-4.465268e+00
1.748322e+01	-4.497532e+00
1.758420e+01	-4.529789e+00
1.768576e+01	-4.562131e+00
1.778792e+01	-4.595009e+00
1.789066e+01	-4.627517e+00
1.799399e+01	-4.660422e+00
1.809793e+01	-4.693610e+00
1.820246e+01	-4.726457e+00
1.830760e+01	-4.759855e+00
1.841334e+01	-4.793094e+00
1.851969e+01	-4.826718e+00
1.862666e+01	-4.860197e+00
1.873425e+01	-4.894264e+00
1.884246e+01	-4.927869e+00
1.895129e+01	-4.961879e+00
1.906075e+01	-4.996139e+00
1.917085e+01	-5.030276e+00
1.928158e+01	-5.064584e+00
1.939295e+01	-5.099140e+00
1.950496e+01	-5.133751e+00
1.961762e+01	-5.168511e+00
1.973093e+01	-5.203256e+00
1.984490e+01	-5.238452e+00
1.995952e+01	-5.273527e+00
2.007480e+01	-5.308987e+00
2.019076e+01	-5.343951e+00
2.030738e+01	-5.379726e+00
2.042467e+01	-5.415312e+00
2.054264e+01	-5.451272e+00
2.066130e+01	-5.486912e+00
2.078064e+01	-5.522550e+00
2.090066e+01	-5.558478e+00
2.102139e+01	-5.594720e+00
2.114280e+01	-5.631155e+00
2.126492e+01	-5.667541e+00
2.138775e+01	-5.704079e+00
2.151128e+01	-5.740818e+00
2.163553e+01	-5.777491e+00
2.176050e+01	-5.814248e+00
2.188619e+01	-5.851105e+00
2.201260e+01	-5.888355e+00
2.213974e+01	-5.925535e+00
2.226762e+01	-5.962657e+00
2.239624e+01	-6.000294e+00
2.252560e+01	-6.037854e+00
2.265571e+01	-6.075636e+00
2.278656e+01	-6.113279e+00
2.291818e+01	-6.150765e+00
2.305055e+01	-6.188855e+00
2.318369e+01	-6.226528e+00
2.331760e+01	-6.265113e+00
2.345228e+01	-6.303440e+00
2.358774e+01	-6.341651e+00
2.372398e+01	-6.380133e+00
2.386101e+01	-6.418935e+00
2.399883e+01	-6.457510e+00
2.413745e+01	-6.496041e+00
2.427686e+01	-6.534899e+00
2.441709e+01	-6.573753e+00
2.455812e+01	-6.612954e+00
2.469997e+01	-6.651904e+00
2.484263e+01	-6.691287e+00
2.498612e+01	-6.730542e+00
2.513044e+01	-6.770415e+00
2.527559e+01	-6.810074e+00
2.542158e+01	-6.849789e+00
2.556842e+01	-6.889580e+00
2.571610e+01	-6.929163e+00
2.586463e+01	-6.969223e+00
2.601403e+01	-7.008787e+00
2.616428e+01	-7.048821e+00
2.631541e+01	-7.089321e+00
2.646740e+01	-7.129519e+00
2.662028e+01	-7.170066e+00
2.677404e+01	-7.210519e+00
2.692868e+01	-7.251205e+00
2.708422e+01	-7.291637e+00
2.724066e+01	-7.332346e+00
2.739800e+01	-7.373330e+00
2.755625e+01	-7.413825e+00
2.771541e+01	-7.454961e+00
2.787550e+01	-7.495993e+00
2.803650e+01	-7.537478e+00
2.819844e+01	-7.578691e+00
2.836131e+01	-7.619634e+00
2.852513e+01	-7.661206e+00
2.868989e+01	-7.702916e+00
2.885560e+01	-7.743892e+00
2.902227e+01	-7.786198e+00
2.918990e+01	-7.827640e+00
2.935850e+01	-7.869569e+00
2.952807e+01	-7.911448e+00
2.969863e+01	-7.953349e+00
2.987016e+01	-7.995222e+00
3.004269e+01	-8.037788e+00
3.021622e+01	-8.079948e+00
3.039075e+01	-8.121806e+00
3.056628e+01	-8.164157e+00
3.074283e+01	-8.207062e+00
3.092040e+01	-8.249359e+00
3.109900e+01	-8.292070e+00
3.127862e+01	-8.334962e+00
3.145929e+01	-8.377265e+00
3.164099e+01	-8.420236e+00
3.182375e+01	-8.463018e+00
3.200756e+01	-8.505869e+00
3.219244e+01	-8.548731e+00
3.237838e+01	-8.591948e+00
3.256540e+01	-8.635316e+00
3.275349e+01	-8.678269e+00
3.294268e+01	-8.721775e+00
3.313295e+01	-8.764928e+00
3.332433e+01	-8.808522e+00
3.351681e+01	-8.851549e+00
3.371040e+01	-8.895428e+00
3.390511e+01	-8.939313e+00
3.410094e+01	-8.983128e+00
3.429791e+01	-9.026769e+00
3.449601e+01	-9.070521e+00
3.469526e+01	-9.114326e+00
3.489566e+01	-9.157520e+00
3.509721e+01	-9.202030e+00
3.529993e+01	-9.246116e+00
3.550382e+01	-9.290365e+00
3.570889e+01	-9.334637e+00
3.591515e+01	-9.378599e+00
3.612259e+01	-9.422620e+00
3.633123e+01	-9.467125e+00
3.654108e+01	-9.512162e+00
3.675214e+01	-9.555855e+00
3.696442e+01	-9.600302e+00
3.717792e+01	-9.645586e+00
3.739266e+01	-9.689127e+00
3.760864e+01	-9.734292e+00
3.782587e+01	-9.779022e+00
3.804435e+01	-9.823921e+00
3.826409e+01	-9.869047e+00
3.848510e+01	-9.913833e+00
3.870739e+01	-9.959250e+00
3.893096e+01	-1.000336e+01
3.915583e+01	-1.004867e+01
3.938199e+01	-1.009375e+01
3.960946e+01	-1.013892e+01
3.983824e+01	-1.018390e+01
4.006834e+01	-1.022951e+01
4.029978e+01	-1.027469e+01
4.053255e+01	-1.032058e+01
4.076666e+01	-1.036514e+01
4.100213e+01	-1.041043e+01
4.123896e+01	-1.045623e+01
4.147715e+01	-1.050225e+01
4.171672e+01	-1.054779e+01
4.195767e+01	-1.059343e+01
4.220002e+01	-1.063893e+01
4.244377e+01	-1.068460e+01
4.268892e+01	-1.073013e+01
4.293549e+01	-1.077588e+01
4.318348e+01	-1.082228e+01
4.343291e+01	-1.086808e+01
4.368377e+01	-1.091418e+01
4.393609e+01	-1.095979e+01
4.418986e+01	-1.100612e+01
4.444510e+01	-1.105203e+01
4.470182e+01	-1.109825e+01
4.496001e+01	-1.114437e+01
4.521970e+01	-1.119047e+01
4.548089e+01	-1.123595e+01
4.574358e+01	-1.128339e+01
4.600779e+01	-1.132928e+01
4.627353e+01	-1.137543e+01
4.654081e+01	-1.142288e+01
4.680963e+01	-1.146816e+01
4.708000e+01	-1.151507e+01
4.735193e+01	-1.156148e+01
4.762543e+01	-1.160879e+01
4.790051e+01	-1.165428e+01
4.817719e+01	-1.170162e+01
4.845545e+01	-1.174817e+01
4.873533e+01	-1.179456e+01
4.901682e+01	-1.184156e+01
4.929994e+01	-1.188773e+01
4.958470e+01	-1.193529e+01
4.987110e+01	-1.198204e+01
5.015915e+01	-1.202873e+01
5.044887e+01	-1.207575e+01
5.074026e+01	-1.212269e+01
5.103333e+01	-1.216956e+01
5.132810e+01	-1.221617e+01
5.162457e+01	-1.226389e+01
5.192275e+01	-1.231102e+01
5.222265e+01	-1.235750e+01
5.252429e+01	-1.240459e+01
5.282767e+01	-1.245275e+01
5.313280e+01	-1.249931e+01
5.343969e+01	-1.254668e+01
5.374836e+01	-1.259396e+01
5.405880e+01	-1.264081e+01
5.437105e+01	-1.268861e+01
5.468509e+01	-1.273569e+01
5.500095e+01	-1.278316e+01
5.531863e+01	-1.283021e+01
5.563815e+01	-1.287812e+01
5.595951e+01	-1.292448e+01
5.628273e+01	-1.297300e+01
5.660782e+01	-1.302043e+01
5.693479e+01	-1.306784e+01
5.726364e+01	-1.311484e+01
5.759439e+01	-1.316286e+01
5.792705e+01	-1.321050e+01
5.826164e+01	-1.325821e+01
5.859815e+01	-1.330609e+01
5.893662e+01	-1.335365e+01
5.927703e+01	-1.340184e+01
5.961941e+01	-1.344908e+01
5.996377e+01	-1.349732e+01
6.031012e+01	-1.354477e+01
6.065847e+01	-1.359221e+01
6.100883e+01	-1.363943e+01
6.136121e+01	-1.368835e+01
6.171563e+01	-1.373710e+01
6.207210e+01	-1.378421e+01
6.243063e+01	-1.383129e+01
6.279122e+01	-1.388027e+01
6.315390e+01	-1.392801e+01
6.351868e+01	-1.397636e+01
6.388556e+01	-1.402392e+01
6.425456e+01	-1.407205e+01
6.462569e+01	-1.412073e+01
6.499897e+01	-1.416903e+01
6.537440e+01	-1.421703e+01
6.575200e+01	-1.426481e+01
6.613178e+01	-1.431282e+01
6.651375e+01	-1.436026e+01
6.689793e+01	-1.440993e+01
6.728433e+01	-1.445722e+01
6.767297e+01	-1.450639e+01
6.806384e+01	-1.455493e+01
6.845698e+01	-1.460259e+01
6.885238e+01	-1.465103e+01
6.925007e+01	-1.469914e+01
6.965005e+01	-1.474679e+01
7.005235e+01	-1.479561e+01
7.045697e+01	-1.484396e+01
7.086393e+01	-1.489301e+01
7.127323e+01	-1.494114e+01
7.168490e+01	-1.498896e+01
7.209895e+01	-1.503637e+01
7.251539e+01	-1.508654e+01
7.293424e+01	-1.513482e+01
7.335551e+01	-1.518341e+01
7.377920e+01	-1.523162e+01
7.420535e+01	-1.527958e+01
7.463396e+01	-1.532882e+01
7.506504e+01	-1.537787e+01
7.549861e+01	-1.542461e+01
7.593469e+01	-1.547468e+01
7.637328e+01	-1.552410e+01
7.681441e+01	-1.557234e+01
7.725809e+01	-1.562064e+01
7.770433e+01	-1.566920e+01
7.815315e+01	-1.571829e+01
7.860456e+01	-1.576640e+01
7.905857e+01	-1.581533e+01
7.951521e+01	-1.586470e+01
7.997449e+01	-1.591283e+01
8.043642e+01	-1.596121e+01
8.090102e+01	-1.600998e+01
8.136830e+01	-1.605896e+01
8.183828e+01	-1.610799e+01
8.231097e+01	-1.615746e+01
8.278640e+01	-1.620588e+01
8.326457e+01	-1.625373e+01
8.374550e+01	-1.630287e+01
8.422921e+01	-1.635225e+01
8.471572e+01	-1.640066e+01
8.520503e+01	-1.644936e+01
8.569717e+01	-1.649885e+01
8.619215e+01	-1.654654e+01
8.669000e+01	-1.659630e+01
8.719071e+01	-1.664514e+01
8.769432e+01	-1.669506e+01
8.820084e+01	-1.674324e+01
8.871029e+01	-1.679204e+01
8.922267e+01	-1.684215e+01
8.973802e+01	-1.689156e+01
9.025634e+01	-1.693929e+01
9.077766e+01	-1.698846e+01
9.130199e+01	-1.703720e+01
9.182935e+01	-1.708633e+01
9.235975e+01	-1.713575e+01
9.289321e+01	-1.718488e+01
9.342976e+01	-1.723298e+01
9.396941e+01	-1.728324e+01
9.451217e+01	-1.733118e+01
9.505807e+01	-1.738166e+01
9.560712e+01	-1.743005e+01
9.615934e+01	-1.747822e+01
9.671476e+01	-1.752902e+01
9.727338e+01	-1.757697e+01
9.783522e+01	-1.762570e+01
9.840032e+01	-1.767561e+01
9.896867e+01	-1.772433e+01
9.954031e+01	-1.777434e+01
1.001153e+02	-1.782342e+01
1.006935e+02	-1.787364e+01
1.012751e+02	-1.792262e+01
1.018601e+02	-1.797125e+01
1.024484e+02	-1.802057e+01
1.030402e+02	-1.807047e+01
1.036353e+02	-1.811977e+01
1.042339e+02	-1.816799e+01
1.048360e+02	-1.821707e+01
1.054415e+02	-1.826735e+01
1.060505e+02	-1.831584e+01
1.066631e+02	-1.836508e+01
1.072791e+02	-1.841510e+01
1.078988e+02	-1.846502e+01
1.085220e+02	-1.851425e+01
1.091488e+02	-1.856233e+01
1.097793e+02	-1.861201e+01
1.104133e+02	-1.866199e+01
1.110511e+02	-1.871064e+01
1.116925e+02	-1.876111e+01
1.123376e+02	-1.880912e+01
1.129865e+02	-1.885808e+01
1.136391e+02	-1.890788e+01
1.142955e+02	-1.895598e+01
1.149556e+02	-1.900693e+01
1.156196e+02	-1.905776e+01
1.162874e+02	-1.910473e+01
1.169591e+02	-1.915459e+01
1.176347e+02	-1.920363e+01
1.183141e+02	-1.925431e+01
1.189975e+02	-1.930371e+01
1.196848e+02	-1.935278e+01
1.203761e+02	-1.940152e+01
1.210714e+02	-1.945360e+01
1.217707e+02	-1.950148e+01
1.224740e+02	-1.955068e+01
1.231814e+02	-1.959917e+01
1.238929e+02	-1.964849e+01
1.246085e+02	-1.969949e+01
1.253283e+02	-1.974854e+01
1.260522e+02	-1.979749e+01
1.267802e+02	-1.984801e+01
1.275125e+02	-1.989660e+01
1.282490e+02	-1.994840e+01
1.289898e+02	-1.999766e+01
1.297348e+02	-2.004680e+01
1.304842e+02	-2.009444e+01
1.312378e+02	-2.014491e+01
1.319959e+02	-2.019372e+01
1.327583e+02	-2.024459e+01
1.335251e+02	-2.029352e+01
1.342963e+02	-2.034410e+01
1.350720e+02	-2.039292e+01
1.358522e+02	-2.044160e+01
1.366368e+02	-2.049076e+01
1.374260e+02	-2.054027e+01
1.382198e+02	-2.059234e+01
1.390182e+02	-2.064070e+01
1.398211e+02	-2.069153e+01
1.406287e+02	-2.073829e+01
1.414410e+02	-2.078839e+01
1.422579e+02	-2.083914e+01
1.430796e+02	-2.088957e+01
1.439060e+02	-2.093973e+01
1.447372e+02	-2.098869e+01
1.455732e+02	-2.103715e+01
1.464141e+02	-2.108532e+01
1.472597e+02	-2.113680e+01
1.481103e+02	-2.118744e+01
1.489658e+02	-2.123806e+01
1.498262e+02	-2.128691e+01
1.506916e+02	-2.133549e+01
1.515620e+02	-2.138702e+01
1.524374e+02	-2.143477e+01
1.533179e+02	-2.148563e+01
1.542034e+02	-2.153556e+01
1.550941e+02	-2.158690e+01
1.559899e+02	-2.163396e+01
1.568909e+02	-2.168350e+01
1.577971e+02	-2.173250e+01
1.587085e+02	-2.178223e+01
1.596252e+02	-2.183228e+01
1.605472e+02	-2.188306e+01
1.614745e+02	-2.193240e+01
1.624072e+02	-2.198244e+01
1.633453e+02	-2.203091e+01
1.642887e+02	-2.208232e+01
1.652377e+02	-2.213008e+01
1.661921e+02	-2.217939e+01
1.671520e+02	-2.222978e+01
1.681175e+02	-2.228169e+01
1.690885e+02	-2.233033e+01
1.700651e+02	-2.237932e+01
1.710474e+02	-2.242842e+01
1.720354e+02	-2.248074e+01
1.730291e+02	-2.252784e+01
1.740285e+02	-2.257898e+01
1.750337e+02	-2.262996e+01
1.760446e+02	-2.267736e+01
1.770615e+02	-2.272815e+01
1.780842e+02	-2.277968e+01
1.791128e+02	-2.282790e+01
1.801473e+02	-2.287781e+01
1.811878e+02	-2.292898e+01
1.822344e+02	-2.297647e+01
1.832870e+02	-2.302606e+01
1.843456e+02	-2.307691e+01
1.854104e+02	-2.312780e+01
1.864813e+02	-2.317596e+01
1.875584e+02	-2.322711e+01
1.886418e+02	-2.327662e+01
1.897313e+02	-2.332567e+01
1.908272e+02	-2.337512e+01
1.919294e+02	-2.342536e+01
1.930380e+02	-2.347670e+01
1.941530e+02	-2.352283e+01
1.952744e+02	-2.357482e+01
1.964023e+02	-2.362500e+01
1.975367e+02	-2.367541e+01
1.986777e+02	-2.372445e+01
1.998252e+02	-2.377292e+01
2.009794e+02	-2.382525e+01
2.021403e+02	-2.387176e+01
2.033078e+02	-2.392370e+01
2.044821e+02	-2.397228e+01
2.056632e+02	-2.402144e+01
2.068511e+02	-2.407419e+01
2.080459e+02	-2.412389e+01
2.092475e+02	-2.417315e+01
2.104561e+02	-2.422348e+01
2.116717e+02	-2.427575e+01
2.128943e+02	-2.432311e+01
2.141240e+02	-2.437330e+01
2.153608e+02	-2.442349e+01
2.166047e+02	-2.447401e+01
2.178558e+02	-2.452403e+01
2.191141e+02	-2.457324e+01
2.203797e+02	-2.462201e+01
2.216526e+02	-2.467191e+01
2.229329e+02	-2.472284e+01
2.242205e+02	-2.477106e+01
2.255156e+02	-2.481819e+01
2.268182e+02	-2.487030e+01
2.281283e+02	-2.492272e+01
2.294459e+02	-2.497353e+01
2.307712e+02	-2.502029e+01
2.321041e+02	-2.507229e+01
2.334447e+02	-2.511965e+01
2.347931e+02	-2.517318e+01
2.361493e+02	-2.522156e+01
2.375133e+02	-2.527068e+01
2.388851e+02	-2.532116e+01
2.402649e+02	-2.537036e+01
2.416527e+02	-2.542026e+01
2.430484e+02	-2.547029e+01
2.444523e+02	-2.552351e+01
2.458642e+02	-2.556857e+01
2.472843e+02	-2.562175e+01
2.487126e+02	-2.567142e+01
2.501492e+02	-2.571819e+01
2.515940e+02	-2.577170e+01
2.530472e+02	-2.581854e+01
2.545088e+02	-2.587278e+01
2.559789e+02	-2.592026e+01
2.574574e+02	-2.596919e+01
2.589444e+02	-2.601899e+01
2.604401e+02	-2.606711e+01
2.619444e+02	-2.611962e+01
2.634574e+02	-2.616873e+01
2.649791e+02	-2.622174e+01
2.665096e+02	-2.627018e+01
2.680489e+02	-2.632147e+01
2.695972e+02	-2.637148e+01
2.711544e+02	-2.642009e+01
2.727205e+02	-2.647143e+01
2.742958e+02	-2.651774e+01
2.758801e+02	-2.657015e+01
2.774736e+02	-2.662025e+01
2.790762e+02	-2.666913e+01
2.806882e+02	-2.671958e+01
2.823094e+02	-2.676829e+01
2.839400e+02	-2.681878e+01
2.855800e+02	-2.686734e+01
2.872295e+02	-2.691599e+01
2.888886e+02	-2.697274e+01
2.905572e+02	-2.701676e+01
2.922354e+02	-2.707225e+01
2.939234e+02	-2.711954e+01
2.956211e+02	-2.716953e+01
2.973286e+02	-2.722005e+01
2.990459e+02	-2.727100e+01
3.007732e+02	-2.732061e+01
3.025104e+02	-2.737096e+01
3.042577e+02	-2.742105e+01
3.060151e+02	-2.746952e+01
3.077826e+02	-2.751873e+01
3.095604e+02	-2.757212e+01
3.113484e+02	-2.761985e+01
3.131467e+02	-2.766780e+01
3.149554e+02	-2.771849e+01
3.167746e+02	-2.776515e+01
3.186043e+02	-2.781602e+01
3.204445e+02	-2.786946e+01
3.222954e+02	-2.792417e+01
3.241570e+02	-2.796831e+01
3.260293e+02	-2.801776e+01
3.279124e+02	-2.806980e+01
3.298064e+02	-2.812395e+01
3.317114e+02	-2.817084e+01
3.336273e+02	-2.821997e+01
3.355544e+02	-2.826607e+01
3.374925e+02	-2.832118e+01
3.394418e+02	-2.836833e+01
3.414024e+02	-2.842229e+01
3.433744e+02	-2.847195e+01
3.453577e+02	-2.852263e+01
3.473525e+02	-2.857046e+01
3.493588e+02	-2.862294e+01
3.513766e+02	-2.867224e+01
3.534062e+02	-2.871695e+01
3.554474e+02	-2.877802e+01
3.575005e+02	-2.881982e+01
3.595654e+02	-2.887195e+01
3.616422e+02	-2.892208e+01
3.637311e+02	-2.896797e+01
3.658320e+02	-2.902290e+01
3.679450e+02	-2.906826e+01
3.700702e+02	-2.912395e+01
3.722077e+02	-2.917139e+01
3.743576e+02	-2.921837e+01
3.765199e+02	-2.926923e+01
3.786946e+02	-2.931593e+01
3.808820e+02	-2.937020e+01
3.830819e+02	-2.942159e+01
3.852946e+02	-2.947434e+01
3.875200e+02	-2.952013e+01
3.897583e+02	-2.957395e+01
3.920096e+02	-2.961882e+01
3.942738e+02	-2.967128e+01
3.965511e+02	-2.972156e+01
3.988416e+02	-2.976863e+01
4.011452e+02	-2.981779e+01
4.034622e+02	-2.987341e+01
4.057926e+02	-2.992271e+01
4.081365e+02	-2.997140e+01
4.104938e+02	-3.002230e+01
4.128648e+02	-3.007158e+01
4.152495e+02	-3.012228e+01
4.176480e+02	-3.017280e+01
4.200603e+02	-3.022095e+01
4.224866e+02	-3.027701e+01
4.249268e+02	-3.032445e+01
4.273812e+02	-3.037231e+01
4.298497e+02	-3.042415e+01
4.323325e+02	-3.047383e+01
4.348297e+02	-3.052571e+01
4.373412e+02	-3.057193e+01
4.398673e+02	-3.062009e+01
4.424079e+02	-3.067117e+01
4.449633e+02	-3.072650e+01
4.475334e+02	-3.077691e+01
4.501183e+02	-3.081918e+01
4.527182e+02	-3.087755e+01
4.553330e+02	-3.092251e+01
4.579630e+02	-3.097061e+01
4.606082e+02	-3.102489e+01
4.632687e+02	-3.107721e+01
4.659445e+02	-3.112207e+01
4.686358e+02	-3.117132e+01
4.713426e+02	-3.122072e+01
4.740650e+02	-3.127824e+01
4.768032e+02	-3.132395e+01
4.795572e+02	-3.137861e+01
4.823271e+02	-3.142484e+01
4.851130e+02	-3.147489e+01
4.879150e+02	-3.153078e+01
4.907332e+02	-3.157629e+01
4.935676e+02	-3.162817e+01
4.964185e+02	-3.167018e+01
4.992858e+02	-3.173345e+01
5.021696e+02	-3.177827e+01
5.050701e+02	-3.182034e+01
5.079874e+02	-3.188139e+01
5.109215e+02	-3.192996e+01
5.138726e+02	-3.197894e+01
5.168407e+02	-3.202429e+01
5.198259e+02	-3.207419e+01
5.228284e+02	-3.212682e+01
5.258482e+02	-3.218214e+01
5.288855e+02	-3.223629e+01
5.319403e+02	-3.227684e+01
5.350128e+02	-3.233622e+01
5.381030e+02	-3.238556e+01
5.412111e+02	-3.243392e+01
5.443371e+02	-3.248440e+01
5.474812e+02	-3.252831e+01
5.506434e+02	-3.258066e+01
5.538239e+02	-3.263716e+01
5.570228e+02	-3.268137e+01
5.602401e+02	-3.273263e+01
5.634760e+02	-3.278599e+01
5.667306e+02	-3.282960e+01
5.700040e+02	-3.287791e+01
5.732964e+02	-3.294286e+01
5.766077e+02	-3.298911e+01
5.799382e+02	-3.303213e+01
5.832879e+02	-3.308678e+01
5.866569e+02	-3.313170e+01
5.900454e+02	-3.318519e+01
5.934535e+02	-3.323549e+01
5.968813e+02	-3.328248e+01
6.003288e+02	-3.333793e+01
6.037963e+02	-3.339390e+01
6.072838e+02	-3.343829e+01
6.107914e+02	-3.349026e+01
6.143194e+02	-3.354034e+01
6.178676e+02	-3.357825e+01
6.214364e+02	-3.363391e+01
6.250258e+02	-3.369053e+01
6.286359e+02	-3.373685e+01
6.322669e+02	-3.378310e+01
6.359189e+02	-3.384054e+01
6.395919e+02	-3.388937e+01
6.432862e+02	-3.394448e+01
6.470017e+02	-3.398891e+01
6.507388e+02	-3.404110e+01
6.544974e+02	-3.409325e+01
6.582778e+02	-3.414156e+01
6.620800e+02	-3.418905e+01
6.659041e+02	-3.423600e+01
6.697504e+02	-3.429555e+01
6.736188e+02	-3.434441e+01
6.775096e+02	-3.438988e+01
6.814229e+02	-3.444551e+01
6.853587e+02	-3.449250e+01
6.893173e+02	-3.454754e+01
6.932988e+02	-3.459474e+01
6.973033e+02	-3.464786e+01
7.013309e+02	-3.470298e+01
