Frequency(Hz)	Magnitude(dB)
1.000000e+01	-2.258567e+00
1.005776e+01	-2.278728e+00
1.011585e+01	-2.299240e+00
1.017428e+01	-2.319874e+00
1.023305e+01	-2.340708e+00
1.029215e+01	-2.361758e+00
1.035160e+01	-2.382785e+00
1.041139e+01	-2.403838e+00
1.047153e+01	-2.425218e+00
1.053201e+01	-2.446711e+00
1.059284e+01	-2.468301e+00
1.065403e+01	-2.490168e+00
1.071556e+01	-2.511814e+00
1.077746e+01	-2.533977e+00
1.083971e+01	-2.555874e+00
1.090232e+01	-2.578601e+00
1.096529e+01	-2.600770e+00
1.102862e+01	-2.623553e+00
1.109232e+01	-2.646291e+00
1.115639e+01	-2.669222e+00
1.122083e+01	-2.692392e+00
1.128564e+01	-2.715384e+00
1.135083e+01	-2.738704e+00
1.141639e+01	-2.762218e+00
1.148233e+01	-2.785659e+00
1.154865e+01	-2.809535e+00
1.161536e+01	-2.833562e+00
1.168245e+01	-2.857345e+00
1.174992e+01	-2.881903e+00
1.181779e+01	-2.906130e+00
1.188605e+01	-2.930521e+00
1.195470e+01	-2.955228e+00
1.202375e+01	-2.979833e+00
1.209320e+01	-3.005110e+00
1.216305e+01	-3.029702e+00
1.223330e+01	-3.055216e+00
1.230396e+01	-3.080286e+00
1.237503e+01	-3.105884e+00
1.244651e+01	-3.131530e+00
1.251840e+01	-3.157436e+00
1.259070e+01	-3.183191e+00
1.266343e+01	-3.209296e+00
1.273657e+01	-3.235203e+00
1.281014e+01	-3.261763e+00
1.288413e+01	-3.288362e+00
1.295855e+01	-3.314879e+00
1.303339e+01	-3.341918e+00
1.310867e+01	-3.368612e+00
1.318439e+01	-3.395977e+00
1.326054e+01	-3.423376e+00
1.333713e+01	-3.450253e+00
1.341417e+01	-3.477963e+00
1.349165e+01	-3.505475e+00
1.356958e+01	-3.533149e+00
1.364795e+01	-3.561155e+00
1.372678e+01	-3.589131e+00
1.380607e+01	-3.617183e+00
1.388581e+01	-3.645955e+00
1.396602e+01	-3.674164e+00
1.404668e+01	-3.702771e+00
1.412782e+01	-3.731507e+00
1.420942e+01	-3.760652e+00
1.429149e+01	-3.789593e+00
1.437404e+01	-3.818733e+00
1.445706e+01	-3.848148e+00
1.454057e+01	-3.877752e+00
1.462455e+01	-3.907347e+00
1.470902e+01	-3.937036e+00
1.479398e+01	-3.966855e+00
1.487943e+01	-3.996832e+00
1.496537e+01	-4.026740e+00
1.505181e+01	-4.057346e+00
1.513875e+01	-4.087704e+00
1.522619e+01	-4.118407e+00
1.531414e+01	-4.149001e+00
1.540259e+01	-4.179888e+00
1.549156e+01	-4.210829e+00
1.558103e+01	-4.241893e+00
1.567103e+01	-4.273198e+00
1.576155e+01	-4.304493e+00
1.585258e+01	-4.336222e+00
1.594415e+01	-4.367787e+00
1.603624e+01	-4.399393e+00
1.612886e+01	-4.431311e+00
1.622202e+01	-4.463463e+00
1.631572e+01	-4.495885e+00
1.640996e+01	-4.528447e+00
1.650474e+01	-4.560939e+00
1.660008e+01	-4.593444e+00
1.669596e+01	-4.626315e+00
1.679239e+01	-4.658695e+00
1.688938e+01	-4.691909e+00
1.698694e+01	-4.724799e+00
1.708505e+01	-4.758106e+00
1.718373e+01	-4.791377e+00
1.728299e+01	-4.824924e+00
1.738281e+01	-4.858373e+00
1.748322e+01	-4.892390e+00
1.758420e+01	-4.926348e+00
1.768576e+01	-4.960061e+00
1.778792e+01	-4.993966e+00
1.789066e+01	-5.027986e+00
1.799399e+01	-5.062763e+00
1.809793e+01	-5.097236e+00
1.820246e+01	-5.131869e+00
1.830760e+01	-5.166445e+00
1.841334e+01	-5.201678e+00
1.851969e+01	-5.236553e+00
1.862666e+01	-5.271678e+00
1.873425e+01	-5.307015e+00
1.884246e+01	-5.342462e+00
1.895129e+01	-5.378017e+00
1.906075e+01	-5.413404e+00
1.917085e+01	-5.449436e+00
1.928158e+01	-5.484811e+00
1.939295e+01	-5.520474e+00
1.950496e+01	-5.556527e+00
1.961762e+01	-5.592932e+00
1.973093e+01	-5.629086e+00
1.984490e+01	-5.665773e+00
1.995952e+01	-5.702098e+00
2.007480e+01	-5.738917e+00
2.019076e+01	-5.775443e+00
2.030738e+01	-5.812373e+00
2.042467e+01	-5.849325e+00
2.054264e+01	-5.886208e+00
2.066130e+01	-5.923729e+00
2.078064e+01	-5.961142e+00
2.090066e+01	-5.998272e+00
2.102139e+01	-6.036034e+00
2.114280e+01	-6.073174e+00
2.126492e+01	-6.111011e+00
2.138775e+01	-6.148948e+00
2.151128e+01	-6.186649e+00
2.163553e+01	-6.225122e+00
2.176050e+01	-6.263091e+00
2.188619e+01	-6.301295e+00
2.201260e+01	-6.339491e+00
2.213974e+01	-6.378376e+00
2.226762e+01	-6.416793e+00
2.239624e+01	-6.455380e+00
2.252560e+01	-6.494156e+00
2.265571e+01	-6.533053e+00
2.278656e+01	-6.572153e+00
2.291818e+01	-6.610948e+00
2.305055e+01	-6.650329e+00
2.318369e+01	-6.689341e+00
2.331760e+01	-6.729028e+00
2.345228e+01	-6.768378e+00
2.358774e+01	-6.807600e+00
2.372398e+01	-6.847538e+00
2.386101e+01	-6.887491e+00
2.399883e+01	-6.926973e+00
2.413745e+01	-6.967098e+00
2.427686e+01	-7.007003e+00
2.441709e+01	-7.046943e+00
2.455812e+01	-7.087072e+00
2.469997e+01	-7.127403e+00
2.484263e+01	-7.168081e+00
2.498612e+01	-7.208159e+00
2.513044e+01	-7.248663e+00
2.527559e+01	-7.289571e+00
2.542158e+01	-7.330513e+00
2.556842e+01	-7.371133e+00
2.571610e+01	-7.411933e+00
2.586463e+01	-7.452802e+00
2.601403e+01	-7.494180e+00
2.616428e+01	-7.535578e+00
2.631541e+01	-7.576801e+00
2.646740e+01	-7.617925e+00
2.662028e+01	-7.659255e+00
2.677404e+01	-7.700562e+00
2.692868e+01	-7.742436e+00
2.708422e+01	-7.784050e+00
2.724066e+01	-7.825306e+00
2.739800e+01	-7.867261e+00
2.755625e+01	-7.909325e+00
2.771541e+01	-7.951353e+00
2.787550e+01	-7.993702e+00
2.803650e+01	-8.035438e+00
2.819844e+01	-8.077697e+00
2.836131e+01	-8.119831e+00
2.852513e+01	-8.162769e+00
2.868989e+01	-8.204640e+00
2.885560e+01	-8.247103e+00
2.902227e+01	-8.289859e+00
2.918990e+01	-8.332555e+00
2.935850e+01	-8.375397e+00
2.952807e+01	-8.418435e+00
2.969863e+01	-8.461266e+00
2.987016e+01	-8.504526e+00
3.004269e+01	-8.546551e+00
3.021622e+01	-8.590208e+00
3.039075e+01	-8.632721e+00
3.056628e+01	-8.675945e+00
3.074283e+01	-8.719409e+00
3.092040e+01	-8.762783e+00
3.109900e+01	-8.806457e+00
3.127862e+01	-8.849847e+00
3.145929e+01	-8.893306e+00
3.164099e+01	-8.937205e+00
3.182375e+01	-8.980284e+00
3.200756e+01	-9.024131e+00
3.219244e+01	-9.068375e+00
3.237838e+01	-9.111652e+00
3.256540e+01	-9.156041e+00
3.275349e+01	-9.199386e+00
3.294268e+01	-9.243644e+00
3.313295e+01	-9.287805e+00
3.332433e+01	-9.331903e+00
3.351681e+01	-9.376251e+00
3.371040e+01	-9.420699e+00
3.390511e+01	-9.464722e+00
3.410094e+01	-9.508891e+00
3.429791e+01	-9.554266e+00
3.449601e+01	-9.598104e+00
3.469526e+01	-9.642751e+00
3.489566e+01	-9.687604e+00
3.509721e+01	-9.731866e+00
3.529993e+01	-9.777199e+00
3.550382e+01	-9.821698e+00
3.570889e+01	-9.866586e+00
3.591515e+01	-9.911663e+00
3.612259e+01	-9.956129e+00
3.633123e+01	-1.000147e+01
3.654108e+01	-1.004641e+01
3.675214e+01	-1.009163e+01
3.696442e+01	-1.013602e+01
3.717792e+01	-1.018213e+01
3.739266e+01	-1.022667e+01
3.760864e+01	-1.027257e+01
3.782587e+01	-1.031752e+01
3.804435e+01	-1.036357e+01
3.826409e+01	-1.040938e+01
3.848510e+01	-1.045403e+01
3.870739e+01	-1.049949e+01
3.893096e+01	-1.054522e+01
3.915583e+01	-1.059125e+01
3.938199e+01	-1.063650e+01
3.960946e+01	-1.068212e+01
3.983824e+01	-1.072853e+01
4.006834e+01	-1.077407e+01
4.029978e+01	-1.081943e+01
4.053255e+01	-1.086630e+01
4.076666e+01	-1.091151e+01
4.100213e+01	-1.095749e+01
4.123896e+01	-1.100412e+01
4.147715e+01	-1.104991e+01
4.171672e+01	-1.109579e+01
4.195767e+01	-1.114230e+01
4.220002e+01	-1.118814e+01
4.244377e+01	-1.123409e+01
4.268892e+01	-1.128055e+01
4.293549e+01	-1.132724e+01
4.318348e+01	-1.137280e+01
4.343291e+01	-1.141996e+01
4.368377e+01	-1.146595e+01
4.393609e+01	-1.151335e+01
4.418986e+01	-1.155901e+01
4.444510e+01	-1.160562e+01
4.470182e+01	-1.165252e+01
4.496001e+01	-1.169914e+01
4.521970e+01	-1.174525e+01
4.548089e+01	-1.179265e+01
4.574358e+01	-1.183910e+01
4.600779e+01	-1.188614e+01
4.627353e+01	-1.193204e+01
4.654081e+01	-1.198006e+01
4.680963e+01	-1.202582e+01
4.708000e+01	-1.207377e+01
4.735193e+01	-1.212041e+01
4.762543e+01	-1.216702e+01
4.790051e+01	-1.221441e+01
4.817719e+01	-1.226146e+01
4.845545e+01	-1.230876e+01
4.873533e+01	-1.235536e+01
4.901682e+01	-1.240317e+01
4.929994e+01	-1.244997e+01
4.958470e+01	-1.249638e+01
4.987110e+01	-1.254370e+01
5.015915e+01	-1.259114e+01
5.044887e+01	-1.263865e+01
5.074026e+01	-1.268597e+01
5.103333e+01	-1.273313e+01
5.132810e+01	-1.278050e+01
5.162457e+01	-1.282772e+01
5.192275e+01	-1.287575e+01
5.222265e+01	-1.292264e+01
5.252429e+01	-1.297069e+01
5.282767e+01	-1.301810e+01
5.313280e+01	-1.306527e+01
5.343969e+01	-1.311308e+01
5.374836e+01	-1.316041e+01
5.405880e+01	-1.320863e+01
5.437105e+01	-1.325608e+01
5.468509e+01	-1.330325e+01
5.500095e+01	-1.335099e+01
5.531863e+01	-1.339974e+01
5.563815e+01	-1.344697e+01
5.595951e+01	-1.349473e+01
5.628273e+01	-1.354263e+01
5.660782e+01	-1.358960e+01
5.693479e+01	-1.363854e+01
5.726364e+01	-1.368589e+01
5.759439e+01	-1.373364e+01
5.792705e+01	-1.378253e+01
5.826164e+01	-1.383063e+01
5.859815e+01	-1.387804e+01
5.893662e+01	-1.392532e+01
5.927703e+01	-1.397392e+01
5.961941e+01	-1.402131e+01
5.996377e+01	-1.406950e+01
6.031012e+01	-1.411776e+01
6.065847e+01	-1.416638e+01
6.100883e+01	-1.421347e+01
6.136121e+01	-1.426250e+01
6.171563e+01	-1.431070e+01
6.207210e+01	-1.435893e+01
6.243063e+01	-1.440748e+01
6.279122e+01	-1.445513e+01
6.315390e+01	-1.450287e+01
6.351868e+01	-1.455104e+01
6.388556e+01	-1.460035e+01
6.425456e+01	-1.464889e+01
6.462569e+01	-1.469697e+01
6.499897e+01	-1.474586e+01
6.537440e+01	-1.479394e+01
6.575200e+01	-1.484213e+01
6.613178e+01	-1.489101e+01
6.651375e+01	-1.493817e+01
6.689793e+01	-1.498622e+01
6.728433e+01	-1.503600e+01
6.767297e+01	-1.508306e+01
6.806384e+01	-1.513248e+01
6.845698e+01	-1.518089e+01
6.885238e+01	-1.522873e+01
6.925007e+01	-1.527826e+01
6.965005e+01	-1.532601e+01
7.005235e+01	-1.537469e+01
7.045697e+01	-1.542340e+01
7.086393e+01	-1.547142e+01
7.127323e+01	-1.552005e+01
7.168490e+01	-1.556957e+01
7.209895e+01	-1.561831e+01
7.251539e+01	-1.566581e+01
7.293424e+01	-1.571440e+01
7.335551e+01	-1.576465e+01
7.377920e+01	-1.581267e+01
7.420535e+01	-1.586154e+01
7.463396e+01	-1.590939e+01
7.506504e+01	-1.595810e+01
7.549861e+01	-1.600827e+01
7.593469e+01	-1.605692e+01
7.637328e+01	-1.610585e+01
7.681441e+01	-1.615384e+01
7.725809e+01	-1.620325e+01
7.770433e+01	-1.625106e+01
7.815315e+01	-1.630112e+01
7.860456e+01	-1.634908e+01
7.905857e+01	-1.639746e+01
7.951521e+01	-1.644602e+01
7.997449e+01	-1.649558e+01
8.043642e+01	-1.654507e+01
8.090102e+01	-1.659369e+01
8.136830e+01	-1.664282e+01
8.183828e+01	-1.669280e+01
8.231097e+01	-1.674073e+01
8.278640e+01	-1.679008e+01
8.326457e+01	-1.683923e+01
8.374550e+01	-1.688788e+01
8.422921e+01	-1.693555e+01
8.471572e+01	-1.698592e+01
8.520503e+01	-1.703410e+01
8.569717e+01	-1.708417e+01
8.619215e+01	-1.713353e+01
8.669000e+01	-1.718153e+01
8.719071e+01	-1.723072e+01
8.769432e+01	-1.727893e+01
8.820084e+01	-1.732886e+01
8.871029e+01	-1.737946e+01
8.922267e+01	-1.742805e+01
8.973802e+01	-1.747584e+01
9.025634e+01	-1.752565e+01
9.077766e+01	-1.757463e+01
9.130199e+01	-1.762414e+01
9.182935e+01	-1.767341e+01
9.235975e+01	-1.772305e+01
9.289321e+01	-1.777145e+01
9.342976e+01	-1.782061e+01
9.396941e+01	-1.787120e+01
9.451217e+01	-1.791841e+01
9.505807e+01	-1.796902e+01
9.560712e+01	-1.801844e+01
9.615934e+01	-1.806728e+01
9.671476e+01	-1.811598e+01
9.727338e+01	-1.816425e+01
9.783522e+01	-1.821391e+01
9.840032e+01	-1.826414e+01
9.896867e+01	-1.831399e+01
9.954031e+01	-1.836243e+01
1.001153e+02	-1.841194e+01
1.006935e+02	-1.846084e+01
1.012751e+02	-1.851131e+01
1.018601e+02	-1.856088e+01
1.024484e+02	-1.860913e+01
1.030402e+02	-1.865889e+01
1.036353e+02	-1.870858e+01
1.042339e+02	-1.875772e+01
1.048360e+02	-1.880603e+01
1.054415e+02	-1.885561e+01
1.060505e+02	-1.890510e+01
1.066631e+02	-1.895568e+01
1.072791e+02	-1.900495e+01
1.078988e+02	-1.905326e+01
1.085220e+02	-1.910194e+01
1.091488e+02	-1.915273e+01
1.097793e+02	-1.920103e+01
1.104133e+02	-1.925155e+01
1.110511e+02	-1.930135e+01
1.116925e+02	-1.935219e+01
1.123376e+02	-1.940143e+01
1.129865e+02	-1.945006e+01
1.136391e+02	-1.949978e+01
1.142955e+02	-1.954802e+01
1.149556e+02	-1.959837e+01
1.156196e+02	-1.964712e+01
1.162874e+02	-1.969664e+01
1.169591e+02	-1.974548e+01
1.176347e+02	-1.979550e+01
1.183141e+02	-1.984457e+01
1.189975e+02	-1.989581e+01
1.196848e+02	-1.994459e+01
1.203761e+02	-1.999401e+01
1.210714e+02	-2.004238e+01
1.217707e+02	-2.009287e+01
1.224740e+02	-2.014292e+01
1.231814e+02	-2.019255e+01
1.238929e+02	-2.024193e+01
1.246085e+02	-2.029169e+01
1.253283e+02	-2.033985e+01
1.260522e+02	-2.039131e+01
1.267802e+02	-2.044077e+01
1.275125e+02	-2.048973e+01
1.282490e+02	-2.053965e+01
1.289898e+02	-2.059050e+01
1.297348e+02	-2.063917e+01
1.304842e+02	-2.068850e+01
1.312378e+02	-2.073726e+01
1.319959e+02	-2.078756e+01
1.327583e+02	-2.083568e+01
1.335251e+02	-2.088649e+01
1.342963e+02	-2.093462e+01
1.350720e+02	-2.098417e+01
1.358522e+02	-2.103383e+01
1.366368e+02	-2.108483e+01
1.374260e+02	-2.113371e+01
1.382198e+02	-2.118184e+01
1.390182e+02	-2.123298e+01
1.398211e+02	-2.128442e+01
1.406287e+02	-2.133126e+01
1.414410e+02	-2.138258e+01
1.422579e+02	-2.143142e+01
1.430796e+02	-2.148340e+01
1.439060e+02	-2.153208e+01
1.447372e+02	-2.158203e+01
1.455732e+02	-2.163226e+01
1.464141e+02	-2.168071e+01
1.472597e+02	-2.173040e+01
1.481103e+02	-2.177891e+01
1.489658e+02	-2.183072e+01
1.498262e+02	-2.187871e+01
1.506916e+02	-2.193017e+01
1.515620e+02	-2.197785e+01
1.524374e+02	-2.203222e+01
1.533179e+02	-2.207952e+01
1.542034e+02	-2.213011e+01
1.550941e+02	-2.217805e+01
1.559899e+02	-2.222729e+01
1.568909e+02	-2.227769e+01
1.577971e+02	-2.232805e+01
1.587085e+02	-2.237652e+01
1.596252e+02	-2.242715e+01
1.605472e+02	-2.247796e+01
1.614745e+02	-2.252645e+01
1.624072e+02	-2.257747e+01
1.633453e+02	-2.262708e+01
1.642887e+02	-2.267551e+01
1.652377e+02	-2.272733e+01
1.661921e+02	-2.277383e+01
1.671520e+02	-2.282513e+01
1.681175e+02	-2.287464e+01
1.690885e+02	-2.292594e+01
1.700651e+02	-2.297556e+01
1.710474e+02	-2.302588e+01
1.720354e+02	-2.307250e+01
1.730291e+02	-2.312462e+01
1.740285e+02	-2.317466e+01
1.750337e+02	-2.322518e+01
1.760446e+02	-2.327388e+01
1.770615e+02	-2.332426e+01
1.780842e+02	-2.337349e+01
1.791128e+02	-2.342146e+01
1.801473e+02	-2.347273e+01
1.811878e+02	-2.352211e+01
1.822344e+02	-2.357120e+01
1.832870e+02	-2.362031e+01
1.843456e+02	-2.367035e+01
1.854104e+02	-2.372161e+01
1.864813e+02	-2.377149e+01
1.875584e+02	-2.382093e+01
1.886418e+02	-2.387049e+01
1.897313e+02	-2.392343e+01
1.908272e+02	-2.397226e+01
1.919294e+02	-2.402055e+01
1.930380e+02	-2.407097e+01
1.941530e+02	-2.412195e+01
1.952744e+02	-2.417082e+01
1.964023e+02	-2.422035e+01
1.975367e+02	-2.427129e+01
1.986777e+02	-2.432163e+01
1.998252e+02	-2.436805e+01
2.009794e+02	-2.441974e+01
2.021403e+02	-2.447315e+01
2.033078e+02	-2.451890e+01
2.044821e+02	-2.456849e+01
2.056632e+02	-2.461931e+01
2.068511e+02	-2.466976e+01
2.080459e+02	-2.471790e+01
2.092475e+02	-2.476767e+01
2.104561e+02	-2.482153e+01
2.116717e+02	-2.486997e+01
2.128943e+02	-2.491876e+01
2.141240e+02	-2.496898e+01
2.153608e+02	-2.502042e+01
2.166047e+02	-2.506767e+01
2.178558e+02	-2.511851e+01
2.191141e+02	-2.516805e+01
2.203797e+02	-2.522161e+01
2.216526e+02	-2.526845e+01
2.229329e+02	-2.531772e+01
2.242205e+02	-2.536466e+01
2.255156e+02	-2.541804e+01
2.268182e+02	-2.546864e+01
2.281283e+02	-2.551713e+01
2.294459e+02	-2.556635e+01
2.307712e+02	-2.561812e+01
2.321041e+02	-2.566774e+01
2.334447e+02	-2.571979e+01
2.347931e+02	-2.576644e+01
2.361493e+02	-2.581894e+01
2.375133e+02	-2.586680e+01
2.388851e+02	-2.591484e+01
2.402649e+02	-2.596512e+01
2.416527e+02	-2.601630e+01
2.430484e+02	-2.606876e+01
2.444523e+02	-2.611597e+01
2.458642e+02	-2.616758e+01
2.472843e+02	-2.621573e+01
2.487126e+02	-2.626881e+01
2.501492e+02	-2.631724e+01
2.515940e+02	-2.636825e+01
2.530472e+02	-2.641835e+01
2.545088e+02	-2.646411e+01
2.559789e+02	-2.651808e+01
2.574574e+02	-2.656228e+01
2.589444e+02	-2.661609e+01
2.604401e+02	-2.666857e+01
2.619444e+02	-2.671563e+01
2.634574e+02	-2.676757e+01
2.649791e+02	-2.681671e+01
2.665096e+02	-2.687101e+01
2.680489e+02	-2.691647e+01
2.695972e+02	-2.696565e+01
2.711544e+02	-2.701040e+01
2.727205e+02	-2.706403e+01
2.742958e+02	-2.711621e+01
2.758801e+02	-2.716987e+01
2.774736e+02	-2.721722e+01
2.790762e+02	-2.726655e+01
2.806882e+02	-2.731653e+01
2.823094e+02	-2.737059e+01
2.839400e+02	-2.741819e+01
2.855800e+02	-2.746941e+01
2.872295e+02	-2.751541e+01
2.888886e+02	-2.756646e+01
2.905572e+02	-2.762042e+01
2.922354e+02	-2.766596e+01
2.939234e+02	-2.772167e+01
2.956211e+02	-2.776908e+01
2.973286e+02	-2.781653e+01
2.990459e+02	-2.786657e+01
3.007732e+02	-2.791645e+01
3.025104e+02	-2.796823e+01
3.042577e+02	-2.802124e+01
3.060151e+02	-2.806736e+01
3.077826e+02	-2.811912e+01
3.095604e+02	-2.816522e+01
3.113484e+02	-2.821712e+01
3.131467e+02	-2.826497e+01
3.149554e+02	-2.831782e+01
3.167746e+02	-2.836459e+01
3.186043e+02	-2.841634e+01
3.204445e+02	-2.846432e+01
3.222954e+02	-2.851455e+01
3.241570e+02	-2.856917e+01
3.260293e+02	-2.862125e+01
3.279124e+02	-2.866811e+01
3.298064e+02	-2.871629e+01
3.317114e+02	-2.877050e+01
3.336273e+02	-2.881646e+01
3.355544e+02	-2.886544e+01
3.374925e+02	-2.891089e+01
3.394418e+02	-2.897024e+01
3.414024e+02	-2.901885e+01
3.433744e+02	-2.906667e+01
3.453577e+02	-2.911379e+01
3.473525e+02	-2.916312e+01
3.493588e+02	-2.921960e+01
3.513766e+02	-2.926508e+01
3.534062e+02	-2.931642e+01
3.554474e+02	-2.936884e+01
3.575005e+02	-2.941905e+01
3.595654e+02	-2.946589e+01
3.616422e+02	-2.951666e+01
3.637311e+02	-2.956383e+01
3.658320e+02	-2.962050e+01
3.679450e+02	-2.966959e+01
3.700702e+02	-2.971299e+01
3.722077e+02	-2.976514e+01
3.743576e+02	-2.982040e+01
3.765199e+02	-2.986960e+01
3.786946e+02	-2.991826e+01
3.808820e+02	-2.996711e+01
3.830819e+02	-3.001835e+01
3.852946e+02	-3.006494e+01
3.875200e+02	-3.012162e+01
3.897583e+02	-3.017111e+01
3.920096e+02	-3.021711e+01
3.942738e+02	-3.027182e+01
3.965511e+02	-3.031708e+01
3.988416e+02	-3.036743e+01
4.011452e+02	-3.041560e+01
4.034622e+02	-3.047172e+01
4.057926e+02	-3.052459e+01
4.081365e+02	-3.057340e+01
4.104938e+02	-3.061383e+01
4.128648e+02	-3.067068e+01
4.152495e+02	-3.071918e+01
4.176480e+02	-3.077016e+01
4.200603e+02	-3.082557e+01
4.224866e+02	-3.087489e+01
4.249268e+02	-3.092622e+01
4.273812e+02	-3.097559e+01
4.298497e+02	-3.102461e+01
4.323325e+02	-3.106867e+01
4.348297e+02	-3.111757e+01
4.373412e+02	-3.117182e+01
4.398673e+02	-3.122099e+01
4.424079e+02	-3.127319e+01
4.449633e+02	-3.132041e+01
4.475334e+02	-3.137728e+01
4.501183e+02	-3.142435e+01
4.527182e+02	-3.147018e+01
4.553330e+02	-3.152394e+01
4.579630e+02	-3.157464e+01
4.606082e+02	-3.161601e+01
4.632687e+02	-3.166994e+01
4.659445e+02	-3.171948e+01
4.686358e+02	-3.178049e+01
4.713426e+02	-3.182507e+01
4.740650e+02	-3.187559e+01
4.768032e+02	-3.192354e+01
4.795572e+02	-3.197534e+01
4.823271e+02	-3.201928e+01
4.851130e+02	-3.208152e+01
4.879150e+02	-3.212563e+01
4.907332e+02	-3.217483e+01
4.935676e+02	-3.222774e+01
4.964185e+02	-3.227684e+01
4.992858e+02	-3.232437e+01
5.021696e+02	-3.237576e+01
5.050701e+02	-3.242613e+01
5.079874e+02	-3.247717e+01
5.109215e+02	-3.251491e+01
5.138726e+02	-3.256748e+01
5.168407e+02	-3.262254e+01
5.198259e+02	-3.267813e+01
5.228284e+02	-3.272764e+01
5.258482e+02	-3.277376e+01
5.288855e+02	-3.282436e+01
5.319403e+02	-3.287659e+01
5.350128e+02	-3.293389e+01
5.381030e+02	-3.298403e+01
5.412111e+02	-3.302975e+01
5.443371e+02	-3.308361e+01
5.474812e+02	-3.313823e+01
5.506434e+02	-3.317974e+01
5.538239e+02	-3.322746e+01
5.570228e+02	-3.326848e+01
5.602401e+02	-3.333827e+01
5.634760e+02	-3.338356e+01
5.667306e+02	-3.342729e+01
5.700040e+02	-3.348545e+01
5.732964e+02	-3.353305e+01
5.766077e+02	-3.358366e+01
5.799382e+02	-3.363209e+01
5.832879e+02	-3.367952e+01
5.866569e+02	-3.373044e+01
5.900454e+02	-3.378087e+01
5.934535e+02	-3.383789e+01
5.968813e+02	-3.388806e+01
6.003288e+02	-3.393809e+01
6.037963e+02	-3.398489e+01
6.072838e+02	-3.403690e+01
6.107914e+02	-3.408885e+01
6.143194e+02	-3.413346e+01
6.178676e+02	-3.418467e+01
6.214364e+02	-3.423597e+01
6.250258e+02	-3.427986e+01
6.286359e+02	-3.434035e+01
6.322669e+02	-3.438462e+01
6.359189e+02	-3.443922e+01
6.395919e+02	-3.448844e+01
6.432862e+02	-3.453975e+01
6.470017e+02	-3.459341e+01
6.507388e+02	-3.464761e+01
6.544974e+02	-3.468803e+01
6.582778e+02	-3.473814e+01
6.620800e+02	-3.480212e+01
6.659041e+02	-3.483685e+01
6.697504e+02	-3.489217e+01
6.736188e+02	-3.494305e+01
6.775096e+02	-3.498423e+01
6.814229e+02	-3.504084e+01
6.853587e+02	-3.508612e+01
6.893173e+02	-3.514564e+01
6.932988e+02	-3.519275e+01
6.973033e+02	-3.524111e+01
7.013309e+02	-3.529626e+01
