Frequency(Hz)	Magnitude(dB)
1.000000e+01	-2.004572e+00
1.005776e+01	-2.023147e+00
1.011585e+01	-2.041831e+00
1.017428e+01	-2.060519e+00
1.023305e+01	-2.079614e+00
1.029215e+01	-2.098617e+00
1.035160e+01	-2.117996e+00
1.041139e+01	-2.137704e+00
1.047153e+01	-2.156794e+00
1.053201e+01	-2.176377e+00
1.059284e+01	-2.196385e+00
1.065403e+01	-2.216125e+00
1.071556e+01	-2.236324e+00
1.077746e+01	-2.256248e+00
1.083971e+01	-2.276708e+00
1.090232e+01	-2.297249e+00
1.096529e+01	-2.317837e+00
1.102862e+01	-2.338786e+00
1.109232e+01	-2.359455e+00
1.115639e+01	-2.380581e+00
1.122083e+01	-2.401839e+00
1.128564e+01	-2.423064e+00
1.135083e+01	-2.444497e+00
1.141639e+01	-2.466304e+00
1.148233e+01	-2.487919e+00
1.154865e+01	-2.509813e+00
1.161536e+01	-2.531732e+00
1.168245e+01	-2.553780e+00
1.174992e+01	-2.576404e+00
1.181779e+01	-2.598712e+00
1.188605e+01	-2.621175e+00
1.195470e+01	-2.644112e+00
1.202375e+01	-2.666827e+00
1.209320e+01	-2.689757e+00
1.216305e+01	-2.713154e+00
1.223330e+01	-2.736586e+00
1.230396e+01	-2.759941e+00
1.237503e+01	-2.783391e+00
1.244651e+01	-2.807022e+00
1.251840e+01	-2.831162e+00
1.259070e+01	-2.855033e+00
1.266343e+01	-2.879325e+00
1.273657e+01	-2.903723e+00
1.281014e+01	-2.928196e+00
1.288413e+01	-2.952386e+00
1.295855e+01	-2.977429e+00
1.303339e+01	-3.002391e+00
1.310867e+01	-3.027581e+00
1.318439e+01	-3.052317e+00
1.326054e+01	-3.078072e+00
1.333713e+01	-3.103445e+00
1.341417e+01	-3.128694e+00
1.349165e+01	-3.154893e+00
1.356958e+01	-3.180732e+00
1.364795e+01	-3.206735e+00
1.372678e+01	-3.232940e+00
1.380607e+01	-3.259510e+00
1.388581e+01	-3.285853e+00
1.396602e+01	-3.312135e+00
1.404668e+01	-3.339042e+00
1.412782e+01	-3.365988e+00
1.420942e+01	-3.392755e+00
1.429149e+01	-3.420120e+00
1.437404e+01	-3.447580e+00
1.445706e+01	-3.474800e+00
1.454057e+01	-3.502677e+00
1.462455e+01	-3.530550e+00
1.470902e+01	-3.558287e+00
1.479398e+01	-3.586260e+00
1.487943e+01	-3.614471e+00
1.496537e+01	-3.643021e+00
1.505181e+01	-3.671370e+00
1.513875e+01	-3.700070e+00
1.522619e+01	-3.728903e+00
1.531414e+01	-3.757440e+00
1.540259e+01	-3.786609e+00
1.549156e+01	-3.815856e+00
1.558103e+01	-3.845139e+00
1.567103e+01	-3.874709e+00
1.576155e+01	-3.904408e+00
1.585258e+01	-3.934043e+00
1.594415e+01	-3.963877e+00
1.603624e+01	-3.993979e+00
1.612886e+01	-4.024139e+00
1.622202e+01	-4.054160e+00
1.631572e+01	-4.084454e+00
1.640996e+01	-4.115689e+00
1.650474e+01	-4.145874e+00
1.660008e+01	-4.176580e+00
1.669596e+01	-4.207721e+00
1.679239e+01	-4.238855e+00
1.688938e+01	-4.270152e+00
1.698694e+01	-4.301638e+00
1.708505e+01	-4.332896e+00
1.718373e+01	-4.364611e+00
1.728299e+01	-4.396548e+00
1.738281e+01	-4.428454e+00
1.748322e+01	-4.460486e+00
1.758420e+01	-4.492694e+00
1.768576e+01	-4.524861e+00
1.778792e+01	-4.557733e+00
1.789066e+01	-4.589864e+00
1.799399e+01	-4.622709e+00
1.809793e+01	-4.655261e+00
1.820246e+01	-4.688429e+00
1.830760e+01	-4.721598e+00
1.841334e+01	-4.754797e+00
1.851969e+01	-4.788113e+00
1.862666e+01	-4.821699e+00
1.873425e+01	-4.855067e+00
1.884246e+01	-4.889121e+00
1.895129e+01	-4.922919e+00
1.906075e+01	-4.956565e+00
1.917085e+01	-4.991020e+00
1.928158e+01	-5.025030e+00
1.939295e+01	-5.059448e+00
1.950496e+01	-5.094038e+00
1.961762e+01	-5.128623e+00
1.973093e+01	-5.163515e+00
1.984490e+01	-5.198008e+00
1.995952e+01	-5.233345e+00
2.007480e+01	-5.268228e+00
2.019076e+01	-5.303319e+00
2.030738e+01	-5.338342e+00
2.042467e+01	-5.374036e+00
2.054264e+01	-5.409813e+00
2.066130e+01	-5.445364e+00
2.078064e+01	-5.481380e+00
2.090066e+01	-5.517193e+00
2.102139e+01	-5.553112e+00
2.114280e+01	-5.589244e+00
2.126492e+01	-5.625558e+00
2.138775e+01	-5.661788e+00
2.151128e+01	-5.698831e+00
2.163553e+01	-5.735254e+00
2.176050e+01	-5.772280e+00
2.188619e+01	-5.808300e+00
2.201260e+01	-5.845406e+00
2.213974e+01	-5.883049e+00
2.226762e+01	-5.919920e+00
2.239624e+01	-5.957229e+00
2.252560e+01	-5.994432e+00
2.265571e+01	-6.031820e+00
2.278656e+01	-6.069698e+00
2.291818e+01	-6.107452e+00
2.305055e+01	-6.145089e+00
2.318369e+01	-6.183355e+00
2.331760e+01	-6.221065e+00
2.345228e+01	-6.259440e+00
2.358774e+01	-6.297799e+00
2.372398e+01	-6.335632e+00
2.386101e+01	-6.374343e+00
2.399883e+01	-6.412758e+00
2.413745e+01	-6.451385e+00
2.427686e+01	-6.490222e+00
2.441709e+01	-6.529305e+00
2.455812e+01	-6.568079e+00
2.469997e+01	-6.607131e+00
2.484263e+01	-6.646215e+00
2.498612e+01	-6.685716e+00
2.513044e+01	-6.724912e+00
2.527559e+01	-6.764085e+00
2.542158e+01	-6.803824e+00
2.556842e+01	-6.843691e+00
2.571610e+01	-6.883263e+00
2.586463e+01	-6.923283e+00
2.601403e+01	-6.962964e+00
2.616428e+01	-7.003099e+00
2.631541e+01	-7.042813e+00
2.646740e+01	-7.083349e+00
2.662028e+01	-7.123332e+00
2.677404e+01	-7.164071e+00
2.692868e+01	-7.204500e+00
2.708422e+01	-7.245261e+00
2.724066e+01	-7.285453e+00
2.739800e+01	-7.326602e+00
2.755625e+01	-7.367051e+00
2.771541e+01	-7.407277e+00
2.787550e+01	-7.448866e+00
2.803650e+01	-7.489857e+00
2.819844e+01	-7.531281e+00
2.836131e+01	-7.572778e+00
2.852513e+01	-7.613972e+00
2.868989e+01	-7.655091e+00
2.885560e+01	-7.696563e+00
2.902227e+01	-7.738344e+00
2.918990e+01	-7.780044e+00
2.935850e+01	-7.821575e+00
2.952807e+01	-7.863213e+00
2.969863e+01	-7.905053e+00
2.987016e+01	-7.946940e+00
3.004269e+01	-7.989196e+00
3.021622e+01	-8.031031e+00
3.039075e+01	-8.073506e+00
3.056628e+01	-8.115914e+00
3.074283e+01	-8.157747e+00
3.092040e+01	-8.200754e+00
3.109900e+01	-8.243275e+00
3.127862e+01	-8.285468e+00
3.145929e+01	-8.328520e+00
3.164099e+01	-8.371000e+00
3.182375e+01	-8.413614e+00
3.200756e+01	-8.456653e+00
3.219244e+01	-8.499205e+00
3.237838e+01	-8.542590e+00
3.256540e+01	-8.585634e+00
3.275349e+01	-8.628650e+00
3.294268e+01	-8.671968e+00
3.313295e+01	-8.714928e+00
3.332433e+01	-8.758348e+00
3.351681e+01	-8.801672e+00
3.371040e+01	-8.844947e+00
3.390511e+01	-8.888646e+00
3.410094e+01	-8.932328e+00
3.429791e+01	-8.975819e+00
3.449601e+01	-9.019862e+00
3.469526e+01	-9.063922e+00
3.489566e+01	-9.107580e+00
3.509721e+01	-9.151693e+00
3.529993e+01	-9.195437e+00
3.550382e+01	-9.239706e+00
3.570889e+01	-9.283441e+00
3.591515e+01	-9.327572e+00
3.612259e+01	-9.372050e+00
3.633123e+01	-9.416152e+00
3.654108e+01	-9.460928e+00
3.675214e+01	-9.505112e+00
3.696442e+01	-9.549244e+00
3.717792e+01	-9.593576e+00
3.739266e+01	-9.638577e+00
3.760864e+01	-9.682917e+00
3.782587e+01	-9.727694e+00
3.804435e+01	-9.772406e+00
3.826409e+01	-9.816785e+00
3.848510e+01	-9.862112e+00
3.870739e+01	-9.906401e+00
3.893096e+01	-9.952173e+00
3.915583e+01	-9.997414e+00
3.938199e+01	-1.004224e+01
3.960946e+01	-1.008719e+01
3.983824e+01	-1.013224e+01
4.006834e+01	-1.017748e+01
4.029978e+01	-1.022281e+01
4.053255e+01	-1.026817e+01
4.076666e+01	-1.031321e+01
4.100213e+01	-1.035879e+01
4.123896e+01	-1.040375e+01
4.147715e+01	-1.044920e+01
4.171672e+01	-1.049534e+01
4.195767e+01	-1.054102e+01
4.220002e+01	-1.058668e+01
4.244377e+01	-1.063235e+01
4.268892e+01	-1.067767e+01
4.293549e+01	-1.072328e+01
4.318348e+01	-1.076988e+01
4.343291e+01	-1.081536e+01
4.368377e+01	-1.086098e+01
4.393609e+01	-1.090721e+01
4.418986e+01	-1.095269e+01
4.444510e+01	-1.099933e+01
4.470182e+01	-1.104497e+01
4.496001e+01	-1.109115e+01
4.521970e+01	-1.113697e+01
4.548089e+01	-1.118345e+01
4.574358e+01	-1.122994e+01
4.600779e+01	-1.127583e+01
4.627353e+01	-1.132258e+01
4.654081e+01	-1.136869e+01
4.680963e+01	-1.141506e+01
4.708000e+01	-1.146196e+01
4.735193e+01	-1.150828e+01
4.762543e+01	-1.155419e+01
4.790051e+01	-1.160149e+01
4.817719e+01	-1.164695e+01
4.845545e+01	-1.169424e+01
4.873533e+01	-1.174096e+01
4.901682e+01	-1.178767e+01
4.929994e+01	-1.183431e+01
4.958470e+01	-1.188132e+01
4.987110e+01	-1.192871e+01
5.015915e+01	-1.197456e+01
5.044887e+01	-1.202163e+01
5.074026e+01	-1.206844e+01
5.103333e+01	-1.211519e+01
5.132810e+01	-1.216267e+01
5.162457e+01	-1.220912e+01
5.192275e+01	-1.225742e+01
5.222265e+01	-1.230313e+01
5.252429e+01	-1.235094e+01
5.282767e+01	-1.239825e+01
5.313280e+01	-1.244448e+01
5.343969e+01	-1.249259e+01
5.374836e+01	-1.253927e+01
5.405880e+01	-1.258675e+01
5.437105e+01	-1.263466e+01
5.468509e+01	-1.268076e+01
5.500095e+01	-1.272863e+01
5.531863e+01	-1.277582e+01
5.563815e+01	-1.282324e+01
5.595951e+01	-1.287098e+01
5.628273e+01	-1.291815e+01
5.660782e+01	-1.296643e+01
5.693479e+01	-1.301297e+01
5.726364e+01	-1.306085e+01
5.759439e+01	-1.310897e+01
5.792705e+01	-1.315560e+01
5.826164e+01	-1.320366e+01
5.859815e+01	-1.325169e+01
5.893662e+01	-1.329952e+01
5.927703e+01	-1.334693e+01
5.961941e+01	-1.339432e+01
5.996377e+01	-1.344231e+01
6.031012e+01	-1.348995e+01
6.065847e+01	-1.353729e+01
6.100883e+01	-1.358599e+01
6.136121e+01	-1.363330e+01
6.171563e+01	-1.368120e+01
6.207210e+01	-1.373001e+01
6.243063e+01	-1.377750e+01
6.279122e+01	-1.382440e+01
6.315390e+01	-1.387283e+01
6.351868e+01	-1.392072e+01
6.388556e+01	-1.396882e+01
6.425456e+01	-1.401732e+01
6.462569e+01	-1.406523e+01
6.499897e+01	-1.411299e+01
6.537440e+01	-1.416144e+01
6.575200e+01	-1.420979e+01
6.613178e+01	-1.425754e+01
6.651375e+01	-1.430514e+01
6.689793e+01	-1.435380e+01
6.728433e+01	-1.440270e+01
6.767297e+01	-1.445001e+01
6.806384e+01	-1.449791e+01
6.845698e+01	-1.454663e+01
6.885238e+01	-1.459513e+01
6.925007e+01	-1.464313e+01
6.965005e+01	-1.469063e+01
7.005235e+01	-1.473982e+01
7.045697e+01	-1.478810e+01
7.086393e+01	-1.483679e+01
7.127323e+01	-1.488505e+01
7.168490e+01	-1.493346e+01
7.209895e+01	-1.498236e+01
7.251539e+01	-1.503078e+01
7.293424e+01	-1.507838e+01
7.335551e+01	-1.512778e+01
7.377920e+01	-1.517618e+01
7.420535e+01	-1.522355e+01
7.463396e+01	-1.527240e+01
7.506504e+01	-1.532193e+01
7.549861e+01	-1.537035e+01
7.593469e+01	-1.541896e+01
7.637328e+01	-1.546651e+01
7.681441e+01	-1.551658e+01
7.725809e+01	-1.556534e+01
7.770433e+01	-1.561381e+01
7.815315e+01	-1.566229e+01
7.860456e+01	-1.571036e+01
7.905857e+01	-1.575942e+01
7.951521e+01	-1.580824e+01
7.997449e+01	-1.585660e+01
8.043642e+01	-1.590534e+01
8.090102e+01	-1.595468e+01
8.136830e+01	-1.600273e+01
8.183828e+01	-1.605233e+01
8.231097e+01	-1.610049e+01
8.278640e+01	-1.614858e+01
8.326457e+01	-1.619796e+01
8.374550e+01	-1.624715e+01
8.422921e+01	-1.629623e+01
8.471572e+01	-1.634473e+01
8.520503e+01	-1.639308e+01
8.569717e+01	-1.644218e+01
8.619215e+01	-1.649073e+01
8.669000e+01	-1.653975e+01
8.719071e+01	-1.658902e+01
8.769432e+01	-1.663873e+01
8.820084e+01	-1.668649e+01
8.871029e+01	-1.673590e+01
8.922267e+01	-1.678452e+01
8.973802e+01	-1.683309e+01
9.025634e+01	-1.688295e+01
9.077766e+01	-1.693194e+01
9.130199e+01	-1.698142e+01
9.182935e+01	-1.703001e+01
9.235975e+01	-1.707884e+01
9.289321e+01	-1.712853e+01
9.342976e+01	-1.717633e+01
9.396941e+01	-1.722663e+01
9.451217e+01	-1.727503e+01
9.505807e+01	-1.732380e+01
9.560712e+01	-1.737375e+01
9.615934e+01	-1.742253e+01
9.671476e+01	-1.747289e+01
9.727338e+01	-1.752016e+01
9.783522e+01	-1.756930e+01
9.840032e+01	-1.761992e+01
9.896867e+01	-1.766821e+01
9.954031e+01	-1.771724e+01
1.001153e+02	-1.776697e+01
1.006935e+02	-1.781470e+01
1.012751e+02	-1.786639e+01
1.018601e+02	-1.791401e+01
1.024484e+02	-1.796230e+01
1.030402e+02	-1.801399e+01
1.036353e+02	-1.806263e+01
1.042339e+02	-1.811211e+01
1.048360e+02	-1.816001e+01
1.054415e+02	-1.820833e+01
1.060505e+02	-1.825998e+01
1.066631e+02	-1.830900e+01
1.072791e+02	-1.835705e+01
1.078988e+02	-1.840709e+01
1.085220e+02	-1.845565e+01
1.091488e+02	-1.850495e+01
1.097793e+02	-1.855452e+01
1.104133e+02	-1.860590e+01
1.110511e+02	-1.865396e+01
1.116925e+02	-1.870328e+01
1.123376e+02	-1.875286e+01
1.129865e+02	-1.880173e+01
1.136391e+02	-1.885064e+01
1.142955e+02	-1.890127e+01
1.149556e+02	-1.895132e+01
1.156196e+02	-1.900030e+01
1.162874e+02	-1.904866e+01
1.169591e+02	-1.909775e+01
1.176347e+02	-1.914781e+01
1.183141e+02	-1.919753e+01
1.189975e+02	-1.924581e+01
1.196848e+02	-1.929494e+01
1.203761e+02	-1.934622e+01
1.210714e+02	-1.939541e+01
1.217707e+02	-1.944515e+01
1.224740e+02	-1.949458e+01
1.231814e+02	-1.954269e+01
1.238929e+02	-1.959249e+01
1.246085e+02	-1.964214e+01
1.253283e+02	-1.969045e+01
1.260522e+02	-1.974084e+01
1.267802e+02	-1.979115e+01
1.275125e+02	-1.983971e+01
1.282490e+02	-1.988984e+01
1.289898e+02	-1.993802e+01
1.297348e+02	-1.998750e+01
1.304842e+02	-2.003548e+01
1.312378e+02	-2.008857e+01
1.319959e+02	-2.013666e+01
1.327583e+02	-2.018578e+01
1.335251e+02	-2.023781e+01
1.342963e+02	-2.028531e+01
1.350720e+02	-2.033760e+01
1.358522e+02	-2.038478e+01
1.366368e+02	-2.043579e+01
1.374260e+02	-2.048472e+01
1.382198e+02	-2.053358e+01
1.390182e+02	-2.058282e+01
1.398211e+02	-2.063489e+01
1.406287e+02	-2.068338e+01
1.414410e+02	-2.073237e+01
1.422579e+02	-2.078136e+01
1.430796e+02	-2.083292e+01
1.439060e+02	-2.088045e+01
1.447372e+02	-2.093065e+01
1.455732e+02	-2.098056e+01
1.464141e+02	-2.103158e+01
1.472597e+02	-2.107981e+01
1.481103e+02	-2.112775e+01
1.489658e+02	-2.117962e+01
1.498262e+02	-2.122941e+01
1.506916e+02	-2.128032e+01
1.515620e+02	-2.132868e+01
1.524374e+02	-2.137809e+01
1.533179e+02	-2.142841e+01
1.542034e+02	-2.147799e+01
1.550941e+02	-2.152729e+01
1.559899e+02	-2.157804e+01
1.568909e+02	-2.162439e+01
1.577971e+02	-2.167483e+01
1.587085e+02	-2.172631e+01
1.596252e+02	-2.177618e+01
1.605472e+02	-2.182558e+01
1.614745e+02	-2.187550e+01
1.624072e+02	-2.192496e+01
1.633453e+02	-2.197441e+01
1.642887e+02	-2.202390e+01
1.652377e+02	-2.207333e+01
1.661921e+02	-2.212525e+01
1.671520e+02	-2.217489e+01
1.681175e+02	-2.222324e+01
1.690885e+02	-2.227260e+01
1.700651e+02	-2.232231e+01
1.710474e+02	-2.237211e+01
1.720354e+02	-2.242108e+01
1.730291e+02	-2.247208e+01
1.740285e+02	-2.251998e+01
1.750337e+02	-2.257124e+01
1.760446e+02	-2.262234e+01
1.770615e+02	-2.267198e+01
1.780842e+02	-2.271975e+01
1.791128e+02	-2.276997e+01
1.801473e+02	-2.282175e+01
1.811878e+02	-2.287294e+01
1.822344e+02	-2.291949e+01
1.832870e+02	-2.296792e+01
1.843456e+02	-2.302058e+01
1.854104e+02	-2.307031e+01
1.864813e+02	-2.311903e+01
1.875584e+02	-2.317125e+01
1.886418e+02	-2.321551e+01
1.897313e+02	-2.326930e+01
1.908272e+02	-2.331952e+01
1.919294e+02	-2.336796e+01
1.930380e+02	-2.341819e+01
1.941530e+02	-2.346599e+01
1.952744e+02	-2.351857e+01
1.964023e+02	-2.356733e+01
1.975367e+02	-2.361592e+01
1.986777e+02	-2.366764e+01
1.998252e+02	-2.371564e+01
2.009794e+02	-2.376591e+01
2.021403e+02	-2.381693e+01
2.033078e+02	-2.386628e+01
2.044821e+02	-2.391626e+01
2.056632e+02	-2.396496e+01
2.068511e+02	-2.401656e+01
2.080459e+02	-2.406536e+01
2.092475e+02	-2.411891e+01
2.104561e+02	-2.416525e+01
2.116717e+02	-2.421500e+01
2.128943e+02	-2.426533e+01
2.141240e+02	-2.431732e+01
2.153608e+02	-2.436341e+01
2.166047e+02	-2.441411e+01
2.178558e+02	-2.446266e+01
2.191141e+02	-2.451530e+01
2.203797e+02	-2.456628e+01
2.216526e+02	-2.461753e+01
2.229329e+02	-2.466528e+01
2.242205e+02	-2.471543e+01
2.255156e+02	-2.476303e+01
2.268182e+02	-2.481291e+01
2.281283e+02	-2.486516e+01
2.294459e+02	-2.491338e+01
2.307712e+02	-2.496452e+01
2.321041e+02	-2.501302e+01
2.334447e+02	-2.506201e+01
2.347931e+02	-2.511463e+01
2.361493e+02	-2.516274e+01
2.375133e+02	-2.521509e+01
2.388851e+02	-2.526355e+01
2.402649e+02	-2.531623e+01
2.416527e+02	-2.536427e+01
2.430484e+02	-2.541286e+01
2.444523e+02	-2.546247e+01
2.458642e+02	-2.551129e+01
2.472843e+02	-2.556427e+01
2.487126e+02	-2.561158e+01
2.501492e+02	-2.566315e+01
2.515940e+02	-2.571478e+01
2.530472e+02	-2.576281e+01
2.545088e+02	-2.581311e+01
2.559789e+02	-2.586212e+01
2.574574e+02	-2.591218e+01
2.589444e+02	-2.596222e+01
2.604401e+02	-2.601132e+01
2.619444e+02	-2.606239e+01
2.634574e+02	-2.611102e+01
2.649791e+02	-2.616271e+01
2.665096e+02	-2.621221e+01
2.680489e+02	-2.626202e+01
2.695972e+02	-2.630697e+01
2.711544e+02	-2.636262e+01
2.727205e+02	-2.641293e+01
2.742958e+02	-2.646092e+01
2.758801e+02	-2.651183e+01
2.774736e+02	-2.656214e+01
2.790762e+02	-2.661126e+01
2.806882e+02	-2.666166e+01
2.823094e+02	-2.671294e+01
2.839400e+02	-2.676084e+01
2.855800e+02	-2.681377e+01
2.872295e+02	-2.686191e+01
2.888886e+02	-2.691494e+01
2.905572e+02	-2.696309e+01
2.922354e+02	-2.700888e+01
2.939234e+02	-2.706214e+01
2.956211e+02	-2.711312e+01
2.973286e+02	-2.716488e+01
2.990459e+02	-2.721239e+01
3.007732e+02	-2.726073e+01
3.025104e+02	-2.731173e+01
3.042577e+02	-2.736330e+01
3.060151e+02	-2.740943e+01
3.077826e+02	-2.746021e+01
3.095604e+02	-2.751381e+01
3.113484e+02	-2.756091e+01
3.131467e+02	-2.761627e+01
3.149554e+02	-2.766340e+01
3.167746e+02	-2.770980e+01
3.186043e+02	-2.776239e+01
3.204445e+02	-2.781416e+01
3.222954e+02	-2.785879e+01
3.241570e+02	-2.791267e+01
3.260293e+02	-2.796266e+01
3.279124e+02	-2.801367e+01
3.298064e+02	-2.806384e+01
3.317114e+02	-2.811358e+01
3.336273e+02	-2.815992e+01
3.355544e+02	-2.821133e+01
3.374925e+02	-2.826246e+01
3.394418e+02	-2.831224e+01
3.414024e+02	-2.836058e+01
3.433744e+02	-2.841832e+01
3.453577e+02	-2.846626e+01
3.473525e+02	-2.851282e+01
3.493588e+02	-2.856461e+01
3.513766e+02	-2.861594e+01
3.534062e+02	-2.866291e+01
3.554474e+02	-2.871211e+01
3.575005e+02	-2.876014e+01
3.595654e+02	-2.881311e+01
3.616422e+02	-2.886436e+01
3.637311e+02	-2.891511e+01
3.658320e+02	-2.896163e+01
3.679450e+02	-2.901478e+01
3.700702e+02	-2.906827e+01
3.722077e+02	-2.911352e+01
3.743576e+02	-2.915837e+01
3.765199e+02	-2.920952e+01
3.786946e+02	-2.926408e+01
3.808820e+02	-2.930925e+01
3.830819e+02	-2.936848e+01
3.852946e+02	-2.941440e+01
3.875200e+02	-2.946236e+01
3.897583e+02	-2.950905e+01
3.920096e+02	-2.956506e+01
3.942738e+02	-2.962246e+01
3.965511e+02	-2.966190e+01
3.988416e+02	-2.971529e+01
4.011452e+02	-2.976774e+01
4.034622e+02	-2.981554e+01
4.057926e+02	-2.986603e+01
4.081365e+02	-2.991355e+01
4.104938e+02	-2.996592e+01
4.128648e+02	-3.001717e+01
4.152495e+02	-3.006390e+01
4.176480e+02	-3.011702e+01
4.200603e+02	-3.016527e+01
4.224866e+02	-3.020987e+01
4.249268e+02	-3.026486e+01
4.273812e+02	-3.031560e+01
4.298497e+02	-3.036642e+01
4.323325e+02	-3.041363e+01
4.348297e+02	-3.046861e+01
4.373412e+02	-3.051415e+01
4.398673e+02	-3.056433e+01
4.424079e+02	-3.061277e+01
4.449633e+02	-3.066664e+01
4.475334e+02	-3.072086e+01
4.501183e+02	-3.076680e+01
4.527182e+02	-3.081377e+01
4.553330e+02	-3.086887e+01
4.579630e+02	-3.091598e+01
4.606082e+02	-3.096139e+01
4.632687e+02	-3.101742e+01
4.659445e+02	-3.106712e+01
4.686358e+02	-3.111658e+01
4.713426e+02	-3.116440e+01
4.740650e+02	-3.121320e+01
4.768032e+02	-3.126854e+01
4.795572e+02	-3.132165e+01
4.823271e+02	-3.136709e+01
4.851130e+02	-3.141988e+01
4.879150e+02	-3.147465e+01
4.907332e+02	-3.151926e+01
4.935676e+02	-3.156814e+01
4.964185e+02	-3.161185e+01
4.992858e+02	-3.166470e+01
5.021696e+02	-3.171907e+01
5.050701e+02	-3.176823e+01
5.079874e+02	-3.181695e+01
5.109215e+02	-3.186985e+01
5.138726e+02	-3.191994e+01
5.168407e+02	-3.197391e+01
5.198259e+02	-3.202022e+01
5.228284e+02	-3.206998e+01
5.258482e+02	-3.212098e+01
5.288855e+02	-3.216917e+01
5.319403e+02	-3.222283e+01
5.350128e+02	-3.226765e+01
5.381030e+02	-3.232805e+01
5.412111e+02	-3.236799e+01
5.443371e+02	-3.242515e+01
5.474812e+02	-3.247421e+01
5.506434e+02	-3.252196e+01
5.538239e+02	-3.257398e+01
5.570228e+02	-3.262306e+01
5.602401e+02	-3.267563e+01
5.634760e+02	-3.272231e+01
5.667306e+02	-3.277494e+01
5.700040e+02	-3.282198e+01
5.732964e+02	-3.287259e+01
5.766077e+02	-3.292575e+01
5.799382e+02	-3.297025e+01
5.832879e+02	-3.302856e+01
5.866569e+02	-3.308138e+01
5.900454e+02	-3.311955e+01
5.934535e+02	-3.317698e+01
5.968813e+02	-3.322032e+01
6.003288e+02	-3.327603e+01
6.037963e+02	-3.332143e+01
6.072838e+02	-3.338276e+01
6.107914e+02	-3.342920e+01
6.143194e+02	-3.347856e+01
6.178676e+02	-3.353490e+01
6.214364e+02	-3.358433e+01
6.250258e+02	-3.362745e+01
6.286359e+02	-3.367886e+01
6.322669e+02	-3.373174e+01
6.359189e+02	-3.378388e+01
6.395919e+02	-3.382982e+01
6.432862e+02	-3.387679e+01
6.470017e+02	-3.392944e+01
6.507388e+02	-3.398598e+01
6.544974e+02	-3.403522e+01
6.582778e+02	-3.407868e+01
6.620800e+02	-3.413451e+01
6.659041e+02	-3.418772e+01
6.697504e+02	-3.422063e+01
6.736188e+02	-3.427869e+01
6.775096e+02	-3.433868e+01
6.814229e+02	-3.438516e+01
6.853587e+02	-3.443721e+01
6.893173e+02	-3.448916e+01
6.932988e+02	-3.452564e+01
6.973033e+02	-3.458018e+01
7.013309e+02	-3.463894e+01
