Frequency(Hz)	Magnitude(dB)
1.000000e+01	-1.976348e+00
1.005776e+01	-1.994681e+00
1.011585e+01	-2.013203e+00
1.017428e+01	-2.031694e+00
1.023305e+01	-2.050438e+00
1.029215e+01	-2.069407e+00
1.035160e+01	-2.088408e+00
1.041139e+01	-2.107402e+00
1.047153e+01	-2.126775e+00
1.053201e+01	-2.146306e+00
1.059284e+01	-2.165778e+00
1.065403e+01	-2.185712e+00
1.071556e+01	-2.205430e+00
1.077746e+01	-2.225313e+00
1.083971e+01	-2.245523e+00
1.090232e+01	-2.265789e+00
1.096529e+01	-2.286116e+00
1.102862e+01	-2.306896e+00
1.109232e+01	-2.327541e+00
1.115639e+01	-2.348336e+00
1.122083e+01	-2.369417e+00
1.128564e+01	-2.390393e+00
1.135083e+01	-2.411677e+00
1.141639e+01	-2.432890e+00
1.148233e+01	-2.454503e+00
1.154865e+01	-2.476154e+00
1.161536e+01	-2.497986e+00
1.168245e+01	-2.519885e+00
1.174992e+01	-2.542182e+00
1.181779e+01	-2.564246e+00
1.188605e+01	-2.586472e+00
1.195470e+01	-2.609305e+00
1.202375e+01	-2.631951e+00
1.209320e+01	-2.654648e+00
1.216305e+01	-2.677586e+00
1.223330e+01	-2.700710e+00
1.230396e+01	-2.723967e+00
1.237503e+01	-2.747520e+00
1.244651e+01	-2.770931e+00
1.251840e+01	-2.794421e+00
1.259070e+01	-2.818407e+00
1.266343e+01	-2.842392e+00
1.273657e+01	-2.866318e+00
1.281014e+01	-2.890499e+00
1.288413e+01	-2.915078e+00
1.295855e+01	-2.939353e+00
1.303339e+01	-2.964122e+00
1.310867e+01	-2.989187e+00
1.318439e+01	-3.014071e+00
1.326054e+01	-3.039300e+00
1.333713e+01	-3.064335e+00
1.341417e+01	-3.089783e+00
1.349165e+01	-3.115217e+00
1.356958e+01	-3.141094e+00
1.364795e+01	-3.166875e+00
1.372678e+01	-3.192851e+00
1.380607e+01	-3.218893e+00
1.388581e+01	-3.244917e+00
1.396602e+01	-3.271521e+00
1.404668e+01	-3.298022e+00
1.412782e+01	-3.324596e+00
1.420942e+01	-3.351742e+00
1.429149e+01	-3.378625e+00
1.437404e+01	-3.405749e+00
1.445706e+01	-3.433103e+00
1.454057e+01	-3.460372e+00
1.462455e+01	-3.488025e+00
1.470902e+01	-3.515574e+00
1.479398e+01	-3.543264e+00
1.487943e+01	-3.571462e+00
1.496537e+01	-3.599672e+00
1.505181e+01	-3.627650e+00
1.513875e+01	-3.656117e+00
1.522619e+01	-3.684623e+00
1.531414e+01	-3.713444e+00
1.540259e+01	-3.742075e+00
1.549156e+01	-3.771215e+00
1.558103e+01	-3.800335e+00
1.567103e+01	-3.829283e+00
1.576155e+01	-3.858645e+00
1.585258e+01	-3.888507e+00
1.594415e+01	-3.917719e+00
1.603624e+01	-3.947951e+00
1.612886e+01	-3.977907e+00
1.622202e+01	-4.008054e+00
1.631572e+01	-4.038116e+00
1.640996e+01	-4.068284e+00
1.650474e+01	-4.099021e+00
1.660008e+01	-4.129670e+00
1.669596e+01	-4.160409e+00
1.679239e+01	-4.191365e+00
1.688938e+01	-4.222403e+00
1.698694e+01	-4.253705e+00
1.708505e+01	-4.285007e+00
1.718373e+01	-4.316265e+00
1.728299e+01	-4.347832e+00
1.738281e+01	-4.379633e+00
1.748322e+01	-4.411227e+00
1.758420e+01	-4.443152e+00
1.768576e+01	-4.475556e+00
1.778792e+01	-4.507811e+00
1.789066e+01	-4.540105e+00
1.799399e+01	-4.572595e+00
1.809793e+01	-4.605089e+00
1.820246e+01	-4.637945e+00
1.830760e+01	-4.670759e+00
1.841334e+01	-4.703860e+00
1.851969e+01	-4.737064e+00
1.862666e+01	-4.770115e+00
1.873425e+01	-4.803675e+00
1.884246e+01	-4.837152e+00
1.895129e+01	-4.870733e+00
1.906075e+01	-4.904534e+00
1.917085e+01	-4.938410e+00
1.928158e+01	-4.972643e+00
1.939295e+01	-5.006691e+00
1.950496e+01	-5.040985e+00
1.961762e+01	-5.075294e+00
1.973093e+01	-5.110252e+00
1.984490e+01	-5.144721e+00
1.995952e+01	-5.179537e+00
2.007480e+01	-5.214390e+00
2.019076e+01	-5.249283e+00
2.030738e+01	-5.284806e+00
2.042467e+01	-5.319824e+00
2.054264e+01	-5.355009e+00
2.066130e+01	-5.390813e+00
2.078064e+01	-5.426367e+00
2.090066e+01	-5.462357e+00
2.102139e+01	-5.498237e+00
2.114280e+01	-5.533969e+00
2.126492e+01	-5.570048e+00
2.138775e+01	-5.606339e+00
2.151128e+01	-5.642849e+00
2.163553e+01	-5.679042e+00
2.176050e+01	-5.715369e+00
2.188619e+01	-5.752385e+00
2.201260e+01	-5.789326e+00
2.213974e+01	-5.825890e+00
2.226762e+01	-5.863032e+00
2.239624e+01	-5.900058e+00
2.252560e+01	-5.937374e+00
2.265571e+01	-5.974773e+00
2.278656e+01	-6.011868e+00
2.291818e+01	-6.049936e+00
2.305055e+01	-6.087228e+00
2.318369e+01	-6.124859e+00
2.331760e+01	-6.162588e+00
2.345228e+01	-6.200648e+00
2.358774e+01	-6.238769e+00
2.372398e+01	-6.277084e+00
2.386101e+01	-6.315490e+00
2.399883e+01	-6.353704e+00
2.413745e+01	-6.392277e+00
2.427686e+01	-6.430871e+00
2.441709e+01	-6.469537e+00
2.455812e+01	-6.508737e+00
2.469997e+01	-6.547475e+00
2.484263e+01	-6.586273e+00
2.498612e+01	-6.625227e+00
2.513044e+01	-6.664306e+00
2.527559e+01	-6.703783e+00
2.542158e+01	-6.743116e+00
2.556842e+01	-6.782736e+00
2.571610e+01	-6.822336e+00
2.586463e+01	-6.861910e+00
2.601403e+01	-6.901463e+00
2.616428e+01	-6.941848e+00
2.631541e+01	-6.981802e+00
2.646740e+01	-7.021364e+00
2.662028e+01	-7.061632e+00
2.677404e+01	-7.101986e+00
2.692868e+01	-7.142275e+00
2.708422e+01	-7.183048e+00
2.724066e+01	-7.223428e+00
2.739800e+01	-7.263968e+00
2.755625e+01	-7.304463e+00
2.771541e+01	-7.345493e+00
2.787550e+01	-7.386207e+00
2.803650e+01	-7.426992e+00
2.819844e+01	-7.468343e+00
2.836131e+01	-7.509519e+00
2.852513e+01	-7.550594e+00
2.868989e+01	-7.591125e+00
2.885560e+01	-7.632975e+00
2.902227e+01	-7.674558e+00
2.918990e+01	-7.716146e+00
2.935850e+01	-7.757631e+00
2.952807e+01	-7.799026e+00
2.969863e+01	-7.840579e+00
2.987016e+01	-7.882973e+00
3.004269e+01	-7.924804e+00
3.021622e+01	-7.967035e+00
3.039075e+01	-8.008728e+00
3.056628e+01	-8.050560e+00
3.074283e+01	-8.092834e+00
3.092040e+01	-8.135355e+00
3.109900e+01	-8.177980e+00
3.127862e+01	-8.220221e+00
3.145929e+01	-8.262414e+00
3.164099e+01	-8.305344e+00
3.182375e+01	-8.348181e+00
3.200756e+01	-8.391484e+00
3.219244e+01	-8.433558e+00
3.237838e+01	-8.476500e+00
3.256540e+01	-8.519223e+00
3.275349e+01	-8.563143e+00
3.294268e+01	-8.605356e+00
3.313295e+01	-8.649167e+00
3.332433e+01	-8.692326e+00
3.351681e+01	-8.735731e+00
3.371040e+01	-8.778641e+00
3.390511e+01	-8.821880e+00
3.410094e+01	-8.865909e+00
3.429791e+01	-8.908852e+00
3.449601e+01	-8.952968e+00
3.469526e+01	-8.996141e+00
3.489566e+01	-9.040334e+00
3.509721e+01	-9.084323e+00
3.529993e+01	-9.128101e+00
3.550382e+01	-9.171371e+00
3.570889e+01	-9.215693e+00
3.591515e+01	-9.260013e+00
3.612259e+01	-9.303772e+00
3.633123e+01	-9.348153e+00
3.654108e+01	-9.392526e+00
3.675214e+01	-9.436629e+00
3.696442e+01	-9.481432e+00
3.717792e+01	-9.525425e+00
3.739266e+01	-9.570316e+00
3.760864e+01	-9.614220e+00
3.782587e+01	-9.659275e+00
3.804435e+01	-9.704147e+00
3.826409e+01	-9.748386e+00
3.848510e+01	-9.793487e+00
3.870739e+01	-9.838273e+00
3.893096e+01	-9.883034e+00
3.915583e+01	-9.927471e+00
3.938199e+01	-9.972303e+00
3.960946e+01	-1.001840e+01
3.983824e+01	-1.006310e+01
4.006834e+01	-1.010755e+01
4.029978e+01	-1.015279e+01
4.053255e+01	-1.019803e+01
4.076666e+01	-1.024375e+01
4.100213e+01	-1.028868e+01
4.123896e+01	-1.033390e+01
4.147715e+01	-1.038016e+01
4.171672e+01	-1.042541e+01
4.195767e+01	-1.047105e+01
4.220002e+01	-1.051583e+01
4.244377e+01	-1.056194e+01
4.268892e+01	-1.060806e+01
4.293549e+01	-1.065299e+01
4.318348e+01	-1.069937e+01
4.343291e+01	-1.074487e+01
4.368377e+01	-1.079100e+01
4.393609e+01	-1.083679e+01
4.418986e+01	-1.088208e+01
4.444510e+01	-1.092835e+01
4.470182e+01	-1.097442e+01
4.496001e+01	-1.102059e+01
4.521970e+01	-1.106623e+01
4.548089e+01	-1.111307e+01
4.574358e+01	-1.115899e+01
4.600779e+01	-1.120502e+01
4.627353e+01	-1.125183e+01
4.654081e+01	-1.129743e+01
4.680963e+01	-1.134455e+01
4.708000e+01	-1.139037e+01
4.735193e+01	-1.143688e+01
4.762543e+01	-1.148309e+01
4.790051e+01	-1.153011e+01
4.817719e+01	-1.157616e+01
4.845545e+01	-1.162324e+01
4.873533e+01	-1.166886e+01
4.901682e+01	-1.171634e+01
4.929994e+01	-1.176235e+01
4.958470e+01	-1.180958e+01
4.987110e+01	-1.185606e+01
5.015915e+01	-1.190322e+01
5.044887e+01	-1.195013e+01
5.074026e+01	-1.199688e+01
5.103333e+01	-1.204350e+01
5.132810e+01	-1.208992e+01
5.162457e+01	-1.213707e+01
5.192275e+01	-1.218435e+01
5.222265e+01	-1.223116e+01
5.252429e+01	-1.227793e+01
5.282767e+01	-1.232459e+01
5.313280e+01	-1.237329e+01
5.343969e+01	-1.241927e+01
5.374836e+01	-1.246696e+01
5.405880e+01	-1.251421e+01
5.437105e+01	-1.256198e+01
5.468509e+01	-1.260917e+01
5.500095e+01	-1.265588e+01
5.531863e+01	-1.270362e+01
5.563815e+01	-1.275103e+01
5.595951e+01	-1.279775e+01
5.628273e+01	-1.284545e+01
5.660782e+01	-1.289254e+01
5.693479e+01	-1.294032e+01
5.726364e+01	-1.298816e+01
5.759439e+01	-1.303538e+01
5.792705e+01	-1.308313e+01
5.826164e+01	-1.313084e+01
5.859815e+01	-1.317766e+01
5.893662e+01	-1.322572e+01
5.927703e+01	-1.327387e+01
5.961941e+01	-1.332169e+01
5.996377e+01	-1.336856e+01
6.031012e+01	-1.341721e+01
6.065847e+01	-1.346409e+01
6.100883e+01	-1.351161e+01
6.136121e+01	-1.355999e+01
6.171563e+01	-1.360792e+01
6.207210e+01	-1.365616e+01
6.243063e+01	-1.370478e+01
6.279122e+01	-1.375210e+01
6.315390e+01	-1.379974e+01
6.351868e+01	-1.384732e+01
6.388556e+01	-1.389510e+01
6.425456e+01	-1.394322e+01
6.462569e+01	-1.399125e+01
6.499897e+01	-1.403924e+01
6.537440e+01	-1.408733e+01
6.575200e+01	-1.413507e+01
6.613178e+01	-1.418346e+01
6.651375e+01	-1.423166e+01
6.689793e+01	-1.427997e+01
6.728433e+01	-1.432758e+01
6.767297e+01	-1.437647e+01
6.806384e+01	-1.442580e+01
6.845698e+01	-1.447319e+01
6.885238e+01	-1.452159e+01
6.925007e+01	-1.457018e+01
6.965005e+01	-1.461796e+01
7.005235e+01	-1.466530e+01
7.045697e+01	-1.471552e+01
7.086393e+01	-1.476274e+01
7.127323e+01	-1.481119e+01
7.168490e+01	-1.485951e+01
7.209895e+01	-1.490761e+01
7.251539e+01	-1.495559e+01
7.293424e+01	-1.500488e+01
7.335551e+01	-1.505355e+01
7.377920e+01	-1.510068e+01
7.420535e+01	-1.515005e+01
7.463396e+01	-1.519835e+01
7.506504e+01	-1.524689e+01
7.549861e+01	-1.529544e+01
7.593469e+01	-1.534411e+01
7.637328e+01	-1.539256e+01
7.681441e+01	-1.544016e+01
7.725809e+01	-1.549031e+01
7.770433e+01	-1.553740e+01
7.815315e+01	-1.558678e+01
7.860456e+01	-1.563597e+01
7.905857e+01	-1.568396e+01
7.951521e+01	-1.573353e+01
7.997449e+01	-1.578185e+01
8.043642e+01	-1.583074e+01
8.090102e+01	-1.587892e+01
8.136830e+01	-1.592726e+01
8.183828e+01	-1.597738e+01
8.231097e+01	-1.602583e+01
8.278640e+01	-1.607422e+01
8.326457e+01	-1.612378e+01
8.374550e+01	-1.617250e+01
8.422921e+01	-1.622079e+01
8.471572e+01	-1.626957e+01
8.520503e+01	-1.631821e+01
8.569717e+01	-1.636751e+01
8.619215e+01	-1.641559e+01
8.669000e+01	-1.646570e+01
8.719071e+01	-1.651461e+01
8.769432e+01	-1.656302e+01
8.820084e+01	-1.661280e+01
8.871029e+01	-1.666062e+01
8.922267e+01	-1.670977e+01
8.973802e+01	-1.675845e+01
9.025634e+01	-1.680813e+01
9.077766e+01	-1.685734e+01
9.130199e+01	-1.690603e+01
9.182935e+01	-1.695455e+01
9.235975e+01	-1.700387e+01
9.289321e+01	-1.705238e+01
9.342976e+01	-1.710225e+01
9.396941e+01	-1.715125e+01
9.451217e+01	-1.719995e+01
9.505807e+01	-1.724868e+01
9.560712e+01	-1.729771e+01
9.615934e+01	-1.734762e+01
9.671476e+01	-1.739623e+01
9.727338e+01	-1.744588e+01
9.783522e+01	-1.749524e+01
9.840032e+01	-1.754414e+01
9.896867e+01	-1.759310e+01
9.954031e+01	-1.764260e+01
1.001153e+02	-1.769124e+01
1.006935e+02	-1.774048e+01
1.012751e+02	-1.779008e+01
1.018601e+02	-1.783840e+01
1.024484e+02	-1.788784e+01
1.030402e+02	-1.793692e+01
1.036353e+02	-1.798636e+01
1.042339e+02	-1.803667e+01
1.048360e+02	-1.808580e+01
1.054415e+02	-1.813416e+01
1.060505e+02	-1.818338e+01
1.066631e+02	-1.823162e+01
1.072791e+02	-1.828152e+01
1.078988e+02	-1.833118e+01
1.085220e+02	-1.838069e+01
1.091488e+02	-1.843040e+01
1.097793e+02	-1.848046e+01
1.104133e+02	-1.852950e+01
1.110511e+02	-1.857804e+01
1.116925e+02	-1.862709e+01
1.123376e+02	-1.867739e+01
1.129865e+02	-1.872629e+01
1.136391e+02	-1.877512e+01
1.142955e+02	-1.882517e+01
1.149556e+02	-1.887428e+01
1.156196e+02	-1.892498e+01
1.162874e+02	-1.897352e+01
1.169591e+02	-1.902090e+01
1.176347e+02	-1.907288e+01
1.183141e+02	-1.912198e+01
1.189975e+02	-1.917140e+01
1.196848e+02	-1.921931e+01
1.203761e+02	-1.926992e+01
1.210714e+02	-1.931930e+01
1.217707e+02	-1.936811e+01
1.224740e+02	-1.942014e+01
1.231814e+02	-1.946815e+01
1.238929e+02	-1.951711e+01
1.246085e+02	-1.956708e+01
1.253283e+02	-1.961645e+01
1.260522e+02	-1.966427e+01
1.267802e+02	-1.971528e+01
1.275125e+02	-1.976504e+01
1.282490e+02	-1.981385e+01
1.289898e+02	-1.986333e+01
1.297348e+02	-1.991264e+01
1.304842e+02	-1.996258e+01
1.312378e+02	-2.001098e+01
1.319959e+02	-2.006249e+01
1.327583e+02	-2.011118e+01
1.335251e+02	-2.016029e+01
1.342963e+02	-2.021053e+01
1.350720e+02	-2.025982e+01
1.358522e+02	-2.030902e+01
1.366368e+02	-2.036110e+01
1.374260e+02	-2.041029e+01
1.382198e+02	-2.045565e+01
1.390182e+02	-2.050934e+01
1.398211e+02	-2.055836e+01
1.406287e+02	-2.060734e+01
1.414410e+02	-2.065568e+01
1.422579e+02	-2.070636e+01
1.430796e+02	-2.075654e+01
1.439060e+02	-2.080495e+01
1.447372e+02	-2.085461e+01
1.455732e+02	-2.090406e+01
1.464141e+02	-2.095405e+01
1.472597e+02	-2.100404e+01
1.481103e+02	-2.105326e+01
1.489658e+02	-2.110410e+01
1.498262e+02	-2.115110e+01
1.506916e+02	-2.120124e+01
1.515620e+02	-2.125072e+01
1.524374e+02	-2.130044e+01
1.533179e+02	-2.135251e+01
1.542034e+02	-2.140055e+01
1.550941e+02	-2.145141e+01
1.559899e+02	-2.149984e+01
1.568909e+02	-2.154876e+01
1.577971e+02	-2.160204e+01
1.587085e+02	-2.164956e+01
1.596252e+02	-2.169777e+01
1.605472e+02	-2.175022e+01
1.614745e+02	-2.179695e+01
1.624072e+02	-2.184844e+01
1.633453e+02	-2.189795e+01
1.642887e+02	-2.194675e+01
1.652377e+02	-2.199767e+01
1.661921e+02	-2.204735e+01
1.671520e+02	-2.209484e+01
1.681175e+02	-2.214841e+01
1.690885e+02	-2.219543e+01
1.700651e+02	-2.224707e+01
1.710474e+02	-2.229619e+01
1.720354e+02	-2.234592e+01
1.730291e+02	-2.239513e+01
1.740285e+02	-2.244491e+01
1.750337e+02	-2.249349e+01
1.760446e+02	-2.254347e+01
1.770615e+02	-2.259494e+01
1.780842e+02	-2.264270e+01
1.791128e+02	-2.269344e+01
1.801473e+02	-2.274468e+01
1.811878e+02	-2.279403e+01
1.822344e+02	-2.284476e+01
1.832870e+02	-2.289210e+01
1.843456e+02	-2.294198e+01
1.854104e+02	-2.299507e+01
1.864813e+02	-2.304058e+01
1.875584e+02	-2.309222e+01
1.886418e+02	-2.314238e+01
1.897313e+02	-2.319129e+01
1.908272e+02	-2.324349e+01
1.919294e+02	-2.329348e+01
1.930380e+02	-2.334005e+01
1.941530e+02	-2.339105e+01
1.952744e+02	-2.343905e+01
1.964023e+02	-2.349112e+01
1.975367e+02	-2.354308e+01
1.986777e+02	-2.358939e+01
1.998252e+02	-2.364068e+01
2.009794e+02	-2.368823e+01
2.021403e+02	-2.374222e+01
2.033078e+02	-2.378861e+01
2.044821e+02	-2.384315e+01
2.056632e+02	-2.389068e+01
2.068511e+02	-2.394047e+01
2.080459e+02	-2.398929e+01
2.092475e+02	-2.403859e+01
2.104561e+02	-2.408892e+01
2.116717e+02	-2.413726e+01
2.128943e+02	-2.418758e+01
2.141240e+02	-2.424049e+01
2.153608e+02	-2.428890e+01
2.166047e+02	-2.433766e+01
2.178558e+02	-2.439122e+01
2.191141e+02	-2.444114e+01
2.203797e+02	-2.448958e+01
2.216526e+02	-2.453916e+01
2.229329e+02	-2.458761e+01
2.242205e+02	-2.463461e+01
2.255156e+02	-2.468844e+01
2.268182e+02	-2.473821e+01
2.281283e+02	-2.478845e+01
2.294459e+02	-2.483772e+01
2.307712e+02	-2.488732e+01
2.321041e+02	-2.493710e+01
2.334447e+02	-2.498629e+01
2.347931e+02	-2.503635e+01
2.361493e+02	-2.508725e+01
2.375133e+02	-2.513808e+01
2.388851e+02	-2.518519e+01
2.402649e+02	-2.523780e+01
2.416527e+02	-2.528723e+01
2.430484e+02	-2.533976e+01
2.444523e+02	-2.538791e+01
2.458642e+02	-2.543831e+01
2.472843e+02	-2.548775e+01
2.487126e+02	-2.553577e+01
2.501492e+02	-2.558676e+01
2.515940e+02	-2.563485e+01
2.530472e+02	-2.568801e+01
2.545088e+02	-2.573273e+01
2.559789e+02	-2.578719e+01
2.574574e+02	-2.583508e+01
2.589444e+02	-2.588373e+01
2.604401e+02	-2.593735e+01
2.619444e+02	-2.598808e+01
2.634574e+02	-2.603671e+01
2.649791e+02	-2.608441e+01
2.665096e+02	-2.613508e+01
2.680489e+02	-2.618587e+01
2.695972e+02	-2.623651e+01
2.711544e+02	-2.628417e+01
2.727205e+02	-2.633293e+01
2.742958e+02	-2.638286e+01
2.758801e+02	-2.643595e+01
2.774736e+02	-2.648437e+01
2.790762e+02	-2.653575e+01
2.806882e+02	-2.658744e+01
2.823094e+02	-2.663639e+01
2.839400e+02	-2.668681e+01
2.855800e+02	-2.673438e+01
2.872295e+02	-2.678204e+01
2.888886e+02	-2.683908e+01
2.905572e+02	-2.688561e+01
2.922354e+02	-2.693303e+01
2.939234e+02	-2.698379e+01
2.956211e+02	-2.703560e+01
2.973286e+02	-2.708350e+01
2.990459e+02	-2.713417e+01
3.007732e+02	-2.718869e+01
3.025104e+02	-2.723362e+01
3.042577e+02	-2.728476e+01
3.060151e+02	-2.733889e+01
3.077826e+02	-2.738267e+01
3.095604e+02	-2.743543e+01
3.113484e+02	-2.748502e+01
3.131467e+02	-2.753579e+01
3.149554e+02	-2.758497e+01
3.167746e+02	-2.763554e+01
3.186043e+02	-2.768779e+01
3.204445e+02	-2.773541e+01
3.222954e+02	-2.778865e+01
3.241570e+02	-2.783820e+01
3.260293e+02	-2.788723e+01
3.279124e+02	-2.793775e+01
3.298064e+02	-2.798250e+01
3.317114e+02	-2.803665e+01
3.336273e+02	-2.808498e+01
3.355544e+02	-2.813631e+01
3.374925e+02	-2.818427e+01
3.394418e+02	-2.823255e+01
3.414024e+02	-2.828831e+01
3.433744e+02	-2.833636e+01
3.453577e+02	-2.838514e+01
3.473525e+02	-2.843319e+01
3.493588e+02	-2.848475e+01
3.513766e+02	-2.853506e+01
3.534062e+02	-2.858260e+01
3.554474e+02	-2.863436e+01
3.575005e+02	-2.868779e+01
3.595654e+02	-2.873176e+01
3.616422e+02	-2.878649e+01
3.637311e+02	-2.883573e+01
3.658320e+02	-2.888974e+01
3.679450e+02	-2.893386e+01
3.700702e+02	-2.898536e+01
3.722077e+02	-2.903629e+01
3.743576e+02	-2.908593e+01
3.765199e+02	-2.913275e+01
3.786946e+02	-2.918883e+01
3.808820e+02	-2.923771e+01
3.830819e+02	-2.928530e+01
3.852946e+02	-2.933060e+01
3.875200e+02	-2.938871e+01
3.897583e+02	-2.943690e+01
3.920096e+02	-2.948392e+01
3.942738e+02	-2.953666e+01
3.965511e+02	-2.959242e+01
3.988416e+02	-2.963962e+01
4.011452e+02	-2.968795e+01
4.034622e+02	-2.973907e+01
4.057926e+02	-2.979343e+01
4.081365e+02	-2.983828e+01
4.104938e+02	-2.988857e+01
4.128648e+02	-2.993231e+01
4.152495e+02	-2.998634e+01
4.176480e+02	-3.003549e+01
4.200603e+02	-3.008869e+01
4.224866e+02	-3.013529e+01
4.249268e+02	-3.018524e+01
4.273812e+02	-3.023240e+01
4.298497e+02	-3.028670e+01
4.323325e+02	-3.033597e+01
4.348297e+02	-3.038749e+01
4.373412e+02	-3.044027e+01
4.398673e+02	-3.048827e+01
4.424079e+02	-3.053439e+01
4.449633e+02	-3.058852e+01
4.475334e+02	-3.063611e+01
4.501183e+02	-3.069169e+01
4.527182e+02	-3.074027e+01
4.553330e+02	-3.078535e+01
4.579630e+02	-3.084421e+01
4.606082e+02	-3.088682e+01
4.632687e+02	-3.094021e+01
4.659445e+02	-3.099191e+01
4.686358e+02	-3.103999e+01
4.713426e+02	-3.108621e+01
4.740650e+02	-3.114042e+01
4.768032e+02	-3.118847e+01
4.795572e+02	-3.124032e+01
4.823271e+02	-3.129543e+01
4.851130e+02	-3.134151e+01
4.879150e+02	-3.139016e+01
4.907332e+02	-3.144264e+01
4.935676e+02	-3.148984e+01
4.964185e+02	-3.154152e+01
4.992858e+02	-3.159364e+01
5.021696e+02	-3.164091e+01
5.050701e+02	-3.169161e+01
5.079874e+02	-3.173854e+01
5.109215e+02	-3.178990e+01
5.138726e+02	-3.184354e+01
5.168407e+02	-3.189122e+01
5.198259e+02	-3.194195e+01
5.228284e+02	-3.199079e+01
5.258482e+02	-3.204473e+01
5.288855e+02	-3.209935e+01
5.319403e+02	-3.214660e+01
5.350128e+02	-3.219468e+01
5.381030e+02	-3.224815e+01
5.412111e+02	-3.230518e+01
5.443371e+02	-3.234435e+01
5.474812e+02	-3.239624e+01
5.506434e+02	-3.244618e+01
5.538239e+02	-3.249566e+01
5.570228e+02	-3.254962e+01
5.602401e+02	-3.259621e+01
5.634760e+02	-3.264740e+01
5.667306e+02	-3.269996e+01
5.700040e+02	-3.274087e+01
5.732964e+02	-3.279738e+01
5.766077e+02	-3.285008e+01
5.799382e+02	-3.289888e+01
5.832879e+02	-3.295461e+01
5.866569e+02	-3.299245e+01
5.900454e+02	-3.305194e+01
5.934535e+02	-3.309814e+01
5.968813e+02	-3.315332e+01
6.003288e+02	-3.320071e+01
6.037963e+02	-3.325496e+01
6.072838e+02	-3.330109e+01
6.107914e+02	-3.335310e+01
6.143194e+02	-3.340484e+01
6.178676e+02	-3.344612e+01
6.214364e+02	-3.349853e+01
6.250258e+02	-3.355965e+01
6.286359e+02	-3.360397e+01
6.322669e+02	-3.365918e+01
6.359189e+02	-3.370154e+01
6.395919e+02	-3.374363e+01
6.432862e+02	-3.380895e+01
6.470017e+02	-3.385605e+01
6.507388e+02	-3.390372e+01
6.544974e+02	-3.394612e+01
6.582778e+02	-3.401145e+01
6.620800e+02	-3.406014e+01
6.659041e+02	-3.411186e+01
6.697504e+02	-3.415551e+01
6.736188e+02	-3.420668e+01
6.775096e+02	-3.426416e+01
6.814229e+02	-3.431106e+01
6.853587e+02	-3.436138e+01
6.893173e+02	-3.440850e+01
6.932988e+02	-3.447039e+01
6.973033e+02	-3.451367e+01
7.013309e+02	-3.455956e+01
